0.1811353,0.15867591,0.12724483,0.09280288,0.04041791,-0.029940844,-0.11077654,-0.19612873,-0.27244788,-0.34732312,-0.42665333,-0.5030033,-0.56887627,-0.6167755,-0.65121746,-0.67963743,-0.70658267,-0.73054767,-0.7410246,-0.7440356,-0.7440356,-0.7455104,-0.7410246,-0.7290422,-0.71856517,-0.70959365,-0.70209694,-0.6946309,-0.6826484,-0.6766572,-0.6766572,-0.67963743,-0.6751517,-0.6616944,-0.6482065,-0.6437207,-0.6437207,-0.6422152,-0.6362239,-0.62875795,-0.62574697,-0.62875795,-0.62875795,-0.62126124,-0.61527,-0.6137952,-0.6137952,-0.61228967,-0.60629845,-0.60479295,-0.60780394,-0.60927874,-0.60629845,-0.597327,-0.5913357,-0.594316,-0.60328746,-0.60629845,-0.6003072,-0.5958215,-0.6018127,-0.6137952,-0.6242722,-0.6242722,-0.61828095,-0.6137952,-0.61228967,-0.60927874,-0.60328746,-0.59880173,-0.6018127,-0.61078423,-0.6137952,-0.60927874,-0.60479295,-0.60328746,-0.60780394,-0.60780394,-0.6018127,-0.5928105,-0.5898302,-0.5928105,-0.5913357,-0.58534443,-0.5808587,-0.58233356,-0.58534443,-0.5868499,-0.58233356,-0.573362,-0.5718565,-0.5808587,-0.5898302,-0.5898302,-0.5898302,-0.58383894,-0.5808587,-0.5808587,-0.5763423,-0.5748675,-0.5763423,-0.5778477,-0.5763423,-0.56137955,-0.552408,-0.5509025,-0.55689377,-0.56137955,-0.55987406,-0.5553883,-0.5553883,-0.56288505,-0.5658653,-0.55839926,-0.54042554,-0.5194715,-0.49701202,-0.46856135,-0.43264455,-0.4012136,-0.3862201,-0.37574315,-0.35780013,-0.31586146,-0.2589907,-0.20808041,-0.18264073,-0.18562096,-0.19910902,-0.20808041,-0.20808041,-0.21855748,-0.25450492,-0.3293494,-0.44462705,-0.5673708,-0.6691604,-0.72606194,-0.7365389,-0.72157615,-0.70658267,-0.6961057,-0.69011444,-0.68562865,-0.68713415,-0.69011444,-0.6931254,-0.69011444,-0.6721715,-0.6586834,-0.6557032,-0.6586834,-0.6616944,-0.6557032,-0.6452262,-0.63474923,-0.62126124,-0.61228967,-0.5913357,-0.5329288,-0.37875414,-0.11378753,0.2470082,0.62126136,0.8368231,0.87277055,0.78142715,0.5928105,0.33681536,0.010461688,-0.38173437,-0.7350334,-0.91618407,-0.88324755,-0.73205316,-0.58534443,-0.5194715,-0.53593975,-0.5793533,-0.61228967,-0.62276673,-0.61828095,-0.60479295,-0.58534443,-0.57038176,-0.56288505,-0.56137955,-0.56137955,-0.54641676,-0.53145397,-0.51646054,-0.5074891,-0.4940318,-0.4820493,-0.47304708,-0.47157234,-0.47903836,-0.48054385,-0.47006685,-0.45359856,-0.44161606,-0.4311391,-0.4191566,-0.3997081,-0.38173437,-0.36978263,-0.36379135,-0.35629463,-0.3383209,-0.3188724,-0.3039096,-0.28145015,-0.2634765,-0.24402791,-0.22903442,-0.21855748,-0.20510018,-0.178155,-0.13922727,-0.109301805,-0.09283352,-0.082325816,-0.06736308,-0.03743756,-0.0014901161,0.029940963,0.049389362,0.070343375,0.09280288,0.11077654,0.12724483,0.13474154,0.14521861,0.16316152,0.1796298,0.19010675,0.19609809,0.19910896,0.19760358,0.18562102,0.15419006,0.10478532,0.04640913,-0.013472617,-0.07784009,-0.15120971,-0.2365312,-0.3188724,-0.39522237,-0.46708655,-0.528443,-0.58383894,-0.62875795,-0.6601889,-0.68713415,-0.71109915,-0.73054767,-0.7380444,-0.7350334,-0.72756743,-0.72606194,-0.72756743,-0.72606194,-0.7140794,-0.70360243,-0.6961057,-0.6931254,-0.68713415,-0.67963743,-0.6721715,-0.6691604,-0.6691604,-0.6631692,-0.64971197,-0.63923496,-0.6332437,-0.6362239,-0.6362239,-0.62725246,-0.6167755,-0.61078423,-0.60927874,-0.61228967,-0.60927874,-0.60328746,-0.597327,-0.5928105,-0.5928105,-0.5898302,-0.5898302,-0.594316,-0.59880173,-0.6018127,-0.59880173,-0.594316,-0.6003072,-0.60629845,-0.60780394,-0.60328746,-0.597327,-0.5958215,-0.6018127,-0.60629845,-0.60629845,-0.60780394,-0.6137952,-0.62276673,-0.62725246,-0.62276673,-0.6167755,-0.6137952,-0.61828095,-0.62126124,-0.61828095,-0.60780394,-0.59880173,-0.59880173,-0.6018127,-0.60780394,-0.6137952,-0.61527,-0.61527,-0.61078423,-0.6018127,-0.5958215,-0.597327,-0.6018127,-0.60629845,-0.6003072,-0.5928105,-0.5868499,-0.5868499,-0.58534443,-0.5778477,-0.57038176,-0.56887627,-0.56887627,-0.57038176,-0.56288505,-0.54792225,-0.52994853,-0.5045088,-0.46856135,-0.42815882,-0.39522237,-0.38173437,-0.37574315,-0.35780013,-0.31586146,-0.25597972,-0.20958596,-0.19462323,-0.20510018,-0.22156847,-0.22903442,-0.22755975,-0.2350257,-0.27696443,-0.35629463,-0.47605807,-0.6018127,-0.70209694,-0.7530072,-0.7619786,-0.7515017,-0.7395192,-0.7380444,-0.7335279,-0.72305095,-0.71109915,-0.70808816,-0.71109915,-0.71109915,-0.7006222,-0.68863964,-0.6781627,-0.67367697,-0.6691604,-0.6601889,-0.6586834,-0.6557032,-0.6452262,-0.63173825,-0.597327,-0.52546275,-0.37426835,-0.11827326,0.22304332,0.5718566,0.757493,0.7544819,0.62574697,0.41765118,0.18562102,-0.07784009,-0.39371687,-0.6931254,-0.8592826,-0.8518166,-0.73054767,-0.6003072,-0.5434365,-0.55987406,-0.60479295,-0.64074045,-0.6541977,-0.6482065,-0.6332437,-0.61828095,-0.60328746,-0.5928105,-0.5898302,-0.58233356,-0.56887627,-0.55689377,-0.54491127,-0.53892004,-0.5329288,-0.5194715,-0.5105001,-0.5030033,-0.49701202,-0.4895153,-0.47605807,-0.46558106,-0.45808434,-0.45660955,-0.44760734,-0.42963362,-0.4086796,-0.39221138,-0.38173437,-0.36978263,-0.35331434,-0.3368461,-0.3203779,-0.3068899,-0.28891617,-0.26498193,-0.24550271,-0.23053998,-0.22006291,-0.20359474,-0.17664945,-0.14672405,-0.11827326,-0.09581375,-0.07184875,-0.038912356,-0.0029956102,0.029940963,0.055380583,0.07485986,0.09728861,0.119748116,0.13621628,0.14819884,0.15867591,0.17065835,0.1811353,0.18712652,0.18712652,0.18863201,0.18863201,0.17514396,0.14220762,0.08681166,0.022444129,-0.04342878,-0.11228204,-0.1901375,-0.27545887,-0.35927486,-0.43415004,-0.5014978,-0.56439054,-0.61975574,-0.6631692,-0.6931254,-0.7140794,-0.73054767,-0.7455104,-0.7499962,-0.7410246,-0.73205316,-0.72756743,-0.7290422,-0.73205316,-0.72756743,-0.71709037,-0.70808816,-0.7051079,-0.6991167,-0.68713415,-0.67367697,-0.6631692,-0.6572087,-0.6482065,-0.6377295,-0.62725246,-0.62276673,-0.62574697,-0.62574697,-0.61828095,-0.60927874,-0.6018127,-0.6003072,-0.5958215,-0.5883247,-0.58534443,-0.5868499,-0.5928105,-0.594316,-0.5883247,-0.58233356,-0.58383894,-0.5913357,-0.5958215,-0.5883247,-0.5793533,-0.5748675,-0.5763423,-0.5793533,-0.5778477,-0.56887627,-0.56288505,-0.56439054,-0.57038176,-0.5718565,-0.5748675,-0.5763423,-0.5793533,-0.5778477,-0.5748675,-0.57038176,-0.573362,-0.5808587,-0.5808587,-0.5748675,-0.5673708,-0.56288505,-0.56887627,-0.5763423,-0.5748675,-0.56887627,-0.56887627,-0.56887627,-0.57038176,-0.5673708,-0.56137955,-0.55839926,-0.55987406,-0.55689377,-0.5539135,-0.552408,-0.5539135,-0.55987406,-0.56137955,-0.55689377,-0.5553883,-0.55987406,-0.56887627,-0.56887627,-0.56137955,-0.5539135,-0.5509025,-0.55689377,-0.55987406,-0.55839926,-0.5539135,-0.549397,-0.5509025,-0.552408,-0.54193103,-0.52546275,-0.5014978,-0.46257007,-0.4191566,-0.37875414,-0.35780013,-0.35180885,-0.33982635,-0.29939318,-0.23355097,-0.18113524,-0.16319221,-0.18562096,-0.2230739,-0.24101692,-0.23355097,-0.23053998,-0.2604962,-0.3293494,-0.43713033,-0.5553883,-0.6586834,-0.73054767,-0.7634841,-0.7619786,-0.7440356,-0.72305095,-0.7051079,-0.69161993,-0.6781627,-0.67367697,-0.6781627,-0.68562865,-0.68562865,-0.6766572,-0.6631692,-0.6557032,-0.6616944,-0.6661802,-0.6661802,-0.6541977,-0.63173825,-0.61228967,-0.5808587,-0.50598353,-0.3368461,-0.06287736,0.28443038,0.6272526,0.7919042,0.76796997,0.62276673,0.3952223,0.14819884,-0.11526233,-0.41467083,-0.6946309,-0.8518166,-0.8428143,-0.7290422,-0.6018127,-0.54792225,-0.573362,-0.62574697,-0.6586834,-0.6601889,-0.63923496,-0.61228967,-0.597327,-0.5868499,-0.58233356,-0.58383894,-0.5883247,-0.5868499,-0.5748675,-0.5658653,-0.55689377,-0.552408,-0.54491127,-0.52994853,-0.51646054,-0.5089946,-0.5105001,-0.5089946,-0.5014978,-0.48502952,-0.46856135,-0.45958984,-0.45061833,-0.43415004,-0.41467083,-0.3982026,-0.3892311,-0.38173437,-0.36827713,-0.35030335,-0.33383512,-0.31586146,-0.2964129,-0.27545887,-0.25299942,-0.2350257,-0.22006291,-0.20208925,-0.178155,-0.14970428,-0.12426448,-0.10180503,-0.07485986,-0.041923285,-0.008986831,0.016452909,0.03442669,0.05387509,0.076334596,0.09280288,0.10327983,0.10927117,0.12125361,0.13772178,0.15419006,0.16316152,0.15419006,0.14070201,0.12423384,0.09581387,0.055380583,0.0014901161,-0.065888286,-0.13624698,-0.2125662,-0.29343265,-0.37426835,-0.45061833,-0.52245176,-0.5868499,-0.646701,-0.69161993,-0.72157615,-0.7380444,-0.7499962,-0.7634841,-0.7754666,-0.7754666,-0.7619786,-0.7499962,-0.7499962,-0.7605039,-0.76796985,-0.7589984,-0.7395192,-0.72305095,-0.72305095,-0.72606194,-0.72455645,-0.7140794,-0.70658267,-0.72305095,-0.7410246,-0.7380444,-0.71109915,-0.6691604,-0.63474923,-0.62126124,-0.62875795,-0.6422152,-0.6482065,-0.6526922,-0.65121746,-0.6422152,-0.6377295,-0.6377295,-0.6437207,-0.6452262,-0.64074045,-0.63474923,-0.6332437,-0.64074045,-0.646701,-0.6482065,-0.6482065,-0.6482065,-0.64971197,-0.65121746,-0.65121746,-0.6526922,-0.6616944,-0.6781627,-0.69161993,-0.6946309,-0.68863964,-0.67963743,-0.670666,-0.6616944,-0.6557032,-0.6572087,-0.6631692,-0.6751517,-0.6781627,-0.67367697,-0.6661802,-0.6676857,-0.6721715,-0.6751517,-0.6676857,-0.6572087,-0.6526922,-0.6572087,-0.6616944,-0.6586834,-0.65121746,-0.646701,-0.64971197,-0.6557032,-0.6557032,-0.64971197,-0.63474923,-0.60927874,-0.5673708,-0.5149858,-0.46856135,-0.44312155,-0.43562484,-0.4236731,-0.39073658,-0.33982635,-0.2964129,-0.27843916,-0.2829557,-0.29939318,-0.31137568,-0.31137568,-0.30990088,-0.33383512,-0.3862201,-0.4820493,-0.60479295,-0.72606194,-0.81288886,-0.8518166,-0.8547968,-0.8428143,-0.8353483,-0.8383286,-0.8308626,-0.8173746,-0.79940087,-0.7949151,-0.79940087,-0.81288886,-0.8203549,-0.8173746,-0.8098779,-0.7964206,-0.78443813,-0.7769414,-0.7739611,-0.76646435,-0.7470159,-0.71709037,-0.6601889,-0.528443,-0.28593594,0.05387509,0.44161618,0.7110685,0.76348424,0.66618025,0.47753286,0.24550283,-0.007481277,-0.3203779,-0.6586834,-0.89523005,-0.95658654,-0.86975956,-0.7335279,-0.6482065,-0.63923496,-0.67367697,-0.7125739,-0.73054767,-0.7290422,-0.7140794,-0.6931254,-0.6766572,-0.6646747,-0.6661802,-0.6616944,-0.6541977,-0.64074045,-0.62875795,-0.6242722,-0.6137952,-0.6003072,-0.58534443,-0.573362,-0.57038176,-0.56137955,-0.5434365,-0.520977,-0.5045088,-0.4940318,-0.4910208,-0.4820493,-0.46856135,-0.45660955,-0.44760734,-0.43863583,-0.42514783,-0.4101851,-0.3997081,-0.39371687,-0.38025957,-0.35478914,-0.32636917,-0.29791844,-0.27843916,-0.2589907,-0.23803669,-0.2125662,-0.18562096,-0.16018122,-0.13025576,-0.09581375,-0.06438279,-0.038912356,-0.020969331,0.0014901161,0.029940963,0.05986643,0.08082032,0.08831704,0.09581387,0.10478532,0.11676788,0.12875032,0.13323605,0.13022506,0.12125361,0.09728861,0.05839157,0.0059759617,-0.053905785,-0.116767764,-0.18113524,-0.25748515,-0.34280664,-0.42514783,-0.5030033,-0.5748675,-0.6437207,-0.70360243,-0.7455104,-0.76646435,-0.7739611,-0.77995235,-0.7934096,-0.80689764,-0.8158691,-0.81288886,-0.80689764,-0.80539215,-0.80090636,-0.7964206,-0.7934096,-0.7934096,-0.7949151,-0.79193485,-0.78145784,-0.76947534,-0.7634841,-0.7634841,-0.7634841,-0.7574929,-0.7470159,-0.7380444,-0.7365389,-0.7335279,-0.72606194,-0.71856517,-0.71709037,-0.71856517,-0.72007066,-0.71109915,-0.70360243,-0.7006222,-0.70658267,-0.7125739,-0.71109915,-0.7051079,-0.70209694,-0.70658267,-0.7125739,-0.71109915,-0.7051079,-0.6961057,-0.6961057,-0.6976112,-0.6991167,-0.70209694,-0.70808816,-0.7125739,-0.70959365,-0.7006222,-0.68713415,-0.6826484,-0.68562865,-0.7006222,-0.70808816,-0.71109915,-0.71109915,-0.70959365,-0.70658267,-0.7006222,-0.70209694,-0.70658267,-0.7140794,-0.7140794,-0.7051079,-0.6931254,-0.69161993,-0.6991167,-0.70658267,-0.70658267,-0.6976112,-0.69161993,-0.6946309,-0.6961057,-0.6961057,-0.6946309,-0.6946309,-0.6946309,-0.68863964,-0.6841539,-0.6781627,-0.6811429,-0.69161993,-0.6931254,-0.68562865,-0.6721715,-0.6646747,-0.6691604,-0.67367697,-0.6751517,-0.6691604,-0.6661802,-0.6646747,-0.6646747,-0.6616944,-0.6572087,-0.6572087,-0.6541977,-0.6437207,-0.62126124,-0.5778477,-0.53593975,-0.5030033,-0.48054385,-0.47006685,-0.45359856,-0.4206621,-0.37276286,-0.32185262,-0.28593594,-0.2829557,-0.3053844,-0.3278439,-0.3308549,-0.3203779,-0.32185262,-0.37125736,-0.46708655,-0.5883247,-0.6991167,-0.7754666,-0.8158691,-0.8278516,-0.8173746,-0.79792607,-0.77844685,-0.7739611,-0.7769414,-0.77995235,-0.7769414,-0.76796985,-0.7619786,-0.7619786,-0.7589984,-0.75451267,-0.7499962,-0.7470159,-0.7470159,-0.7395192,-0.70959365,-0.6811429,-0.670666,-0.6526922,-0.57038176,-0.36978263,-0.04942006,0.33232975,0.6242416,0.7380136,0.72606194,0.6077733,0.39669728,0.1002996,-0.27696443,-0.6616944,-0.9206698,-0.9835318,-0.88475305,-0.7365389,-0.6362239,-0.6137952,-0.6422152,-0.6826484,-0.7051079,-0.6991167,-0.6841539,-0.67367697,-0.6691604,-0.6691604,-0.6631692,-0.6557032,-0.64971197,-0.6422152,-0.63173825,-0.61527,-0.6003072,-0.5928105,-0.594316,-0.5913357,-0.5808587,-0.5658653,-0.5539135,-0.549397,-0.5434365,-0.53145397,-0.5134803,-0.5014978,-0.4940318,-0.4820493,-0.46856135,-0.44911283,-0.43264455,-0.4206621,-0.4116906,-0.3997081,-0.38173437,-0.36827713,-0.35629463,-0.33982635,-0.3173669,-0.29042166,-0.26498193,-0.25299942,-0.2365312,-0.21708268,-0.1901375,-0.15867573,-0.13474154,-0.10478526,-0.07184875,-0.041923285,-0.017958343,-0.0014901161,0.011967182,0.02843535,0.050894856,0.06585765,0.06886864,0.06886864,0.06736314,0.06585765,0.05986643,0.04640913,0.023949623,-0.008986831,-0.053905785,-0.116767764,-0.19910902,-0.27994472,-0.35927486,-0.42963362,-0.5014978,-0.57038176,-0.6332437,-0.69161993,-0.7395192,-0.78293264,-0.8188801,-0.8383286,-0.8398341,-0.8353483,-0.8368231,-0.8443198,-0.8518166,-0.8503111,-0.8428143,-0.8368231,-0.8353483,-0.8323373,-0.8233658,-0.81138337,-0.80391735,-0.80241185,-0.80241185,-0.79193485,-0.7739611,-0.7605039,-0.7559874,-0.7499962,-0.7425301,-0.7380444,-0.7365389,-0.7425301,-0.7470159,-0.7395192,-0.7290422,-0.72157615,-0.72606194,-0.73205316,-0.72756743,-0.71856517,-0.7125739,-0.7155849,-0.72157615,-0.72455645,-0.72157615,-0.71856517,-0.72305095,-0.7290422,-0.7290422,-0.72756743,-0.72007066,-0.7155849,-0.71856517,-0.71856517,-0.72157615,-0.72606194,-0.72756743,-0.72606194,-0.72157615,-0.71856517,-0.72305095,-0.7350334,-0.7380444,-0.7350334,-0.72455645,-0.72007066,-0.72305095,-0.72606194,-0.72455645,-0.7140794,-0.71109915,-0.72007066,-0.73054767,-0.7380444,-0.7395192,-0.7380444,-0.7410246,-0.7440356,-0.7410246,-0.73205316,-0.72305095,-0.71856517,-0.72007066,-0.72007066,-0.72007066,-0.72305095,-0.72756743,-0.72606194,-0.71856517,-0.70808816,-0.7051079,-0.71109915,-0.71709037,-0.71709037,-0.7140794,-0.7140794,-0.72007066,-0.72157615,-0.7155849,-0.70360243,-0.7006222,-0.70808816,-0.7140794,-0.7140794,-0.70209694,-0.68863964,-0.6781627,-0.6631692,-0.6362239,-0.597327,-0.56288505,-0.54193103,-0.52546275,-0.5045088,-0.46558106,-0.41467083,-0.37276286,-0.34879786,-0.35030335,-0.36228585,-0.37574315,-0.38323987,-0.37875414,-0.38025957,-0.4086796,-0.47605807,-0.5778477,-0.69011444,-0.78443813,-0.8398341,-0.8622936,-0.8607881,-0.8428143,-0.8218604,-0.80391735,-0.79792607,-0.80391735,-0.80840313,-0.80689764,-0.80241185,-0.80391735,-0.81288886,-0.8218604,-0.8203549,-0.81288886,-0.80241185,-0.79792607,-0.78892386,-0.76646435,-0.7440356,-0.72606194,-0.6991167,-0.5928105,-0.36526614,-0.029940844,0.34879792,0.6047931,0.6751517,0.6242416,0.47753286,0.25597978,-0.02843541,-0.38025957,-0.72606194,-0.94162375,-0.97757125,-0.88023657,-0.7589984,-0.68863964,-0.68562865,-0.72606194,-0.76796985,-0.78293264,-0.77245563,-0.7485214,-0.73205316,-0.72455645,-0.72455645,-0.71709037,-0.70360243,-0.6931254,-0.68713415,-0.67963743,-0.6721715,-0.6646747,-0.6557032,-0.6557032,-0.65121746,-0.63923496,-0.62276673,-0.61228967,-0.60927874,-0.6003072,-0.58534443,-0.56288505,-0.5434365,-0.52994853,-0.5194715,-0.50598353,-0.4880405,-0.47304708,-0.46407557,-0.45061833,-0.4311391,-0.40720487,-0.3862201,-0.37574315,-0.36228585,-0.34732312,-0.3203779,-0.29343265,-0.2709732,-0.2470082,-0.22156847,-0.18712652,-0.15120971,-0.11827326,-0.091327965,-0.06886852,-0.050894856,-0.035932064,-0.019463778,-0.0014901161,0.02096939,0.041923404,0.049389362,0.049389362,0.050894856,0.055380583,0.06438291,0.06585765,0.050894856,0.022444129,-0.016483545,-0.06287736,-0.12125349,-0.1901375,-0.2634765,-0.3383209,-0.4116906,-0.4880405,-0.57038176,-0.64074045,-0.6991167,-0.7410246,-0.7754666,-0.80391735,-0.8233658,-0.8323373,-0.8323373,-0.8338428,-0.8368231,-0.8383286,-0.8323373,-0.8203549,-0.81138337,-0.80689764,-0.80391735,-0.80090636,-0.78892386,-0.77995235,-0.7754666,-0.77098083,-0.7634841,-0.7530072,-0.7440356,-0.7395192,-0.7365389,-0.7335279,-0.72455645,-0.71856517,-0.71856517,-0.71856517,-0.7140794,-0.70658267,-0.7006222,-0.7006222,-0.7006222,-0.6991167,-0.6931254,-0.68713415,-0.68713415,-0.68562865,-0.6826484,-0.6766572,-0.6766572,-0.6841539,-0.69011444,-0.6961057,-0.6946309,-0.6946309,-0.6991167,-0.70360243,-0.70209694,-0.6946309,-0.69161993,-0.6961057,-0.7006222,-0.7051079,-0.70360243,-0.70209694,-0.70658267,-0.70808816,-0.7006222,-0.69011444,-0.6841539,-0.6826484,-0.68713415,-0.69011444,-0.68863964,-0.68713415,-0.69161993,-0.69161993,-0.68713415,-0.6781627,-0.67367697,-0.6751517,-0.67963743,-0.6781627,-0.670666,-0.6631692,-0.6586834,-0.6557032,-0.65121746,-0.6437207,-0.6437207,-0.6482065,-0.6557032,-0.6601889,-0.6572087,-0.6526922,-0.65121746,-0.646701,-0.63923496,-0.6332437,-0.63026345,-0.6362239,-0.6452262,-0.6482065,-0.6422152,-0.63474923,-0.62875795,-0.62126124,-0.62126124,-0.62126124,-0.62725246,-0.63923496,-0.6422152,-0.63923496,-0.63026345,-0.62875795,-0.63173825,-0.6332437,-0.62725246,-0.6167755,-0.60780394,-0.60780394,-0.60479295,-0.6018127,-0.5958215,-0.594316,-0.6018127,-0.60629845,-0.60629845,-0.597327,-0.5928105,-0.59880173,-0.60328746,-0.60328746,-0.594316,-0.5898302,-0.594316,-0.6003072,-0.60629845,-0.6003072,-0.5913357,-0.58383894,-0.57038176,-0.549397,-0.5134803,-0.47006685,-0.42963362,-0.39672786,-0.37875414,-0.36228585,-0.3413319,-0.3039096,-0.2500192,-0.20808041,-0.19462323,-0.2125662,-0.2485137,-0.26796222,-0.26796222,-0.2634765,-0.28443038,-0.34732312,-0.44312155,-0.54792225,-0.6422152,-0.7051079,-0.7425301,-0.7530072,-0.7470159,-0.7335279,-0.72305095,-0.72007066,-0.71709037,-0.7125739,-0.70658267,-0.7051079,-0.70658267,-0.70209694,-0.68863964,-0.67367697,-0.6661802,-0.6676857,-0.67367697,-0.6661802,-0.6422152,-0.6167755,-0.5898302,-0.53744525,-0.40569937,-0.15867573,0.17363858,0.5329288,0.76796997,0.809878,0.715585,0.52546287,0.29042172,0.038912296,-0.2500192,-0.53145397,-0.72305095,-0.76947534,-0.6961057,-0.5898302,-0.52546275,-0.52994853,-0.5718565,-0.60780394,-0.61527,-0.59880173,-0.5793533,-0.56439054,-0.552408,-0.5434365,-0.53145397,-0.52395725,-0.520977,-0.5119748,-0.500023,-0.486535,-0.4775635,-0.47304708,-0.46708655,-0.45510405,-0.43863583,-0.42815882,-0.42514783,-0.4191566,-0.4086796,-0.39073658,-0.38025957,-0.37724864,-0.37125736,-0.35927486,-0.33534068,-0.3188724,-0.31137568,-0.3068899,-0.29791844,-0.27545887,-0.25450492,-0.23803669,-0.22605419,-0.2125662,-0.19311774,-0.17065823,-0.1527152,-0.13323599,-0.109301805,-0.08085102,-0.050894856,-0.025455117,0.0014901161,0.02843535,0.056886196,0.07784009,0.09280288,0.11077654,0.13772178,0.16617262,0.18562102,0.19609809,0.2035948,0.21407175,0.23352027,0.25149393,0.25447428,0.24998844,0.23352027,0.21256626,0.18264079,0.13922727,0.08982265,0.032921195,-0.02843541,-0.09430826,-0.16319221,-0.2245487,-0.27395344,-0.30990088,-0.34732312,-0.38323987,-0.4131961,-0.4311391,-0.42963362,-0.42514783,-0.4221676,-0.41768187,-0.41768187,-0.4101851,-0.40268838,-0.39672786,-0.39221138,-0.38173437,-0.36677164,-0.35780013,-0.35030335,-0.34581763,-0.33982635,-0.3308549,-0.32185262,-0.3173669,-0.31288117,-0.3068899,-0.2964129,-0.2964129,-0.30089867,-0.30240417,-0.30240417,-0.29343265,-0.28593594,-0.28593594,-0.28891617,-0.28443038,-0.2709732,-0.2634765,-0.26648742,-0.27395344,-0.27994472,-0.27395344,-0.26498193,-0.26498193,-0.26946765,-0.27395344,-0.27545887,-0.27395344,-0.28145015,-0.29042166,-0.29939318,-0.30089867,-0.29791844,-0.2964129,-0.29490745,-0.2964129,-0.29791844,-0.30240417,-0.31137568,-0.31586146,-0.31586146,-0.31137568,-0.31438667,-0.32335818,-0.3368461,-0.34280664,-0.34280664,-0.33982635,-0.33982635,-0.3413319,-0.34280664,-0.34280664,-0.34581763,-0.35180885,-0.35478914,-0.35331434,-0.34431213,-0.3368461,-0.33982635,-0.34732312,-0.35629463,-0.35927486,-0.35927486,-0.36078036,-0.36078036,-0.35927486,-0.35629463,-0.35478914,-0.36078036,-0.36827713,-0.37426835,-0.37426835,-0.37276286,-0.37276286,-0.37875414,-0.38323987,-0.38474536,-0.38323987,-0.3862201,-0.3862201,-0.38474536,-0.37875414,-0.37426835,-0.37426835,-0.37574315,-0.37875414,-0.38173437,-0.3877256,-0.3982026,-0.40419388,-0.3982026,-0.38323987,-0.37724864,-0.38173437,-0.39371687,-0.3997081,-0.39672786,-0.3982026,-0.40720487,-0.41617638,-0.4236731,-0.41617638,-0.40720487,-0.40419388,-0.40419388,-0.40569937,-0.3997081,-0.39371687,-0.39371687,-0.39371687,-0.4012136,-0.40419388,-0.4101851,-0.41467083,-0.4086796,-0.3892311,-0.34581763,-0.29490745,-0.251494,-0.22605419,-0.22006291,-0.21109152,-0.18712652,-0.1422075,-0.08982253,-0.05240029,-0.041923285,-0.053905785,-0.07636529,-0.08383125,-0.085336804,-0.09879404,-0.15120971,-0.2485137,-0.37276286,-0.49550653,-0.5778477,-0.62574697,-0.64074045,-0.63173825,-0.61228967,-0.5868499,-0.573362,-0.57038176,-0.57038176,-0.5748675,-0.573362,-0.5778477,-0.58383894,-0.58383894,-0.573362,-0.5553883,-0.5434365,-0.54042554,-0.54193103,-0.52994853,-0.5045088,-0.48355478,-0.45808434,-0.38323987,-0.19760346,0.11228204,0.50300336,0.85031116,1.0,0.97456026,0.82935715,0.60178196,0.33534062,0.02096939,-0.32185262,-0.59880173,-0.72157615,-0.6811429,-0.56137955,-0.45808434,-0.4221676,-0.44911283,-0.49550653,-0.52395725,-0.528443,-0.5074891,-0.4940318,-0.4895153,-0.4895153,-0.4820493,-0.46856135,-0.45808434,-0.45510405,-0.46109533,-0.46109533,-0.45359856,-0.44312155,-0.43264455,-0.42665333,-0.41768187,-0.4012136,-0.3877256,-0.37724864,-0.36526614,-0.35927486,-0.35030335,-0.3413319,-0.33534068,-0.3293494,-0.31586146,-0.29791844,-0.27994472,-0.26946765,-0.2604962,-0.251494,-0.2365312,-0.21557724,-0.19161224,-0.17514402,-0.15867573,-0.14371306,-0.13025576,-0.11378753,-0.091327965,-0.061371803,-0.025455117,0.0045012236,0.029940963,0.05387509,0.076334596,0.10180509,0.12423384,0.13922727,0.15867591,0.18411565,0.21106088,0.23054004,0.23204541,0.22752893,0.22605431,0.23204541,0.23653126,0.23054004,0.21407175,0.19010675,0.16018128,0.119748116,0.061371922,-0.008986831,-0.08383125,-0.15867573,-0.23355097,-0.3173669,-0.3997081,-0.47903836,-0.54792225,-0.60629845,-0.65121746,-0.6841539,-0.70360243,-0.70658267,-0.71109915,-0.71856517,-0.72606194,-0.72455645,-0.7140794,-0.7051079,-0.7006222,-0.7006222,-0.70209694,-0.6961057,-0.68562865,-0.6766572,-0.67367697,-0.6661802,-0.6526922,-0.63923496,-0.62875795,-0.62875795,-0.63173825,-0.63173825,-0.63026345,-0.63026345,-0.62725246,-0.6242722,-0.6167755,-0.60780394,-0.60780394,-0.60927874,-0.61078423,-0.6137952,-0.6167755,-0.62574697,-0.6377295,-0.6452262,-0.6422152,-0.6422152,-0.6482065,-0.6586834,-0.6691604,-0.6751517,-0.68713415,-0.70808816,-0.73205316,-0.7410246,-0.7395192,-0.7350334,-0.7410246,-0.7589984,-0.7769414,-0.77995235,-0.77844685,-0.77844685,-0.78293264,-0.7859436,-0.7934096,-0.80241185,-0.8173746,-0.8308626,-0.8338428,-0.8203549,-0.81439435,-0.81439435,-0.8218604,-0.8293571,-0.8278516,-0.8248713,-0.8203549,-0.8218604,-0.8203549,-0.8158691,-0.81288886,-0.8173746,-0.8233658,-0.8218604,-0.8188801,-0.8158691,-0.8188801,-0.82634616,-0.8308626,-0.8248713,-0.8173746,-0.81288886,-0.80840313,-0.80539215,-0.7949151,-0.78443813,-0.7769414,-0.76646435,-0.75451267,-0.7425301,-0.7380444,-0.7440356,-0.7499962,-0.7485214,-0.7350334,-0.72157615,-0.7140794,-0.7155849,-0.71856517,-0.71856517,-0.72007066,-0.71856517,-0.7140794,-0.70360243,-0.69011444,-0.6841539,-0.68562865,-0.68713415,-0.67963743,-0.6586834,-0.6332437,-0.60479295,-0.5748675,-0.54641676,-0.5194715,-0.50598353,-0.49550653,-0.47605807,-0.43264455,-0.36827713,-0.3173669,-0.29791844,-0.3039096,-0.3188724,-0.3173669,-0.31137568,-0.33383512,-0.40268838,-0.51646054,-0.6422152,-0.7530072,-0.8173746,-0.8368231,-0.82634616,-0.80539215,-0.79193485,-0.7874491,-0.79042935,-0.7859436,-0.7739611,-0.76646435,-0.7649896,-0.76646435,-0.7649896,-0.7589984,-0.7530072,-0.7499962,-0.7455104,-0.7365389,-0.72305095,-0.70209694,-0.6826484,-0.67367697,-0.6541977,-0.58534443,-0.4236731,-0.15867573,0.1811353,0.47903836,0.6167755,0.6137645,0.50149786,0.3038789,0.04640913,-0.27395344,-0.62725246,-0.8967048,-0.98503727,-0.9012213,-0.7440356,-0.62725246,-0.5958215,-0.63026345,-0.6751517,-0.6946309,-0.6946309,-0.67963743,-0.670666,-0.6616944,-0.646701,-0.63923496,-0.6362239,-0.6362239,-0.62875795,-0.61527,-0.6018127,-0.5928105,-0.5883247,-0.5808587,-0.5658653,-0.5539135,-0.549397,-0.54792225,-0.53892004,-0.52245176,-0.5045088,-0.49701202,-0.4940318,-0.4895153,-0.47455257,-0.45958984,-0.44312155,-0.42815882,-0.41467083,-0.3982026,-0.38323987,-0.36978263,-0.35478914,-0.33534068,-0.3068899,-0.28443038,-0.26946765,-0.25450492,-0.2365312,-0.21407175,-0.18863195,-0.16767794,-0.15120971,-0.13025576,-0.10180503,-0.07184875,-0.047914565,-0.026960611,-0.0045010448,0.02096939,0.04041791,0.05240035,0.055380583,0.05839157,0.070343375,0.07784009,0.08082032,0.07485986,0.06585765,0.05240035,0.02843535,-0.010492384,-0.06886852,-0.13474154,-0.20208925,-0.27843916,-0.36078036,-0.43863583,-0.5074891,-0.56439054,-0.62276673,-0.6841539,-0.7395192,-0.7754666,-0.78892386,-0.79792607,-0.80840313,-0.8248713,-0.8353483,-0.8323373,-0.8248713,-0.8218604,-0.8248713,-0.8248713,-0.81288886,-0.80241185,-0.79792607,-0.79940087,-0.80391735,-0.7964206,-0.7859436,-0.7754666,-0.77098083,-0.77245563,-0.76796985,-0.7619786,-0.7559874,-0.7515017,-0.7440356,-0.7335279,-0.72305095,-0.71709037,-0.72007066,-0.72157615,-0.71709037,-0.7125739,-0.70360243,-0.70209694,-0.6991167,-0.6976112,-0.70209694,-0.7051079,-0.71109915,-0.70959365,-0.70360243,-0.70209694,-0.70360243,-0.70658267,-0.7051079,-0.6991167,-0.6991167,-0.70658267,-0.71709037,-0.72157615,-0.71709037,-0.71109915,-0.70959365,-0.7140794,-0.71709037,-0.7125739,-0.7051079,-0.70209694,-0.70209694,-0.7051079,-0.70209694,-0.6991167,-0.70209694,-0.70658267,-0.70808816,-0.7006222,-0.6946309,-0.6931254,-0.6946309,-0.6961057,-0.69161993,-0.68562865,-0.6826484,-0.68562865,-0.6841539,-0.67367697,-0.6691604,-0.6601889,-0.6616944,-0.6646747,-0.6616944,-0.6646747,-0.6676857,-0.6721715,-0.6691604,-0.6616944,-0.6586834,-0.6586834,-0.6676857,-0.6721715,-0.6646747,-0.6557032,-0.64971197,-0.64971197,-0.6482065,-0.6452262,-0.6422152,-0.6422152,-0.6437207,-0.6362239,-0.62276673,-0.6003072,-0.5718565,-0.53892004,-0.5045088,-0.47605807,-0.46708655,-0.46558106,-0.44760734,-0.40268838,-0.33534068,-0.27994472,-0.2709732,-0.29343265,-0.32185262,-0.3278439,-0.31438667,-0.31438667,-0.35478914,-0.43713033,-0.54641676,-0.6616944,-0.7515017,-0.81138337,-0.8353483,-0.8278516,-0.8098779,-0.78892386,-0.77995235,-0.77245563,-0.7649896,-0.7589984,-0.7574929,-0.7589984,-0.7559874,-0.7485214,-0.7365389,-0.73054767,-0.7290422,-0.7290422,-0.72305095,-0.70658267,-0.6841539,-0.6646747,-0.63026345,-0.53744525,-0.3413319,-0.041923285,0.32486367,0.6377295,0.7619786,0.7305478,0.5883248,0.3667717,0.113756895,-0.18562096,-0.51796603,-0.78293264,-0.8892388,-0.8353483,-0.70959365,-0.60927874,-0.5913357,-0.63173825,-0.6781627,-0.6961057,-0.69011444,-0.6751517,-0.6601889,-0.6452262,-0.63026345,-0.61228967,-0.60479295,-0.60479295,-0.6003072,-0.58534443,-0.5718565,-0.55689377,-0.552408,-0.54641676,-0.53443426,-0.520977,-0.5134803,-0.5134803,-0.5105001,-0.5030033,-0.4925263,-0.48054385,-0.47157234,-0.46109533,-0.44462705,-0.42514783,-0.40720487,-0.3997081,-0.39221138,-0.37875414,-0.36379135,-0.34879786,-0.3308549,-0.3068899,-0.27994472,-0.25450492,-0.23355097,-0.2230739,-0.20958596,-0.18562096,-0.15720099,-0.12573928,-0.10029954,-0.07636529,-0.04942006,-0.025455117,-0.0014901161,0.017958403,0.038912296,0.0628773,0.079345584,0.08831704,0.08831704,0.08982265,0.1002996,0.11077654,0.113756895,0.11077654,0.10180509,0.08681166,0.05839157,0.013472676,-0.04342878,-0.103310466,-0.16168678,-0.2245487,-0.29939318,-0.3862201,-0.46558106,-0.5329288,-0.594316,-0.6437207,-0.69161993,-0.7365389,-0.7634841,-0.78145784,-0.7964206,-0.80391735,-0.80391735,-0.79792607,-0.79193485,-0.79042935,-0.7949151,-0.79792607,-0.79042935,-0.78145784,-0.77245563,-0.7634841,-0.75451267,-0.7440356,-0.7365389,-0.7350334,-0.7380444,-0.7335279,-0.72157615,-0.70808816,-0.7006222,-0.7006222,-0.70209694,-0.7006222,-0.6976112,-0.6946309,-0.6961057,-0.6931254,-0.68562865,-0.6766572,-0.67367697,-0.6751517,-0.6811429,-0.6826484,-0.67963743,-0.6781627,-0.6751517,-0.6661802,-0.6586834,-0.6557032,-0.6586834,-0.6676857,-0.6691604,-0.6616944,-0.65121746,-0.65121746,-0.6586834,-0.6646747,-0.6661802,-0.6661802,-0.6661802,-0.6676857,-0.6646747,-0.6557032,-0.6452262,-0.6452262,-0.6526922,-0.6631692,-0.6601889,-0.6482065,-0.64074045,-0.63923496,-0.63923496,-0.6422152,-0.6422152,-0.6437207,-0.646701,-0.646701,-0.64074045,-0.6362239,-0.6332437,-0.6377295,-0.6377295,-0.6362239,-0.63474923,-0.63474923,-0.63923496,-0.6362239,-0.63173825,-0.6242722,-0.62276673,-0.62875795,-0.6362239,-0.6362239,-0.6362239,-0.63173825,-0.62725246,-0.61975574,-0.61078423,-0.60629845,-0.60479295,-0.60479295,-0.6003072,-0.5868499,-0.5793533,-0.5793533,-0.5868499,-0.5928105,-0.5883247,-0.5793533,-0.5718565,-0.573362,-0.5793533,-0.5808587,-0.5763423,-0.56887627,-0.5509025,-0.51796603,-0.46856135,-0.4206621,-0.38323987,-0.36978263,-0.36526614,-0.34431213,-0.29939318,-0.2500192,-0.22006291,-0.21557724,-0.23204541,-0.2470082,-0.2485137,-0.24252248,-0.2470082,-0.28744137,-0.37125736,-0.4895153,-0.6167755,-0.7125739,-0.7634841,-0.7769414,-0.77245563,-0.7634841,-0.75451267,-0.7425301,-0.73205316,-0.72455645,-0.72455645,-0.72305095,-0.7155849,-0.70808816,-0.70209694,-0.6961057,-0.6931254,-0.68562865,-0.6826484,-0.6781627,-0.6631692,-0.64074045,-0.60629845,-0.549397,-0.4191566,-0.1901375,0.13173056,0.49102092,0.72007084,0.74400496,0.6287581,0.42364252,0.19462323,-0.041923285,-0.3203779,-0.60328746,-0.79193485,-0.8173746,-0.72455645,-0.61078423,-0.552408,-0.56288505,-0.60328746,-0.63173825,-0.64074045,-0.6377295,-0.62126124,-0.60328746,-0.5928105,-0.5868499,-0.5883247,-0.58534443,-0.56887627,-0.54792225,-0.53443426,-0.528443,-0.5269683,-0.51796603,-0.5074891,-0.49701202,-0.4910208,-0.486535,-0.47605807,-0.46558106,-0.45660955,-0.45061833,-0.44760734,-0.43863583,-0.42514783,-0.4116906,-0.39522237,-0.37875414,-0.36078036,-0.34581763,-0.3383209,-0.3308549,-0.31137568,-0.2829557,-0.25597972,-0.2365312,-0.23053998,-0.2245487,-0.20958596,-0.18562096,-0.16018122,-0.13173056,-0.103310466,-0.07037407,-0.04041779,-0.016483545,0.0029956102,0.022444129,0.050894856,0.07784009,0.10327983,0.11827326,0.13173056,0.14371312,0.15268457,0.1571703,0.15867591,0.16617262,0.17216372,0.17065835,0.15268457,0.113756895,0.0628773,0.010461688,-0.053905785,-0.12724477,-0.20958596,-0.29343265,-0.36677164,-0.43415004,-0.49550653,-0.55839926,-0.61078423,-0.64971197,-0.6811429,-0.70360243,-0.72157615,-0.73205316,-0.73205316,-0.7365389,-0.7440356,-0.7499962,-0.7455104,-0.73054767,-0.7140794,-0.70808816,-0.7125739,-0.7125739,-0.6976112,-0.6826484,-0.6691604,-0.6691604,-0.6661802,-0.6586834,-0.6452262,-0.63923496,-0.646701,-0.6557032,-0.6572087,-0.6526922,-0.6482065,-0.6526922,-0.6572087,-0.6572087,-0.6541977,-0.64971197,-0.6557032,-0.6631692,-0.6661802,-0.6661802,-0.6631692,-0.6631692,-0.6631692,-0.6616944,-0.6661802,-0.6766572,-0.6931254,-0.70808816,-0.7155849,-0.71709037,-0.71709037,-0.72305095,-0.72606194,-0.73054767,-0.7425301,-0.7589984,-0.7754666,-0.78145784,-0.77844685,-0.76646435,-0.7574929,-0.7619786,-0.76646435,-0.7649896,-0.7649896,-0.76796985,-0.77245563,-0.7754666,-0.77245563,-0.7649896,-0.7605039,-0.7619786,-0.7605039,-0.7530072,-0.7425301,-0.7395192,-0.7440356,-0.7425301,-0.7350334,-0.72455645,-0.72007066,-0.72305095,-0.7290422,-0.72305095,-0.7155849,-0.70360243,-0.6961057,-0.68562865,-0.67367697,-0.6676857,-0.670666,-0.6826484,-0.68562865,-0.6781627,-0.6661802,-0.6586834,-0.6616944,-0.6616944,-0.6482065,-0.63026345,-0.61078423,-0.60629845,-0.60328746,-0.597327,-0.597327,-0.60780394,-0.62574697,-0.64074045,-0.6452262,-0.6332437,-0.61975574,-0.6167755,-0.60780394,-0.594316,-0.56439054,-0.5194715,-0.46856135,-0.4206621,-0.3862201,-0.37276286,-0.37426835,-0.36677164,-0.3308549,-0.26796222,-0.21407175,-0.19161224,-0.20208925,-0.22006291,-0.22006291,-0.20208925,-0.20061445,-0.251494,-0.35331434,-0.4880405,-0.6137952,-0.70209694,-0.7455104,-0.7470159,-0.72455645,-0.6991167,-0.6826484,-0.67963743,-0.6826484,-0.6841539,-0.6826484,-0.6781627,-0.67963743,-0.6751517,-0.6676857,-0.6616944,-0.6572087,-0.6572087,-0.6526922,-0.6377295,-0.60479295,-0.5778477,-0.55839926,-0.52245176,-0.40268838,-0.15720099,0.18712652,0.56137955,0.8009064,0.84880555,0.76796997,0.5898303,0.34581757,0.05240035,-0.30240417,-0.6437207,-0.8488056,-0.8607881,-0.7335279,-0.5778477,-0.4910208,-0.500023,-0.56288505,-0.62126124,-0.6437207,-0.63173825,-0.6137952,-0.6003072,-0.5883247,-0.5793533,-0.5673708,-0.55987406,-0.55987406,-0.549397,-0.53145397,-0.5089946,-0.49550653,-0.49550653,-0.4910208,-0.48054385,-0.46407557,-0.44911283,-0.44462705,-0.44161606,-0.43264455,-0.4206621,-0.4086796,-0.3997081,-0.3892311,-0.37125736,-0.35180885,-0.3368461,-0.3323297,-0.32185262,-0.3053844,-0.2829557,-0.2634765,-0.2500192,-0.23803669,-0.21407175,-0.18264073,-0.1527152,-0.13624698,-0.12724477,-0.11378753,-0.09430826,-0.065888286,-0.03743756,-0.0060065985,0.022444129,0.047914624,0.07184887,0.08982265,0.10927117,0.13474154,0.15867591,0.17065835,0.17216372,0.17363858,0.17664957,0.1811353,0.18562102,0.18264079,0.1796298,0.16915286,0.14970434,0.10629094,0.041923404,-0.03442657,-0.11378753,-0.19161224,-0.27395344,-0.35629463,-0.4311391,-0.500023,-0.5553883,-0.6003072,-0.6437207,-0.6766572,-0.6991167,-0.7125739,-0.72455645,-0.7380444,-0.7425301,-0.7395192,-0.7290422,-0.7140794,-0.70808816,-0.7006222,-0.6931254,-0.6841539,-0.6751517,-0.6691604,-0.6631692,-0.6526922,-0.6422152,-0.63474923,-0.63474923,-0.6377295,-0.6362239,-0.63026345,-0.6242722,-0.62276673,-0.61828095,-0.61527,-0.61228967,-0.60780394,-0.60780394,-0.6137952,-0.61228967,-0.60629845,-0.60479295,-0.60629845,-0.60927874,-0.61078423,-0.60927874,-0.60780394,-0.61078423,-0.61527,-0.61527,-0.61228967,-0.61228967,-0.6167755,-0.62276673,-0.62276673,-0.62276673,-0.6242722,-0.63026345,-0.63026345,-0.62574697,-0.61828095,-0.61828095,-0.62725246,-0.63474923,-0.63923496,-0.6377295,-0.6362239,-0.6377295,-0.63474923,-0.62574697,-0.61228967,-0.60927874,-0.6167755,-0.62276673,-0.62574697,-0.62126124,-0.61975574,-0.6242722,-0.62725246,-0.6242722,-0.6167755,-0.6137952,-0.62276673,-0.6332437,-0.6362239,-0.62875795,-0.62126124,-0.61975574,-0.61975574,-0.61828095,-0.61828095,-0.62126124,-0.62725246,-0.63026345,-0.62725246,-0.61828095,-0.61527,-0.6167755,-0.6137952,-0.6018127,-0.58233356,-0.56288505,-0.54641676,-0.52245176,-0.4910208,-0.46558106,-0.44760734,-0.43264455,-0.40268838,-0.34431213,-0.27244788,-0.2230739,-0.21708268,-0.23954219,-0.2589907,-0.25450492,-0.2470082,-0.25748515,-0.3203779,-0.42963362,-0.56137955,-0.6766572,-0.7485214,-0.77098083,-0.7574929,-0.73054767,-0.7125739,-0.70959365,-0.70658267,-0.7006222,-0.69161993,-0.6841539,-0.68713415,-0.69011444,-0.68562865,-0.6751517,-0.6646747,-0.6631692,-0.6616944,-0.6572087,-0.6422152,-0.61527,-0.5898302,-0.5718565,-0.54193103,-0.44911283,-0.25597972,0.03442669,0.37875426,0.62126136,0.69162,0.63471854,0.48653507,0.27395344,0.016452909,-0.3053844,-0.6377295,-0.8547968,-0.88174206,-0.7649896,-0.61078423,-0.51796603,-0.5149858,-0.55987406,-0.6018127,-0.61078423,-0.6003072,-0.5883247,-0.5763423,-0.5673708,-0.55839926,-0.549397,-0.54491127,-0.53443426,-0.51646054,-0.500023,-0.49550653,-0.500023,-0.5030033,-0.4985175,-0.48054385,-0.46407557,-0.45808434,-0.45359856,-0.44760734,-0.43562484,-0.4236731,-0.41617638,-0.4086796,-0.39522237,-0.37724864,-0.36379135,-0.35629463,-0.34732312,-0.33534068,-0.31586146,-0.2964129,-0.28443038,-0.2709732,-0.25597972,-0.2350257,-0.21407175,-0.19910902,-0.178155,-0.15419,-0.122759044,-0.09430826,-0.07485986,-0.053905785,-0.02843541,0.0029956102,0.032921195,0.056886196,0.07784009,0.09581387,0.11228204,0.12125361,0.122758985,0.13173056,0.14819884,0.16764724,0.17664957,0.17216372,0.1571703,0.14220762,0.122758985,0.091328144,0.04339814,-0.017958343,-0.085336804,-0.15867573,-0.23803669,-0.3248636,-0.40419388,-0.47455257,-0.53145397,-0.58233356,-0.63173825,-0.670666,-0.6961057,-0.7125739,-0.72305095,-0.7350334,-0.7395192,-0.7350334,-0.72455645,-0.71856517,-0.71856517,-0.72157615,-0.72007066,-0.70808816,-0.6991167,-0.6946309,-0.69161993,-0.68562865,-0.6751517,-0.6676857,-0.6646747,-0.6616944,-0.6572087,-0.646701,-0.63923496,-0.63474923,-0.6362239,-0.63173825,-0.62276673,-0.61828095,-0.6167755,-0.6167755,-0.61228967,-0.60927874,-0.60927874,-0.6167755,-0.62126124,-0.62276673,-0.61527,-0.61228967,-0.6137952,-0.61228967,-0.60629845,-0.6003072,-0.59880173,-0.60927874,-0.62276673,-0.62574697,-0.61975574,-0.61228967,-0.61228967,-0.61527,-0.62126124,-0.62276673,-0.6242722,-0.62875795,-0.62875795,-0.62725246,-0.62126124,-0.62276673,-0.63026345,-0.6362239,-0.6362239,-0.62574697,-0.61975574,-0.62126124,-0.62126124,-0.62126124,-0.6167755,-0.6167755,-0.62126124,-0.62574697,-0.6242722,-0.61828095,-0.61228967,-0.6167755,-0.62126124,-0.6242722,-0.62126124,-0.6167755,-0.61828095,-0.61828095,-0.61975574,-0.61828095,-0.61527,-0.61078423,-0.597327,-0.5673708,-0.52546275,-0.486535,-0.46558106,-0.45808434,-0.44760734,-0.4206621,-0.37276286,-0.32185262,-0.28443038,-0.27244788,-0.27696443,-0.29042166,-0.2964129,-0.29490745,-0.3053844,-0.35030335,-0.44161606,-0.56887627,-0.68562865,-0.76947534,-0.80840313,-0.8173746,-0.8098779,-0.7949151,-0.77844685,-0.76796985,-0.7634841,-0.76646435,-0.76646435,-0.7589984,-0.7470159,-0.7410246,-0.7455104,-0.7499962,-0.7485214,-0.7395192,-0.73054767,-0.72455645,-0.7125739,-0.69161993,-0.6721715,-0.646701,-0.5778477,-0.40268838,-0.109301805,0.27094257,0.62276673,0.7919042,0.7964206,0.6931255,0.5059836,0.25597978,-0.06736308,-0.43713033,-0.7470159,-0.89074427,-0.8607881,-0.7425301,-0.6362239,-0.5928105,-0.60629845,-0.6437207,-0.6721715,-0.67963743,-0.6691604,-0.64971197,-0.63923496,-0.63923496,-0.63923496,-0.6332437,-0.62276673,-0.61527,-0.61078423,-0.6018127,-0.5883247,-0.5673708,-0.5539135,-0.549397,-0.549397,-0.54193103,-0.52546275,-0.5119748,-0.5045088,-0.49550653,-0.48502952,-0.46856135,-0.45359856,-0.44462705,-0.43863583,-0.42665333,-0.40419388,-0.3877256,-0.37426835,-0.36078036,-0.34431213,-0.3203779,-0.29791844,-0.27994472,-0.26197094,-0.23954219,-0.20958596,-0.18712652,-0.17065823,-0.15419,-0.13173056,-0.10029954,-0.06886852,-0.04041779,-0.014978111,0.011967182,0.041923404,0.06585765,0.082325935,0.09728861,0.11228204,0.13323605,0.14669335,0.15419006,0.15419006,0.15120983,0.14970434,0.13922727,0.119748116,0.09280288,0.056886196,0.008986831,-0.055380583,-0.13922727,-0.22755975,-0.3188724,-0.4012136,-0.4820493,-0.55689377,-0.62276673,-0.67367697,-0.70959365,-0.7410246,-0.76646435,-0.78145784,-0.7874491,-0.7859436,-0.7874491,-0.7934096,-0.7964206,-0.7949151,-0.78145784,-0.77098083,-0.76796985,-0.76796985,-0.7649896,-0.7574929,-0.7515017,-0.7499962,-0.7440356,-0.7365389,-0.72606194,-0.71856517,-0.72157615,-0.72305095,-0.7155849,-0.7006222,-0.69011444,-0.68562865,-0.68562865,-0.6841539,-0.6751517,-0.6691604,-0.670666,-0.67367697,-0.6751517,-0.670666,-0.6646747,-0.6601889,-0.6601889,-0.6631692,-0.6616944,-0.6676857,-0.6721715,-0.67367697,-0.670666,-0.6646747,-0.6646747,-0.67367697,-0.6826484,-0.6826484,-0.670666,-0.6661802,-0.6676857,-0.670666,-0.670666,-0.6586834,-0.6541977,-0.6586834,-0.6691604,-0.67963743,-0.67963743,-0.6766572,-0.6766572,-0.67367697,-0.670666,-0.6586834,-0.64971197,-0.6452262,-0.6452262,-0.6437207,-0.6422152,-0.63923496,-0.64074045,-0.6437207,-0.6437207,-0.6377295,-0.63173825,-0.63474923,-0.63923496,-0.646701,-0.6482065,-0.646701,-0.6452262,-0.6422152,-0.63474923,-0.62276673,-0.61828095,-0.6167755,-0.61527,-0.61527,-0.60927874,-0.61078423,-0.61228967,-0.61228967,-0.597327,-0.56439054,-0.52245176,-0.47903836,-0.44161606,-0.41768187,-0.39221138,-0.36379135,-0.3248636,-0.27696443,-0.24402791,-0.23204541,-0.2470082,-0.26946765,-0.28145015,-0.27395344,-0.26796222,-0.29490745,-0.36978263,-0.4775635,-0.5928105,-0.68562865,-0.7455104,-0.7769414,-0.77995235,-0.7634841,-0.7410246,-0.72606194,-0.72606194,-0.7290422,-0.7290422,-0.71856517,-0.71109915,-0.70658267,-0.7006222,-0.6946309,-0.6811429,-0.6721715,-0.67367697,-0.6751517,-0.6661802,-0.63923496,-0.6137952,-0.58233356,-0.51646054,-0.36379135,-0.09879404,0.2485137,0.59880173,0.7949152,0.80539215,0.6946002,0.4925264,0.25447428,-0.008986831,-0.31586146,-0.59880173,-0.7739611,-0.7934096,-0.70209694,-0.5913357,-0.53443426,-0.5434365,-0.5883247,-0.62276673,-0.62875795,-0.6137952,-0.5958215,-0.5883247,-0.5868499,-0.58233356,-0.57038176,-0.55689377,-0.54641676,-0.53892004,-0.5269683,-0.5089946,-0.4940318,-0.486535,-0.48054385,-0.47455257,-0.46407557,-0.45660955,-0.45359856,-0.45209306,-0.44911283,-0.43415004,-0.4206621,-0.4086796,-0.3982026,-0.3892311,-0.37574315,-0.36379135,-0.34879786,-0.33534068,-0.3173669,-0.29490745,-0.27545887,-0.26197094,-0.24550271,-0.22605419,-0.20359474,-0.178155,-0.15867573,-0.1422075,-0.122759044,-0.09581375,-0.06886852,-0.04640907,-0.020969331,0.0045012236,0.03740692,0.06438291,0.08681166,0.10629094,0.12573934,0.15120983,0.16617262,0.16915286,0.16764724,0.16617262,0.17514396,0.1811353,0.17664957,0.16168678,0.13474154,0.0987941,0.049389362,-0.014978111,-0.091327965,-0.16915274,-0.24402791,-0.32335818,-0.40569937,-0.48355478,-0.5509025,-0.5958215,-0.63474923,-0.67367697,-0.70808816,-0.7365389,-0.7515017,-0.7589984,-0.7605039,-0.7619786,-0.7574929,-0.7440356,-0.7365389,-0.7335279,-0.7365389,-0.7380444,-0.73054767,-0.72007066,-0.7155849,-0.70959365,-0.7006222,-0.69011444,-0.6826484,-0.6811429,-0.67963743,-0.6781627,-0.6691604,-0.6631692,-0.6631692,-0.6661802,-0.6661802,-0.6586834,-0.64971197,-0.6437207,-0.64074045,-0.64074045,-0.63923496,-0.64074045,-0.6482065,-0.6541977,-0.6541977,-0.646701,-0.6437207,-0.6452262,-0.6541977,-0.6601889,-0.6586834,-0.6572087,-0.6586834,-0.6586834,-0.6572087,-0.6557032,-0.6572087,-0.6646747,-0.6721715,-0.6721715,-0.6661802,-0.6616944,-0.6631692,-0.6661802,-0.6661802,-0.6586834,-0.64971197,-0.65121746,-0.65121746,-0.6526922,-0.64971197,-0.6482065,-0.6482065,-0.64971197,-0.6452262,-0.63923496,-0.6362239,-0.63923496,-0.6437207,-0.6422152,-0.6362239,-0.6362239,-0.6452262,-0.6541977,-0.6557032,-0.6437207,-0.6332437,-0.63173825,-0.6377295,-0.6452262,-0.6482065,-0.6482065,-0.6482065,-0.6452262,-0.64074045,-0.6362239,-0.6362239,-0.646701,-0.6557032,-0.6557032,-0.6482065,-0.64074045,-0.6377295,-0.64074045,-0.6452262,-0.6437207,-0.6422152,-0.6452262,-0.6452262,-0.6422152,-0.63474923,-0.63173825,-0.63173825,-0.6332437,-0.6362239,-0.62875795,-0.62574697,-0.62574697,-0.62574697,-0.6242722,-0.6137952,-0.6003072,-0.5808587,-0.5509025,-0.5134803,-0.47304708,-0.45209306,-0.44760734,-0.44014132,-0.4101851,-0.34879786,-0.28744137,-0.25299942,-0.2500192,-0.26796222,-0.28145015,-0.28443038,-0.2829557,-0.3039096,-0.35331434,-0.43713033,-0.5509025,-0.6676857,-0.7574929,-0.80391735,-0.80391735,-0.78293264,-0.7619786,-0.7485214,-0.7470159,-0.7440356,-0.7440356,-0.7470159,-0.7485214,-0.7485214,-0.7425301,-0.7395192,-0.7365389,-0.7350334,-0.73205316,-0.72455645,-0.72455645,-0.72157615,-0.71109915,-0.6961057,-0.6721715,-0.61527,-0.47006685,-0.20660573,0.16168678,0.5524081,0.7859436,0.8308319,0.7425302,0.55538833,0.30538452,-0.010492384,-0.3997081,-0.7589984,-0.95658654,-0.9491205,-0.81439435,-0.6781627,-0.61975574,-0.63173825,-0.6721715,-0.7006222,-0.70658267,-0.6991167,-0.68562865,-0.6691604,-0.6586834,-0.6541977,-0.65121746,-0.6437207,-0.63474923,-0.6242722,-0.61975574,-0.61527,-0.60780394,-0.5913357,-0.5793533,-0.5748675,-0.5658653,-0.5539135,-0.53443426,-0.5194715,-0.5149858,-0.5134803,-0.50598353,-0.4895153,-0.47304708,-0.46407557,-0.45660955,-0.44462705,-0.42665333,-0.4086796,-0.39672786,-0.3877256,-0.37125736,-0.34280664,-0.3173669,-0.2964129,-0.2829557,-0.26498193,-0.23803669,-0.2125662,-0.18863195,-0.16466707,-0.14371306,-0.11378753,-0.082325816,-0.04942006,-0.019463778,0.010461688,0.04041791,0.05986643,0.070343375,0.082325935,0.09280288,0.10629094,0.11676788,0.12423384,0.12875032,0.13474154,0.13922727,0.12573934,0.09581387,0.05240035,0.0014901161,-0.050894856,-0.11077654,-0.18712652,-0.27395344,-0.36078036,-0.43863583,-0.5089946,-0.57038176,-0.62725246,-0.6781627,-0.71856517,-0.7515017,-0.7769414,-0.7964206,-0.80840313,-0.80539215,-0.79792607,-0.79792607,-0.79792607,-0.7949151,-0.7859436,-0.7754666,-0.77245563,-0.7754666,-0.7754666,-0.7619786,-0.7425301,-0.72007066,-0.70808816,-0.7006222,-0.69161993,-0.68863964,-0.68713415,-0.68863964,-0.6931254,-0.68562865,-0.6766572,-0.6721715,-0.6721715,-0.6721715,-0.67367697,-0.6766572,-0.6766572,-0.67963743,-0.6766572,-0.6751517,-0.67367697,-0.6811429,-0.68713415,-0.69011444,-0.6826484,-0.6766572,-0.6721715,-0.67367697,-0.67367697,-0.6721715,-0.67367697,-0.6811429,-0.68713415,-0.68713415,-0.67963743,-0.67367697,-0.6721715,-0.6766572,-0.6781627,-0.6691604,-0.6631692,-0.6631692,-0.670666,-0.6826484,-0.68863964,-0.69161993,-0.6961057,-0.6976112,-0.69161993,-0.6826484,-0.6781627,-0.6781627,-0.6811429,-0.6811429,-0.6721715,-0.6616944,-0.6601889,-0.6646747,-0.670666,-0.670666,-0.6661802,-0.6601889,-0.6557032,-0.64971197,-0.6422152,-0.6377295,-0.63923496,-0.64074045,-0.646701,-0.6452262,-0.6452262,-0.6452262,-0.6422152,-0.6377295,-0.63173825,-0.6332437,-0.6377295,-0.646701,-0.6482065,-0.6377295,-0.62725246,-0.62126124,-0.61828095,-0.61828095,-0.61228967,-0.60927874,-0.6167755,-0.62574697,-0.63173825,-0.62725246,-0.61975574,-0.61078423,-0.6018127,-0.5808587,-0.54042554,-0.4985175,-0.46708655,-0.46109533,-0.45808434,-0.43562484,-0.3877256,-0.3278439,-0.28593594,-0.27244788,-0.28145015,-0.29791844,-0.3053844,-0.30240417,-0.30089867,-0.33383512,-0.40569937,-0.5134803,-0.63173825,-0.72606194,-0.7739611,-0.78892386,-0.78293264,-0.7739611,-0.7649896,-0.7559874,-0.7499962,-0.7440356,-0.7440356,-0.7410246,-0.7380444,-0.7350334,-0.7335279,-0.7365389,-0.7350334,-0.72606194,-0.71856517,-0.71709037,-0.71709037,-0.70808816,-0.6841539,-0.6601889,-0.6437207,-0.6018127,-0.47605807,-0.23954219,0.08831704,0.4056995,0.56288505,0.57483685,0.4895153,0.3263384,0.10478532,-0.18414623,-0.5269683,-0.81439435,-0.94011825,-0.89523005,-0.7589984,-0.63173825,-0.5778477,-0.594316,-0.64074045,-0.6781627,-0.68863964,-0.6721715,-0.6526922,-0.63923496,-0.63474923,-0.62574697,-0.61228967,-0.6018127,-0.5958215,-0.597327,-0.5928105,-0.5778477,-0.56288505,-0.5539135,-0.5509025,-0.54641676,-0.53443426,-0.520977,-0.5119748,-0.5105001,-0.50598353,-0.4895153,-0.47157234,-0.45660955,-0.44610184,-0.43562484,-0.4191566,-0.40419388,-0.39522237,-0.38474536,-0.36827713,-0.34431213,-0.32185262,-0.3083954,-0.30240417,-0.29042166,-0.26498193,-0.2365312,-0.20958596,-0.18863195,-0.16767794,-0.14073277,-0.11378753,-0.08684224,-0.065888286,-0.04342878,-0.010492384,0.017958403,0.04041791,0.05387509,0.05986643,0.070343375,0.08082032,0.08831704,0.09430838,0.10180509,0.11228204,0.113756895,0.1002996,0.07335436,0.04041791,0.0059759617,-0.038912356,-0.09879404,-0.17664945,-0.25748515,-0.3308549,-0.40419388,-0.47605807,-0.5509025,-0.61828095,-0.670666,-0.70808816,-0.7350334,-0.7589984,-0.7754666,-0.7874491,-0.79940087,-0.81138337,-0.8203549,-0.8203549,-0.81138337,-0.79792607,-0.7859436,-0.78293264,-0.7754666,-0.7634841,-0.75451267,-0.7499962,-0.7470159,-0.7425301,-0.73205316,-0.72305095,-0.72157615,-0.72455645,-0.72455645,-0.72007066,-0.7125739,-0.70658267,-0.70209694,-0.6991167,-0.69161993,-0.68562865,-0.67963743,-0.6766572,-0.67367697,-0.6676857,-0.670666,-0.6781627,-0.6841539,-0.6826484,-0.67367697,-0.6661802,-0.6631692,-0.6691604,-0.67367697,-0.670666,-0.670666,-0.67367697,-0.6781627,-0.6826484,-0.6781627,-0.6721715,-0.6676857,-0.6751517,-0.6826484,-0.6826484,-0.6826484,-0.6826484,-0.6826484,-0.6781627,-0.6661802,-0.6586834,-0.6557032,-0.6631692,-0.6691604,-0.6676857,-0.6601889,-0.6586834,-0.6601889,-0.6616944,-0.6616944,-0.6601889,-0.6646747,-0.670666,-0.6721715,-0.6646747,-0.6586834,-0.6586834,-0.6661802,-0.670666,-0.6661802,-0.6572087,-0.65121746,-0.6557032,-0.6557032,-0.6557032,-0.6541977,-0.6572087,-0.6676857,-0.6751517,-0.67367697,-0.6661802,-0.6572087,-0.65121746,-0.6452262,-0.6362239,-0.63173825,-0.63474923,-0.6437207,-0.65121746,-0.65121746,-0.646701,-0.64074045,-0.64074045,-0.6362239,-0.6137952,-0.5778477,-0.53744525,-0.5030033,-0.4820493,-0.47304708,-0.45958984,-0.42815882,-0.38173437,-0.3293494,-0.2964129,-0.2964129,-0.32185262,-0.34879786,-0.35180885,-0.34431213,-0.34732312,-0.3862201,-0.46558106,-0.56439054,-0.6586834,-0.7395192,-0.7949151,-0.8278516,-0.8368231,-0.8278516,-0.8098779,-0.80090636,-0.80241185,-0.80539215,-0.80391735,-0.79940087,-0.7934096,-0.79193485,-0.7859436,-0.7739611,-0.7649896,-0.7589984,-0.7574929,-0.7574929,-0.7499962,-0.7335279,-0.71709037,-0.70360243,-0.6586834,-0.52994853,-0.2829557,0.061371922,0.44161618,0.7110685,0.7934097,0.733528,0.5658653,0.33534062,0.06438291,-0.26197094,-0.58383894,-0.8098779,-0.88023657,-0.81439435,-0.7125739,-0.6526922,-0.6557032,-0.6931254,-0.72305095,-0.72305095,-0.71109915,-0.6976112,-0.6931254,-0.68562865,-0.6766572,-0.6631692,-0.6526922,-0.646701,-0.6362239,-0.62126124,-0.60780394,-0.6003072,-0.6003072,-0.594316,-0.58233356,-0.5718565,-0.56288505,-0.56137955,-0.55839926,-0.54641676,-0.5329288,-0.51796603,-0.5074891,-0.49550653,-0.4775635,-0.46257007,-0.44760734,-0.43863583,-0.4311391,-0.4131961,-0.3982026,-0.38173437,-0.36978263,-0.35030335,-0.3278439,-0.3083954,-0.28744137,-0.2709732,-0.2470082,-0.21407175,-0.18264073,-0.16168678,-0.14819872,-0.12875026,-0.09879404,-0.06438279,-0.03295183,-0.007481277,0.008986831,0.025455117,0.04041791,0.05240035,0.06585765,0.07784009,0.091328144,0.0987941,0.09728861,0.08831704,0.07485986,0.056886196,0.025455117,-0.023949564,-0.088317096,-0.15867573,-0.22903442,-0.3039096,-0.38474536,-0.46856135,-0.5434365,-0.60328746,-0.6526922,-0.6991167,-0.7410246,-0.77245563,-0.78892386,-0.7934096,-0.79940087,-0.80391735,-0.80840313,-0.80689764,-0.80391735,-0.80391735,-0.80689764,-0.80241185,-0.79193485,-0.77995235,-0.77245563,-0.77098083,-0.77098083,-0.76646435,-0.7619786,-0.7605039,-0.7605039,-0.7574929,-0.7455104,-0.7290422,-0.72007066,-0.71709037,-0.7155849,-0.71109915,-0.70360243,-0.6961057,-0.6946309,-0.6946309,-0.69161993,-0.68562865,-0.6826484,-0.67963743,-0.6781627,-0.6781627,-0.6721715,-0.6721715,-0.6766572,-0.6781627,-0.6781627,-0.6781627,-0.6811429,-0.69161993,-0.6991167,-0.7006222,-0.6976112,-0.69161993,-0.6931254,-0.6961057,-0.6961057,-0.6976112,-0.6991167,-0.7051079,-0.70959365,-0.70959365,-0.7051079,-0.7006222,-0.7006222,-0.6946309,-0.68863964,-0.6841539,-0.6826484,-0.69011444,-0.6946309,-0.6931254,-0.69161993,-0.69161993,-0.6946309,-0.69161993,-0.6826484,-0.6751517,-0.6781627,-0.68863964,-0.6946309,-0.68863964,-0.6751517,-0.6601889,-0.6601889,-0.6661802,-0.6691604,-0.6721715,-0.6721715,-0.6721715,-0.6691604,-0.6661802,-0.6601889,-0.6616944,-0.670666,-0.6766572,-0.6766572,-0.6721715,-0.6601889,-0.6572087,-0.6541977,-0.65121746,-0.6526922,-0.6586834,-0.6646747,-0.6646747,-0.6541977,-0.63923496,-0.6332437,-0.6362239,-0.646701,-0.65121746,-0.64971197,-0.64971197,-0.6541977,-0.6541977,-0.65121746,-0.646701,-0.646701,-0.6541977,-0.6572087,-0.6541977,-0.6482065,-0.646701,-0.6526922,-0.6601889,-0.6586834,-0.6526922,-0.6452262,-0.64074045,-0.63474923,-0.6242722,-0.6018127,-0.5763423,-0.5434365,-0.5045088,-0.47157234,-0.44760734,-0.42963362,-0.40419388,-0.35478914,-0.29791844,-0.25748515,-0.25597972,-0.28593594,-0.3203779,-0.3323297,-0.3248636,-0.32185262,-0.35180885,-0.41617638,-0.5089946,-0.6137952,-0.70959365,-0.77995235,-0.8158691,-0.8188801,-0.80391735,-0.78892386,-0.7874491,-0.79042935,-0.7874491,-0.7769414,-0.76796985,-0.7649896,-0.7634841,-0.7619786,-0.7574929,-0.7515017,-0.7499962,-0.7470159,-0.7410246,-0.73054767,-0.7140794,-0.6931254,-0.6781627,-0.646701,-0.55987406,-0.36677164,-0.065888286,0.30689,0.6302328,0.7559875,0.7065828,0.54042554,0.31288123,0.07485986,-0.19462323,-0.4925263,-0.7425301,-0.8503111,-0.80539215,-0.69011444,-0.6018127,-0.5898302,-0.63173825,-0.6766572,-0.6946309,-0.68863964,-0.6781627,-0.6676857,-0.6557032,-0.6452262,-0.6377295,-0.63173825,-0.61975574,-0.60328746,-0.5883247,-0.5808587,-0.58233356,-0.5808587,-0.56887627,-0.552408,-0.54193103,-0.53892004,-0.53892004,-0.53593975,-0.5269683,-0.5134803,-0.5030033,-0.4895153,-0.47006685,-0.45808434,-0.45209306,-0.45209306,-0.44911283,-0.43713033,-0.41617638,-0.39221138,-0.37276286,-0.35629463,-0.3368461,-0.3188724,-0.29939318,-0.28744137,-0.26946765,-0.2500192,-0.22903442,-0.20808041,-0.18712652,-0.16018122,-0.12573928,-0.09430826,-0.06886852,-0.04942006,-0.029940844,-0.0029956102,0.029940963,0.05387509,0.06886864,0.08082032,0.08982265,0.1002996,0.10629094,0.10779631,0.10927117,0.113756895,0.11077654,0.09280288,0.05240035,-0.0029956102,-0.06287736,-0.12426448,-0.19161224,-0.2709732,-0.35478914,-0.43415004,-0.5089946,-0.5778477,-0.6422152,-0.6931254,-0.7290422,-0.7499962,-0.76947534,-0.78892386,-0.79940087,-0.80241185,-0.79792607,-0.7949151,-0.79940087,-0.80090636,-0.7934096,-0.78145784,-0.77098083,-0.76646435,-0.7649896,-0.7605039,-0.7559874,-0.7530072,-0.7499962,-0.7455104,-0.7350334,-0.72455645,-0.72455645,-0.7290422,-0.7290422,-0.72606194,-0.72007066,-0.7155849,-0.7155849,-0.7140794,-0.70360243,-0.6961057,-0.6931254,-0.6931254,-0.6946309,-0.69011444,-0.6826484,-0.6766572,-0.67963743,-0.6826484,-0.6811429,-0.6811429,-0.68713415,-0.6991167,-0.7125739,-0.71856517,-0.71709037,-0.7140794,-0.71709037,-0.72007066,-0.71709037,-0.70808816,-0.7006222,-0.7006222,-0.70360243,-0.71109915,-0.71109915,-0.71109915,-0.7125739,-0.7125739,-0.7125739,-0.71109915,-0.71109915,-0.71109915,-0.70658267,-0.6991167,-0.69011444,-0.68863964,-0.69011444,-0.6946309,-0.6961057,-0.6931254,-0.68863964,-0.68863964,-0.6841539,-0.6811429,-0.67963743,-0.67963743,-0.6811429,-0.67367697,-0.6631692,-0.6526922,-0.65121746,-0.6557032,-0.6601889,-0.6616944,-0.6572087,-0.6572087,-0.6586834,-0.6572087,-0.6482065,-0.6377295,-0.6332437,-0.63923496,-0.64971197,-0.64971197,-0.6437207,-0.6332437,-0.63026345,-0.63173825,-0.6377295,-0.63923496,-0.64074045,-0.6422152,-0.64074045,-0.64074045,-0.64074045,-0.6452262,-0.6482065,-0.6437207,-0.63923496,-0.63173825,-0.6362239,-0.6452262,-0.6526922,-0.6526922,-0.6482065,-0.6452262,-0.6452262,-0.6437207,-0.6377295,-0.63026345,-0.62574697,-0.63173825,-0.62875795,-0.62276673,-0.61975574,-0.62276673,-0.6332437,-0.63923496,-0.63026345,-0.60479295,-0.57038176,-0.5329288,-0.4895153,-0.45359856,-0.42815882,-0.41768187,-0.4012136,-0.35927486,-0.29939318,-0.2485137,-0.23204541,-0.2500192,-0.2829557,-0.29791844,-0.29192722,-0.2964129,-0.3308549,-0.40268838,-0.500023,-0.60780394,-0.70658267,-0.78443813,-0.8293571,-0.8413396,-0.82634616,-0.80689764,-0.7964206,-0.79193485,-0.79042935,-0.7859436,-0.77844685,-0.7754666,-0.77098083,-0.76646435,-0.7574929,-0.7470159,-0.7440356,-0.7395192,-0.7365389,-0.7290422,-0.70658267,-0.68562865,-0.6661802,-0.63026345,-0.528443,-0.31288117,0.01497817,0.4101851,0.715585,0.8233658,0.76947534,0.5943161,0.34581757,0.06438291,-0.27395344,-0.61975574,-0.8607881,-0.9221753,-0.8293571,-0.68713415,-0.6003072,-0.59880173,-0.6452262,-0.68863964,-0.70360243,-0.6946309,-0.6811429,-0.6691604,-0.6616944,-0.6572087,-0.65121746,-0.6482065,-0.63923496,-0.62276673,-0.60328746,-0.5883247,-0.58233356,-0.5763423,-0.56887627,-0.55987406,-0.549397,-0.54641676,-0.54042554,-0.53145397,-0.51796603,-0.5045088,-0.4925263,-0.48355478,-0.46856135,-0.45061833,-0.43562484,-0.4236731,-0.4116906,-0.3997081,-0.38474536,-0.36827713,-0.35331434,-0.33534068,-0.31288117,-0.28744137,-0.26796222,-0.2500192,-0.23204541,-0.2125662,-0.18863195,-0.16767794,-0.14819872,-0.12426448,-0.09581375,-0.065888286,-0.035932064,-0.011967063,0.0029956102,0.017958403,0.03740692,0.05387509,0.07184887,0.091328144,0.11077654,0.12573934,0.13323605,0.13173056,0.12724483,0.122758985,0.11228204,0.08982265,0.050894856,0.0045012236,-0.050894856,-0.11526233,-0.19462323,-0.28744137,-0.37574315,-0.45660955,-0.5269683,-0.5883247,-0.65121746,-0.70209694,-0.7365389,-0.7605039,-0.77844685,-0.7949151,-0.80539215,-0.80391735,-0.7949151,-0.78892386,-0.78892386,-0.78892386,-0.7859436,-0.78293264,-0.77995235,-0.78293264,-0.78293264,-0.77098083,-0.7530072,-0.7410246,-0.7335279,-0.73054767,-0.7290422,-0.72157615,-0.7125739,-0.71109915,-0.70658267,-0.70209694,-0.6976112,-0.6946309,-0.6946309,-0.6946309,-0.69011444,-0.6841539,-0.6826484,-0.6811429,-0.6781627,-0.6691604,-0.6646747,-0.6676857,-0.6781627,-0.68562865,-0.6826484,-0.6751517,-0.670666,-0.670666,-0.6781627,-0.6841539,-0.68562865,-0.69011444,-0.6946309,-0.6961057,-0.68863964,-0.6751517,-0.6691604,-0.6751517,-0.6841539,-0.6931254,-0.69161993,-0.69161993,-0.6961057,-0.6961057,-0.6931254,-0.6826484,-0.67367697,-0.67367697,-0.6751517,-0.67367697,-0.6661802,-0.6631692,-0.6661802,-0.6691604,-0.6721715,-0.670666,-0.6676857,-0.6721715,-0.6721715,-0.6676857,-0.6646747,-0.6661802,-0.6676857,-0.6646747,-0.6572087,-0.646701,-0.64074045,-0.6422152,-0.6437207,-0.64074045,-0.6362239,-0.63474923,-0.63474923,-0.6377295,-0.63923496,-0.64074045,-0.646701,-0.646701,-0.63923496,-0.63026345,-0.62276673,-0.6242722,-0.63026345,-0.63173825,-0.6242722,-0.61228967,-0.60780394,-0.60927874,-0.6137952,-0.61527,-0.61228967,-0.60927874,-0.6137952,-0.6167755,-0.61228967,-0.597327,-0.5718565,-0.53593975,-0.500023,-0.47455257,-0.46109533,-0.45660955,-0.44161606,-0.3997081,-0.34280664,-0.29042166,-0.26648742,-0.27545887,-0.29791844,-0.30990088,-0.3068899,-0.31586146,-0.36228585,-0.44462705,-0.5553883,-0.6646747,-0.7485214,-0.7964206,-0.81138337,-0.80539215,-0.78892386,-0.77995235,-0.77995235,-0.77995235,-0.7754666,-0.76646435,-0.7619786,-0.7649896,-0.76947534,-0.76796985,-0.7619786,-0.7559874,-0.7515017,-0.7485214,-0.7410246,-0.72455645,-0.70209694,-0.6826484,-0.6646747,-0.62126124,-0.49701202,-0.27696443,0.031446338,0.3518089,0.5299486,0.5568938,0.47455263,0.30538452,0.085336804,-0.18863195,-0.5194715,-0.8188801,-0.97305477,-0.94610953,-0.80689764,-0.6676857,-0.60479295,-0.62276673,-0.6721715,-0.70808816,-0.71109915,-0.6976112,-0.6811429,-0.6661802,-0.6557032,-0.6422152,-0.63474923,-0.62875795,-0.6242722,-0.61828095,-0.61078423,-0.6018127,-0.5958215,-0.5868499,-0.573362,-0.55987406,-0.549397,-0.549397,-0.54491127,-0.53744525,-0.52245176,-0.5105001,-0.500023,-0.4910208,-0.48054385,-0.46407557,-0.45061833,-0.43863583,-0.42815882,-0.41467083,-0.39672786,-0.38474536,-0.36978263,-0.35331434,-0.3308549,-0.29939318,-0.26946765,-0.25299942,-0.2365312,-0.22605419,-0.21109152,-0.19311774,-0.17216372,-0.14371306,-0.11077654,-0.073354304,-0.044903517,-0.023949564,-0.010492384,0.0045012236,0.023949623,0.04339814,0.056886196,0.06585765,0.07485986,0.08383131,0.08982265,0.085336804,0.07784009,0.0628773,0.041923404,0.01497817,-0.03442657,-0.097319305,-0.17065823,-0.2470082,-0.3248636,-0.40720487,-0.486535,-0.56288505,-0.63026345,-0.69011444,-0.7410246,-0.78145784,-0.81138337,-0.8278516,-0.8383286,-0.8518166,-0.8607881,-0.86527383,-0.8578078,-0.8503111,-0.8458253,-0.8443198,-0.8413396,-0.8293571,-0.8173746,-0.8098779,-0.80539215,-0.80241185,-0.7964206,-0.79193485,-0.78443813,-0.7769414,-0.7634841,-0.7515017,-0.7455104,-0.7499962,-0.75451267,-0.7485214,-0.7350334,-0.72455645,-0.71856517,-0.71709037,-0.71709037,-0.71109915,-0.7051079,-0.7051079,-0.70808816,-0.71109915,-0.7140794,-0.7155849,-0.71109915,-0.70658267,-0.6991167,-0.6946309,-0.6976112,-0.70360243,-0.70658267,-0.70209694,-0.6946309,-0.69161993,-0.6961057,-0.70360243,-0.70360243,-0.6946309,-0.68863964,-0.6931254,-0.70209694,-0.70959365,-0.70959365,-0.70658267,-0.7051079,-0.7051079,-0.6991167,-0.69161993,-0.6841539,-0.6826484,-0.68562865,-0.68713415,-0.6826484,-0.6781627,-0.6781627,-0.6811429,-0.6841539,-0.68713415,-0.69161993,-0.6946309,-0.69011444,-0.67963743,-0.6661802,-0.6601889,-0.6646747,-0.670666,-0.6691604,-0.6691604,-0.6676857,-0.670666,-0.67367697,-0.6691604,-0.6616944,-0.6572087,-0.6661802,-0.670666,-0.6691604,-0.6616944,-0.6586834,-0.6616944,-0.6691604,-0.670666,-0.6691604,-0.6691604,-0.67367697,-0.6751517,-0.6751517,-0.6646747,-0.6541977,-0.6422152,-0.61975574,-0.5778477,-0.5329288,-0.49701202,-0.4820493,-0.47455257,-0.45061833,-0.39672786,-0.3368461,-0.30089867,-0.30240417,-0.32185262,-0.33982635,-0.34431213,-0.3413319,-0.34581763,-0.38173437,-0.44760734,-0.54641676,-0.6646747,-0.76947534,-0.8383286,-0.8622936,-0.8563023,-0.8368231,-0.8188801,-0.80391735,-0.79042935,-0.79042935,-0.7964206,-0.79792607,-0.79193485,-0.7769414,-0.76646435,-0.76646435,-0.77245563,-0.7739611,-0.76796985,-0.7574929,-0.7455104,-0.7290422,-0.7125739,-0.6751517,-0.5793533,-0.37724864,-0.07037407,0.29939318,0.60629857,0.70360255,0.6332437,0.45958984,0.23054004,-1.5318394e-05,-0.27395344,-0.5778477,-0.8188801,-0.9131731,-0.8592826,-0.7455104,-0.6691604,-0.6616944,-0.6976112,-0.73205316,-0.7470159,-0.7395192,-0.72756743,-0.71109915,-0.6931254,-0.67963743,-0.6766572,-0.6751517,-0.6676857,-0.65121746,-0.6362239,-0.62574697,-0.61975574,-0.61228967,-0.6018127,-0.5913357,-0.5868499,-0.58383894,-0.5793533,-0.55987406,-0.5434365,-0.5269683,-0.5149858,-0.50598353,-0.4925263,-0.48054385,-0.47006685,-0.45958984,-0.44610184,-0.42815882,-0.4116906,-0.39522237,-0.37724864,-0.35478914,-0.3278439,-0.3083954,-0.29939318,-0.29343265,-0.2829557,-0.2604962,-0.23204541,-0.20510018,-0.17664945,-0.14819872,-0.11526233,-0.085336804,-0.06736308,-0.053905785,-0.03743756,-0.014978111,0.010461688,0.03442669,0.05387509,0.07335436,0.085336804,0.09280288,0.09430838,0.09430838,0.09581387,0.09581387,0.085336804,0.05387509,0.008986831,-0.04342878,-0.10180503,-0.16767794,-0.24550271,-0.32636917,-0.4086796,-0.4820493,-0.54792225,-0.6167755,-0.6781627,-0.72756743,-0.7589984,-0.78293264,-0.79940087,-0.81138337,-0.8218604,-0.8233658,-0.8248713,-0.8278516,-0.8308626,-0.8323373,-0.8248713,-0.8173746,-0.81138337,-0.80090636,-0.79042935,-0.7769414,-0.77098083,-0.77245563,-0.7754666,-0.7769414,-0.76796985,-0.7589984,-0.7530072,-0.7485214,-0.7455104,-0.7365389,-0.72756743,-0.72455645,-0.72305095,-0.72305095,-0.72007066,-0.71856517,-0.7155849,-0.70808816,-0.6976112,-0.68863964,-0.68562865,-0.69161993,-0.7006222,-0.7006222,-0.6961057,-0.6931254,-0.6946309,-0.6931254,-0.69161993,-0.6811429,-0.6766572,-0.67963743,-0.6811429,-0.6826484,-0.67963743,-0.67963743,-0.69011444,-0.7006222,-0.70360243,-0.6961057,-0.68713415,-0.6826484,-0.6841539,-0.68562865,-0.6811429,-0.6781627,-0.6766572,-0.6751517,-0.67367697,-0.6721715,-0.67367697,-0.6811429,-0.68562865,-0.68562865,-0.67963743,-0.6766572,-0.67963743,-0.6826484,-0.6766572,-0.6601889,-0.6482065,-0.6437207,-0.646701,-0.65121746,-0.65121746,-0.6526922,-0.6572087,-0.6601889,-0.6601889,-0.6541977,-0.6526922,-0.6541977,-0.6541977,-0.6482065,-0.6377295,-0.63173825,-0.62875795,-0.63173825,-0.6332437,-0.62875795,-0.62875795,-0.62875795,-0.63026345,-0.62574697,-0.6167755,-0.6137952,-0.61527,-0.61828095,-0.62276673,-0.62126124,-0.62276673,-0.62725246,-0.62574697,-0.61828095,-0.5958215,-0.573362,-0.53744525,-0.49701202,-0.46257007,-0.43562484,-0.4221676,-0.4086796,-0.36978263,-0.3053844,-0.24550271,-0.22156847,-0.2365312,-0.27395344,-0.30240417,-0.30089867,-0.29192722,-0.30240417,-0.34732312,-0.42963362,-0.53145397,-0.6422152,-0.7365389,-0.79940087,-0.82634616,-0.8218604,-0.80241185,-0.78293264,-0.77098083,-0.76646435,-0.7605039,-0.7559874,-0.75451267,-0.7530072,-0.7499962,-0.7455104,-0.7380444,-0.7335279,-0.7290422,-0.72157615,-0.70360243,-0.6811429,-0.6572087,-0.62574697,-0.55839926,-0.3982026,-0.13025576,0.21557724,0.55538833,0.72606194,0.70959365,0.5673709,0.3443122,0.10327983,-0.15569544,-0.45209306,-0.72305095,-0.87126505,-0.8622936,-0.7470159,-0.62574697,-0.5778477,-0.6018127,-0.6526922,-0.68562865,-0.6811429,-0.6676857,-0.6557032,-0.64971197,-0.6482065,-0.63923496,-0.62875795,-0.62126124,-0.61228967,-0.6018127,-0.58383894,-0.573362,-0.56887627,-0.5673708,-0.56439054,-0.5509025,-0.53443426,-0.52395725,-0.51646054,-0.5089946,-0.4985175,-0.486535,-0.47455257,-0.46407557,-0.45359856,-0.43562484,-0.4221676,-0.4131961,-0.40419388,-0.39371687,-0.37724864,-0.35927486,-0.33982635,-0.32335818,-0.30240417,-0.27994472,-0.2604962,-0.24402791,-0.2245487,-0.19910902,-0.16168678,-0.12724477,-0.10180503,-0.07636529,-0.05240029,-0.020969331,0.011967182,0.035932064,0.055380583,0.07485986,0.09581387,0.11676788,0.13173056,0.13772178,0.14220762,0.14669335,0.15569556,0.16168678,0.16168678,0.15569556,0.14220762,0.113756895,0.06585765,0.0014901161,-0.07037407,-0.1422075,-0.22156847,-0.30240417,-0.3862201,-0.46407557,-0.528443,-0.58233356,-0.6332437,-0.6781627,-0.7155849,-0.7395192,-0.7559874,-0.77245563,-0.77995235,-0.78145784,-0.7769414,-0.77245563,-0.7739611,-0.7769414,-0.77098083,-0.7559874,-0.7440356,-0.7380444,-0.7380444,-0.7365389,-0.72756743,-0.71709037,-0.71109915,-0.70808816,-0.70209694,-0.68713415,-0.6751517,-0.67367697,-0.6781627,-0.6826484,-0.6811429,-0.6766572,-0.670666,-0.6691604,-0.6646747,-0.6572087,-0.6526922,-0.65121746,-0.6526922,-0.6572087,-0.64971197,-0.6437207,-0.6422152,-0.6422152,-0.6452262,-0.6452262,-0.6482065,-0.6541977,-0.6586834,-0.6616944,-0.6572087,-0.6526922,-0.6526922,-0.6557032,-0.6541977,-0.65121746,-0.64971197,-0.6557032,-0.6646747,-0.6691604,-0.6631692,-0.6557032,-0.64971197,-0.6526922,-0.6586834,-0.6586834,-0.6586834,-0.6616944,-0.6616944,-0.6631692,-0.6616944,-0.6557032,-0.6526922,-0.64971197,-0.6437207,-0.63474923,-0.63173825,-0.6332437,-0.63923496,-0.6437207,-0.6422152,-0.6422152,-0.6422152,-0.646701,-0.646701,-0.64074045,-0.6377295,-0.6362239,-0.63474923,-0.63173825,-0.62126124,-0.61527,-0.60780394,-0.60629845,-0.60927874,-0.60927874,-0.61228967,-0.6167755,-0.61527,-0.60927874,-0.6003072,-0.6003072,-0.60328746,-0.61078423,-0.61078423,-0.60780394,-0.60328746,-0.59880173,-0.5928105,-0.5763423,-0.5434365,-0.5045088,-0.47157234,-0.45061833,-0.43264455,-0.4086796,-0.36677164,-0.3083954,-0.25450492,-0.22903442,-0.22903442,-0.25450492,-0.27994472,-0.29042166,-0.28593594,-0.28443038,-0.3188724,-0.39522237,-0.5030033,-0.61527,-0.7051079,-0.7619786,-0.7874491,-0.78892386,-0.77098083,-0.7470159,-0.72756743,-0.72007066,-0.7290422,-0.7380444,-0.7380444,-0.7335279,-0.72157615,-0.70658267,-0.6976112,-0.69161993,-0.69011444,-0.68562865,-0.6766572,-0.6526922,-0.62725246,-0.61078423,-0.5778477,-0.46558106,-0.2365312,0.10927117,0.49400115,0.7499962,0.8158692,0.74701583,0.58233356,0.3413012,0.038912296,-0.3308549,-0.68863964,-0.9026961,-0.9176895,-0.7934096,-0.6452262,-0.55839926,-0.54792225,-0.5883247,-0.63173825,-0.6541977,-0.6526922,-0.63474923,-0.61975574,-0.61078423,-0.60479295,-0.59880173,-0.5883247,-0.5763423,-0.5658653,-0.5539135,-0.54193103,-0.5269683,-0.520977,-0.51796603,-0.5119748,-0.49550653,-0.47903836,-0.46856135,-0.46407557,-0.46856135,-0.46708655,-0.45808434,-0.44911283,-0.44014132,-0.42665333,-0.4101851,-0.3892311,-0.37426835,-0.36228585,-0.35629463,-0.34581763,-0.3323297,-0.3188724,-0.30240417,-0.2829557,-0.25748515,-0.22903442,-0.20359474,-0.18562096,-0.16767794,-0.14073277,-0.11077654,-0.08383125,-0.059897065,-0.04342878,-0.022474885,0.007481456,0.03442669,0.055380583,0.07335436,0.08982265,0.10478532,0.11676788,0.12573934,0.13323605,0.14220762,0.15569556,0.15569556,0.14070201,0.113756895,0.07784009,0.038912296,-0.008986831,-0.073354304,-0.15120971,-0.2350257,-0.31586146,-0.39371687,-0.47006685,-0.54042554,-0.6003072,-0.64971197,-0.68863964,-0.72455645,-0.7530072,-0.76796985,-0.7739611,-0.7769414,-0.77995235,-0.7874491,-0.7874491,-0.78293264,-0.7754666,-0.76646435,-0.7619786,-0.7589984,-0.7499962,-0.7485214,-0.7455104,-0.7395192,-0.73054767,-0.71709037,-0.71109915,-0.7125739,-0.7155849,-0.70808816,-0.6946309,-0.67963743,-0.6721715,-0.6751517,-0.6766572,-0.6721715,-0.670666,-0.670666,-0.6766572,-0.6826484,-0.6781627,-0.6721715,-0.670666,-0.67367697,-0.6766572,-0.6721715,-0.6691604,-0.6691604,-0.6751517,-0.6811429,-0.6826484,-0.6841539,-0.68713415,-0.69011444,-0.69161993,-0.68713415,-0.6826484,-0.68562865,-0.6931254,-0.7006222,-0.6976112,-0.6946309,-0.69011444,-0.68562865,-0.6841539,-0.6781627,-0.6781627,-0.68562865,-0.6946309,-0.7006222,-0.6976112,-0.69011444,-0.6841539,-0.6841539,-0.68713415,-0.68863964,-0.68562865,-0.6826484,-0.6841539,-0.68562865,-0.68562865,-0.6826484,-0.6826484,-0.6826484,-0.6826484,-0.67963743,-0.67963743,-0.6811429,-0.6841539,-0.68562865,-0.67963743,-0.6721715,-0.6661802,-0.6676857,-0.67367697,-0.6751517,-0.67963743,-0.68562865,-0.68863964,-0.68863964,-0.6826484,-0.6751517,-0.670666,-0.6676857,-0.6616944,-0.6452262,-0.62276673,-0.594316,-0.5553883,-0.5149858,-0.47903836,-0.45808434,-0.44312155,-0.4191566,-0.37276286,-0.31438667,-0.28443038,-0.28891617,-0.3188724,-0.34280664,-0.3368461,-0.32636917,-0.3308549,-0.37276286,-0.45359856,-0.5509025,-0.6557032,-0.7485214,-0.81439435,-0.8413396,-0.8368231,-0.8173746,-0.80090636,-0.7934096,-0.7934096,-0.7934096,-0.7934096,-0.7964206,-0.79940087,-0.79792607,-0.79042935,-0.77995235,-0.7754666,-0.7769414,-0.7769414,-0.76796985,-0.7455104,-0.72305095,-0.70658267,-0.6676857,-0.54792225,-0.31137568,0.025455117,0.39669728,0.6541978,0.715585,0.6377295,0.46257007,0.22752893,-0.041923285,-0.36677164,-0.6961057,-0.9176895,-0.96257776,-0.86527383,-0.72455645,-0.64074045,-0.63923496,-0.6826484,-0.72606194,-0.7380444,-0.72756743,-0.7155849,-0.70808816,-0.7006222,-0.68713415,-0.6751517,-0.6646747,-0.6541977,-0.6437207,-0.62725246,-0.6167755,-0.61228967,-0.60927874,-0.60328746,-0.5898302,-0.5763423,-0.5673708,-0.56288505,-0.5539135,-0.53593975,-0.51796603,-0.50598353,-0.5014978,-0.500023,-0.4880405,-0.47304708,-0.45660955,-0.44161606,-0.4221676,-0.40419388,-0.3892311,-0.37875414,-0.37426835,-0.36228585,-0.3383209,-0.30990088,-0.28443038,-0.26498193,-0.24252248,-0.21557724,-0.18712652,-0.15867573,-0.13624698,-0.11228204,-0.08383125,-0.050894856,-0.019463778,0.0014901161,0.02096939,0.03740692,0.05240035,0.0628773,0.07485986,0.08681166,0.10327983,0.113756895,0.11827326,0.10927117,0.0987941,0.08681166,0.061371922,0.019463897,-0.041923285,-0.11228204,-0.18414623,-0.2634765,-0.34879786,-0.44014132,-0.52546275,-0.5928105,-0.6482065,-0.6976112,-0.7440356,-0.78293264,-0.80689764,-0.8203549,-0.82634616,-0.8323373,-0.8338428,-0.8308626,-0.8308626,-0.8338428,-0.8398341,-0.8413396,-0.8323373,-0.8188801,-0.80689764,-0.79940087,-0.79042935,-0.77844685,-0.76947534,-0.7634841,-0.7649896,-0.7649896,-0.7559874,-0.7499962,-0.7455104,-0.7440356,-0.7440356,-0.7335279,-0.72305095,-0.71856517,-0.71856517,-0.71709037,-0.70808816,-0.7006222,-0.6991167,-0.70658267,-0.7155849,-0.7155849,-0.7140794,-0.7140794,-0.71856517,-0.71856517,-0.7125739,-0.70808816,-0.70808816,-0.71109915,-0.71109915,-0.70360243,-0.6961057,-0.6931254,-0.6976112,-0.7006222,-0.6991167,-0.6976112,-0.7006222,-0.70658267,-0.70808816,-0.70360243,-0.6961057,-0.6946309,-0.70209694,-0.70808816,-0.70808816,-0.70658267,-0.70209694,-0.7006222,-0.6961057,-0.68863964,-0.6841539,-0.6826484,-0.6841539,-0.6841539,-0.6781627,-0.6721715,-0.6721715,-0.6751517,-0.6781627,-0.670666,-0.6646747,-0.6616944,-0.6661802,-0.670666,-0.6691604,-0.6646747,-0.6601889,-0.6541977,-0.6526922,-0.65121746,-0.6526922,-0.6572087,-0.6631692,-0.6631692,-0.6572087,-0.6526922,-0.64971197,-0.65121746,-0.64971197,-0.6437207,-0.6377295,-0.64074045,-0.65121746,-0.6586834,-0.6586834,-0.6526922,-0.6452262,-0.6437207,-0.64074045,-0.63173825,-0.6167755,-0.5928105,-0.55987406,-0.5149858,-0.46856135,-0.44161606,-0.43264455,-0.4236731,-0.3892311,-0.3278439,-0.26946765,-0.2470082,-0.26796222,-0.3039096,-0.3248636,-0.32335818,-0.3188724,-0.3368461,-0.39371687,-0.48355478,-0.5883247,-0.6946309,-0.7769414,-0.8248713,-0.8353483,-0.8248713,-0.80689764,-0.79792607,-0.7934096,-0.79042935,-0.7859436,-0.78293264,-0.77995235,-0.7769414,-0.76947534,-0.7649896,-0.7649896,-0.76796985,-0.77098083,-0.7634841,-0.7470159,-0.72305095,-0.7051079,-0.6751517,-0.597327,-0.4221676,-0.13922727,0.21705198,0.5598742,0.72154546,0.6946002,0.5434059,0.31586146,0.07335436,-0.1901375,-0.4940318,-0.76947534,-0.9236501,-0.9146786,-0.7964206,-0.6781627,-0.62875795,-0.64971197,-0.6961057,-0.72157615,-0.72305095,-0.70959365,-0.6976112,-0.68713415,-0.6751517,-0.6631692,-0.6526922,-0.64971197,-0.6437207,-0.63173825,-0.61828095,-0.60927874,-0.60629845,-0.6003072,-0.5868499,-0.5718565,-0.55839926,-0.552408,-0.54792225,-0.53593975,-0.52245176,-0.5089946,-0.4985175,-0.48502952,-0.47455257,-0.46708655,-0.46257007,-0.45958984,-0.44462705,-0.4191566,-0.39221138,-0.37125736,-0.35927486,-0.34732312,-0.3278439,-0.3053844,-0.2829557,-0.26197094,-0.23803669,-0.20808041,-0.18113524,-0.15720099,-0.13474154,-0.11526233,-0.082325816,-0.053905785,-0.02843541,-0.010492384,0.0059759617,0.031446338,0.056886196,0.079345584,0.091328144,0.1002996,0.10927117,0.119748116,0.12724483,0.12573934,0.119748116,0.11228204,0.09430838,0.05839157,0.0059759617,-0.059897065,-0.13025576,-0.20510018,-0.28443038,-0.36677164,-0.44610184,-0.5194715,-0.5898302,-0.6557032,-0.71109915,-0.7485214,-0.77245563,-0.7859436,-0.80090636,-0.8203549,-0.8323373,-0.8353483,-0.8338428,-0.8278516,-0.8233658,-0.8158691,-0.80689764,-0.79940087,-0.7949151,-0.79193485,-0.78443813,-0.76796985,-0.7530072,-0.7470159,-0.7470159,-0.7470159,-0.7365389,-0.71856517,-0.70658267,-0.70360243,-0.70808816,-0.7140794,-0.7155849,-0.70959365,-0.7051079,-0.6991167,-0.68863964,-0.67963743,-0.6811429,-0.68713415,-0.69161993,-0.6931254,-0.69161993,-0.69011444,-0.6961057,-0.6991167,-0.6931254,-0.68562865,-0.6811429,-0.6841539,-0.68863964,-0.68863964,-0.68562865,-0.6826484,-0.68562865,-0.68713415,-0.6826484,-0.6781627,-0.6781627,-0.6841539,-0.68863964,-0.68713415,-0.6811429,-0.6781627,-0.6811429,-0.6841539,-0.6826484,-0.67963743,-0.6751517,-0.6826484,-0.68863964,-0.69011444,-0.68713415,-0.6826484,-0.6826484,-0.6841539,-0.67963743,-0.67367697,-0.6676857,-0.6646747,-0.6601889,-0.6526922,-0.6437207,-0.6422152,-0.65121746,-0.6601889,-0.6601889,-0.6541977,-0.646701,-0.6482065,-0.6526922,-0.6572087,-0.6526922,-0.6482065,-0.6452262,-0.6422152,-0.64074045,-0.6422152,-0.646701,-0.65121746,-0.65121746,-0.646701,-0.6437207,-0.6437207,-0.64971197,-0.6526922,-0.6482065,-0.6422152,-0.64074045,-0.6437207,-0.6437207,-0.63923496,-0.63474923,-0.63474923,-0.64074045,-0.6437207,-0.63923496,-0.63173825,-0.6242722,-0.61828095,-0.60927874,-0.5868499,-0.5509025,-0.50598353,-0.46558106,-0.43264455,-0.41467083,-0.3892311,-0.35180885,-0.29791844,-0.2500192,-0.23053998,-0.24402791,-0.27395344,-0.29939318,-0.2964129,-0.28744137,-0.30089867,-0.35629463,-0.45061833,-0.56288505,-0.6661802,-0.7410246,-0.78293264,-0.80090636,-0.79042935,-0.76646435,-0.7470159,-0.7335279,-0.73205316,-0.7365389,-0.7395192,-0.73205316,-0.72606194,-0.72157615,-0.7155849,-0.70959365,-0.70360243,-0.7006222,-0.6991167,-0.68713415,-0.6572087,-0.63026345,-0.6018127,-0.54792225,-0.40268838,-0.13323599,0.23502564,0.6107843,0.8173747,0.8368231,0.7320225,0.5299486,0.26796222,-0.050894856,-0.4206621,-0.7455104,-0.9116983,-0.8892388,-0.7559874,-0.62126124,-0.5539135,-0.56137955,-0.61078423,-0.6541977,-0.67367697,-0.6646747,-0.6437207,-0.62276673,-0.6137952,-0.60927874,-0.60629845,-0.5958215,-0.5898302,-0.5808587,-0.57038176,-0.55689377,-0.54042554,-0.5269683,-0.5269683,-0.528443,-0.5269683,-0.52245176,-0.5119748,-0.500023,-0.48054385,-0.46257007,-0.44161606,-0.4311391,-0.43264455,-0.4311391,-0.42514783,-0.4101851,-0.39221138,-0.38173437,-0.36827713,-0.35180885,-0.3323297,-0.31288117,-0.30089867,-0.28593594,-0.26498193,-0.24402791,-0.22156847,-0.20808041,-0.1901375,-0.16168678,-0.12573928,-0.08982253,-0.059897065,-0.03295183,-0.007481277,0.019463897,0.04041791,0.055380583,0.06438291,0.076334596,0.08831704,0.09728861,0.10180509,0.10927117,0.119748116,0.12724483,0.12423384,0.10927117,0.08681166,0.056886196,0.017958403,-0.03295183,-0.09879404,-0.16915274,-0.23954219,-0.31438667,-0.39371687,-0.48502952,-0.5658653,-0.62875795,-0.6766572,-0.7155849,-0.7499962,-0.77844685,-0.79042935,-0.79193485,-0.79193485,-0.80090636,-0.80840313,-0.8098779,-0.80391735,-0.79042935,-0.7874491,-0.78145784,-0.77995235,-0.7739611,-0.76796985,-0.7634841,-0.7574929,-0.7440356,-0.7365389,-0.73054767,-0.73054767,-0.72305095,-0.71856517,-0.7140794,-0.71709037,-0.72157615,-0.71709037,-0.7051079,-0.69011444,-0.68562865,-0.6931254,-0.6976112,-0.6961057,-0.68562865,-0.6781627,-0.6841539,-0.6961057,-0.70360243,-0.70360243,-0.6991167,-0.6946309,-0.6946309,-0.6946309,-0.69161993,-0.6931254,-0.6961057,-0.6976112,-0.6961057,-0.69011444,-0.68863964,-0.69161993,-0.6976112,-0.70360243,-0.7051079,-0.7006222,-0.6961057,-0.6961057,-0.6946309,-0.6976112,-0.7051079,-0.70808816,-0.70658267,-0.7006222,-0.6931254,-0.69161993,-0.6946309,-0.69161993,-0.6841539,-0.67367697,-0.6691604,-0.6751517,-0.6826484,-0.68863964,-0.68713415,-0.6841539,-0.6841539,-0.6811429,-0.6721715,-0.6691604,-0.6721715,-0.6811429,-0.68562865,-0.6781627,-0.6676857,-0.6586834,-0.6586834,-0.6631692,-0.6661802,-0.6631692,-0.6616944,-0.6616944,-0.6572087,-0.64971197,-0.64074045,-0.63923496,-0.646701,-0.65121746,-0.6482065,-0.64074045,-0.63474923,-0.64074045,-0.6452262,-0.646701,-0.6422152,-0.6362239,-0.62725246,-0.6137952,-0.5883247,-0.549397,-0.5134803,-0.4895153,-0.4775635,-0.46708655,-0.44312155,-0.3982026,-0.35180885,-0.31438667,-0.3039096,-0.30990088,-0.3248636,-0.3308549,-0.32335818,-0.3188724,-0.35030335,-0.4236731,-0.53744525,-0.6572087,-0.7470159,-0.7949151,-0.80840313,-0.80241185,-0.7874491,-0.7649896,-0.75451267,-0.7530072,-0.7619786,-0.76947534,-0.76646435,-0.7530072,-0.7410246,-0.7395192,-0.7395192,-0.7410246,-0.7365389,-0.73054767,-0.72305095,-0.70658267,-0.6781627,-0.6557032,-0.6362239,-0.5898302,-0.44760734,-0.1901375,0.1571703,0.4685614,0.6107843,0.6092788,0.5074892,0.3278439,0.08831704,-0.22903442,-0.5868499,-0.8667793,-0.96408325,-0.89074427,-0.7440356,-0.6242722,-0.58383894,-0.60780394,-0.6557032,-0.68562865,-0.68562865,-0.6586834,-0.62875795,-0.60780394,-0.60780394,-0.60629845,-0.59880173,-0.5868499,-0.5763423,-0.5763423,-0.5763423,-0.5718565,-0.56288505,-0.5539135,-0.549397,-0.54641676,-0.53443426,-0.520977,-0.50598353,-0.49701202,-0.4925263,-0.4880405,-0.48054385,-0.47455257,-0.46558106,-0.44911283,-0.42963362,-0.40569937,-0.39073658,-0.38025957,-0.36827713,-0.35331434,-0.33383512,-0.31586146,-0.29939318,-0.2829557,-0.26498193,-0.24402791,-0.22903442,-0.2125662,-0.18863195,-0.16319221,-0.13323599,-0.11077654,-0.09581375,-0.073354304,-0.044903517,-0.008986831,0.022444129,0.03740692,0.047914624,0.05387509,0.061371922,0.070343375,0.07485986,0.079345584,0.085336804,0.09430838,0.09280288,0.07784009,0.050894856,0.011967182,-0.029940844,-0.08383125,-0.15569544,-0.2365312,-0.32185262,-0.40569937,-0.48502952,-0.55987406,-0.62276673,-0.670666,-0.7140794,-0.7530072,-0.7874491,-0.81138337,-0.8218604,-0.8188801,-0.8158691,-0.8173746,-0.8173746,-0.81439435,-0.80539215,-0.79940087,-0.79940087,-0.79940087,-0.7949151,-0.78145784,-0.76947534,-0.7649896,-0.7589984,-0.7530072,-0.7455104,-0.7380444,-0.7380444,-0.7350334,-0.73054767,-0.71856517,-0.71109915,-0.70959365,-0.71109915,-0.70658267,-0.6991167,-0.6976112,-0.6976112,-0.7006222,-0.6976112,-0.69161993,-0.68713415,-0.68863964,-0.69161993,-0.69161993,-0.68562865,-0.6841539,-0.69011444,-0.6946309,-0.7006222,-0.6991167,-0.6946309,-0.6961057,-0.6976112,-0.7006222,-0.7006222,-0.7006222,-0.6991167,-0.6931254,-0.68863964,-0.6811429,-0.6811429,-0.69161993,-0.6991167,-0.7051079,-0.70209694,-0.70209694,-0.70658267,-0.70808816,-0.70658267,-0.70360243,-0.7006222,-0.7051079,-0.7051079,-0.6991167,-0.68863964,-0.6826484,-0.6841539,-0.68863964,-0.69011444,-0.68562865,-0.6811429,-0.68562865,-0.68863964,-0.69011444,-0.68562865,-0.6811429,-0.6826484,-0.68713415,-0.68863964,-0.68863964,-0.69161993,-0.6931254,-0.6931254,-0.68863964,-0.6826484,-0.67963743,-0.6841539,-0.68863964,-0.68713415,-0.6811429,-0.6751517,-0.6646747,-0.6437207,-0.60629845,-0.56288505,-0.53145397,-0.51646054,-0.5074891,-0.48355478,-0.43562484,-0.37724864,-0.33534068,-0.32335818,-0.33383512,-0.35030335,-0.36379135,-0.36677164,-0.36978263,-0.39073658,-0.44014132,-0.52245176,-0.63026345,-0.7350334,-0.81138337,-0.8488056,-0.85329133,-0.8443198,-0.8278516,-0.81439435,-0.8098779,-0.8098779,-0.81288886,-0.81439435,-0.81138337,-0.80090636,-0.7934096,-0.79042935,-0.7859436,-0.78145784,-0.7754666,-0.7739611,-0.7754666,-0.7649896,-0.7515017,-0.72305095,-0.6586834,-0.50598353,-0.23954219,0.119748116,0.4880098,0.70059144,0.74102473,0.65868354,0.48054385,0.24550283,-0.056886017,-0.4221676,-0.7530072,-0.9356325,-0.9386435,-0.8308626,-0.72007066,-0.6661802,-0.6721715,-0.7006222,-0.72305095,-0.73054767,-0.72305095,-0.7155849,-0.70658267,-0.7006222,-0.6991167,-0.6931254,-0.6811429,-0.6676857,-0.6557032,-0.65121746,-0.6482065,-0.63923496,-0.62725246,-0.6137952,-0.60479295,-0.5958215,-0.58233356,-0.56288505,-0.5509025,-0.5434365,-0.53892004,-0.53145397,-0.5149858,-0.4985175,-0.4895153,-0.4820493,-0.47006685,-0.44760734,-0.42963362,-0.41768187,-0.40720487,-0.39522237,-0.37724864,-0.35780013,-0.34280664,-0.3188724,-0.29192722,-0.26197094,-0.2365312,-0.22156847,-0.20660573,-0.18562096,-0.15720099,-0.12573928,-0.09581375,-0.06736308,-0.04041779,-0.010492384,0.008986831,0.023949623,0.03740692,0.047914624,0.061371922,0.06886864,0.070343375,0.070343375,0.07335436,0.07184887,0.061371922,0.03442669,-0.0029956102,-0.04942006,-0.09581375,-0.15867573,-0.23803669,-0.32335818,-0.4086796,-0.48355478,-0.552408,-0.61828095,-0.6766572,-0.73054767,-0.76947534,-0.80391735,-0.8323373,-0.8503111,-0.8578078,-0.85329133,-0.8458253,-0.8428143,-0.8413396,-0.8368231,-0.8293571,-0.8233658,-0.8218604,-0.8173746,-0.81288886,-0.80391735,-0.7949151,-0.79193485,-0.7874491,-0.77995235,-0.76796985,-0.7589984,-0.7574929,-0.7559874,-0.7485214,-0.7410246,-0.7380444,-0.7395192,-0.7425301,-0.7425301,-0.7350334,-0.7290422,-0.72606194,-0.72606194,-0.72455645,-0.72157615,-0.72157615,-0.72455645,-0.72455645,-0.72157615,-0.71709037,-0.7155849,-0.72157615,-0.72305095,-0.72157615,-0.7125739,-0.70658267,-0.71109915,-0.7155849,-0.72305095,-0.72455645,-0.72157615,-0.72007066,-0.72007066,-0.71709037,-0.7125739,-0.71109915,-0.7125739,-0.7155849,-0.7140794,-0.70959365,-0.7051079,-0.70658267,-0.70808816,-0.70959365,-0.70658267,-0.70658267,-0.70658267,-0.70360243,-0.6991167,-0.6931254,-0.6931254,-0.70209694,-0.71109915,-0.71109915,-0.7006222,-0.69161993,-0.68713415,-0.68863964,-0.6931254,-0.6931254,-0.6931254,-0.6946309,-0.6931254,-0.6841539,-0.67367697,-0.670666,-0.6751517,-0.6811429,-0.67963743,-0.6691604,-0.6616944,-0.6586834,-0.6601889,-0.6616944,-0.6572087,-0.6572087,-0.6616944,-0.6646747,-0.6616944,-0.6541977,-0.65121746,-0.6541977,-0.6601889,-0.6601889,-0.6557032,-0.65121746,-0.64971197,-0.646701,-0.63474923,-0.61228967,-0.5763423,-0.53443426,-0.4925263,-0.45958984,-0.43562484,-0.4191566,-0.39073658,-0.3383209,-0.28443038,-0.25597972,-0.2634765,-0.29939318,-0.33383512,-0.3413319,-0.3293494,-0.3323297,-0.37276286,-0.45510405,-0.56439054,-0.67367697,-0.7649896,-0.8248713,-0.8518166,-0.8488056,-0.8293571,-0.81288886,-0.80391735,-0.79792607,-0.79193485,-0.7859436,-0.7859436,-0.79193485,-0.7934096,-0.78443813,-0.76796985,-0.7559874,-0.7515017,-0.7455104,-0.7350334,-0.70959365,-0.68562865,-0.6676857,-0.6242722,-0.5030033,-0.2634765,0.06736314,0.4266534,0.66467476,0.7080883,0.61527,0.4251479,0.19010675,-0.065888286,-0.35927486,-0.64971197,-0.8443198,-0.89372456,-0.8188801,-0.71709037,-0.65121746,-0.6541977,-0.6946309,-0.72606194,-0.7335279,-0.71709037,-0.6976112,-0.68863964,-0.6826484,-0.6751517,-0.6601889,-0.6452262,-0.6377295,-0.63173825,-0.61975574,-0.6018127,-0.5928105,-0.5928105,-0.59880173,-0.60328746,-0.5913357,-0.5718565,-0.552408,-0.5434365,-0.53593975,-0.528443,-0.52245176,-0.51646054,-0.5074891,-0.4910208,-0.47006685,-0.45061833,-0.43713033,-0.42665333,-0.41467083,-0.3997081,-0.38323987,-0.37276286,-0.35927486,-0.3413319,-0.31586146,-0.29192722,-0.27545887,-0.25450492,-0.23204541,-0.20061445,-0.17216372,-0.14970428,-0.13025576,-0.109301805,-0.07784009,-0.04942006,-0.023949564,-0.0014901161,0.019463897,0.04041791,0.05387509,0.061371922,0.06438291,0.07184887,0.08383131,0.09280288,0.091328144,0.08082032,0.06585765,0.04041791,0.0014901161,-0.055380583,-0.12125349,-0.1901375,-0.26197094,-0.33982635,-0.4221676,-0.5014978,-0.57038176,-0.62276673,-0.67367697,-0.72157615,-0.7619786,-0.78892386,-0.80090636,-0.80689764,-0.81138337,-0.8173746,-0.8203549,-0.8188801,-0.8158691,-0.8098779,-0.80391735,-0.7934096,-0.78145784,-0.7754666,-0.7739611,-0.77098083,-0.76646435,-0.7530072,-0.7455104,-0.7410246,-0.7410246,-0.7350334,-0.72157615,-0.7125739,-0.70959365,-0.71109915,-0.7125739,-0.70808816,-0.6991167,-0.6931254,-0.69011444,-0.68713415,-0.6841539,-0.68863964,-0.7006222,-0.7125739,-0.7155849,-0.70959365,-0.70209694,-0.7006222,-0.7051079,-0.70808816,-0.70209694,-0.6991167,-0.7006222,-0.7006222,-0.7006222,-0.6961057,-0.6931254,-0.6976112,-0.70360243,-0.7051079,-0.70360243,-0.7006222,-0.70658267,-0.71109915,-0.7125739,-0.70658267,-0.6991167,-0.70209694,-0.70959365,-0.7140794,-0.71109915,-0.70658267,-0.70360243,-0.70209694,-0.70360243,-0.6991167,-0.6946309,-0.6961057,-0.69161993,-0.68562865,-0.67963743,-0.6766572,-0.68562865,-0.6946309,-0.6976112,-0.69161993,-0.68713415,-0.6841539,-0.6766572,-0.6721715,-0.6616944,-0.6601889,-0.6676857,-0.6766572,-0.6826484,-0.67963743,-0.6751517,-0.6691604,-0.6631692,-0.6572087,-0.64971197,-0.64971197,-0.6541977,-0.6616944,-0.6601889,-0.65121746,-0.6452262,-0.646701,-0.6526922,-0.6557032,-0.64971197,-0.63923496,-0.63173825,-0.63173825,-0.63474923,-0.6362239,-0.6377295,-0.6377295,-0.63173825,-0.61975574,-0.59880173,-0.573362,-0.54042554,-0.5045088,-0.47157234,-0.44610184,-0.42665333,-0.3997081,-0.35030335,-0.29192722,-0.25299942,-0.25299942,-0.28593594,-0.32335818,-0.33982635,-0.3323297,-0.3278439,-0.35629463,-0.42514783,-0.52546275,-0.6362239,-0.7350334,-0.80539215,-0.8428143,-0.8443198,-0.8248713,-0.80391735,-0.79193485,-0.78443813,-0.77844685,-0.76947534,-0.7605039,-0.7589984,-0.7574929,-0.7499962,-0.7350334,-0.72455645,-0.72606194,-0.7335279,-0.7380444,-0.72455645,-0.6991167,-0.6751517,-0.6377295,-0.5539135,-0.36078036,-0.065888286,0.29939318,0.62126136,0.7544819,0.72606194,0.5808281,0.35478926,0.0987941,-0.20359474,-0.53593975,-0.80539215,-0.9221753,-0.8757508,-0.7440356,-0.63026345,-0.597327,-0.63026345,-0.6781627,-0.70959365,-0.70808816,-0.6991167,-0.68713415,-0.6781627,-0.6691604,-0.6526922,-0.6422152,-0.63474923,-0.63026345,-0.6242722,-0.61078423,-0.6018127,-0.5958215,-0.5913357,-0.58233356,-0.5658653,-0.54491127,-0.5329288,-0.52546275,-0.520977,-0.5149858,-0.5105001,-0.50598353,-0.49701202,-0.48054385,-0.45510405,-0.43562484,-0.42514783,-0.4206621,-0.4131961,-0.3982026,-0.37426835,-0.35331434,-0.3323297,-0.3083954,-0.28443038,-0.2604962,-0.24252248,-0.22903442,-0.20808041,-0.18113524,-0.15569544,-0.13474154,-0.11378753,-0.088317096,-0.056886017,-0.022474885,0.0059759617,0.02843535,0.049389362,0.076334596,0.09728861,0.113756895,0.12423384,0.13323605,0.14521861,0.15268457,0.14970434,0.13772178,0.122758985,0.10478532,0.07485986,0.029940963,-0.03442657,-0.10779625,-0.18414623,-0.26648742,-0.34732312,-0.42963362,-0.5045088,-0.5658653,-0.62276673,-0.6751517,-0.72157615,-0.7589984,-0.78293264,-0.80090636,-0.8098779,-0.81138337,-0.8098779,-0.80241185,-0.80090636,-0.80391735,-0.80539215,-0.79792607,-0.78293264,-0.76646435,-0.7605039,-0.7589984,-0.7559874,-0.7395192,-0.72606194,-0.71856517,-0.72157615,-0.72756743,-0.72606194,-0.71856517,-0.70808816,-0.7006222,-0.6946309,-0.69161993,-0.68863964,-0.68713415,-0.6841539,-0.6811429,-0.6766572,-0.6751517,-0.6766572,-0.6766572,-0.6691604,-0.6586834,-0.6557032,-0.6616944,-0.67367697,-0.6781627,-0.6766572,-0.6721715,-0.670666,-0.6781627,-0.6826484,-0.6841539,-0.68562865,-0.68562865,-0.68713415,-0.68863964,-0.6841539,-0.6841539,-0.68713415,-0.6931254,-0.69161993,-0.68562865,-0.6841539,-0.68562865,-0.68863964,-0.68713415,-0.6826484,-0.6811429,-0.68713415,-0.6946309,-0.6946309,-0.6841539,-0.67367697,-0.6676857,-0.6676857,-0.6691604,-0.6721715,-0.67963743,-0.6946309,-0.70360243,-0.70209694,-0.68713415,-0.67367697,-0.6676857,-0.670666,-0.6721715,-0.6691604,-0.6631692,-0.6646747,-0.6691604,-0.67367697,-0.670666,-0.6631692,-0.6557032,-0.64971197,-0.646701,-0.6437207,-0.64074045,-0.64074045,-0.63923496,-0.6377295,-0.6332437,-0.6332437,-0.6377295,-0.64074045,-0.64074045,-0.6332437,-0.62875795,-0.62725246,-0.6167755,-0.5883247,-0.53892004,-0.4895153,-0.45958984,-0.44911283,-0.44312155,-0.41617638,-0.36827713,-0.31438667,-0.27696443,-0.26946765,-0.2829557,-0.3039096,-0.31438667,-0.31586146,-0.32335818,-0.36078036,-0.44014132,-0.5539135,-0.67367697,-0.76796985,-0.8188801,-0.8353483,-0.8308626,-0.8188801,-0.80539215,-0.7859436,-0.7754666,-0.77245563,-0.7754666,-0.77995235,-0.7754666,-0.76646435,-0.7634841,-0.7605039,-0.75451267,-0.7410246,-0.72305095,-0.70959365,-0.69161993,-0.6691604,-0.65121746,-0.62875795,-0.55987406,-0.39221138,-0.109301805,0.25597978,0.5763422,0.72007084,0.72007084,0.61527,0.43411946,0.1796298,-0.16168678,-0.54641676,-0.8458253,-0.947615,-0.86975956,-0.7155849,-0.5958215,-0.552408,-0.57038176,-0.60927874,-0.64074045,-0.6541977,-0.6482065,-0.62725246,-0.60780394,-0.59880173,-0.597327,-0.597327,-0.5913357,-0.58233356,-0.5763423,-0.573362,-0.56887627,-0.5553883,-0.53744525,-0.52245176,-0.5149858,-0.5089946,-0.5014978,-0.4910208,-0.47903836,-0.46257007,-0.44161606,-0.4221676,-0.4101851,-0.40720487,-0.40720487,-0.3997081,-0.37724864,-0.35927486,-0.34431213,-0.3323297,-0.32185262,-0.30240417,-0.28443038,-0.2709732,-0.25748515,-0.2350257,-0.20660573,-0.17664945,-0.1527152,-0.13474154,-0.11977875,-0.09879404,-0.07784009,-0.053905785,-0.03442657,-0.010492384,0.02096939,0.047914624,0.06736314,0.08082032,0.09280288,0.10779631,0.11827326,0.12573934,0.12875032,0.13173056,0.13621628,0.13621628,0.119748116,0.08681166,0.041923404,-0.010492384,-0.07184875,-0.13922727,-0.2125662,-0.28593594,-0.35780013,-0.43562484,-0.5134803,-0.5883247,-0.6526922,-0.6976112,-0.73054767,-0.7574929,-0.7754666,-0.78443813,-0.78293264,-0.77995235,-0.77844685,-0.78443813,-0.78892386,-0.7874491,-0.7859436,-0.77995235,-0.7769414,-0.77245563,-0.7649896,-0.7634841,-0.7634841,-0.7634841,-0.7574929,-0.7440356,-0.73205316,-0.72157615,-0.72157615,-0.72157615,-0.71856517,-0.7140794,-0.71109915,-0.70808816,-0.70658267,-0.6961057,-0.68863964,-0.68562865,-0.68562865,-0.68562865,-0.67963743,-0.6766572,-0.6781627,-0.6841539,-0.69011444,-0.68863964,-0.68713415,-0.68713415,-0.68713415,-0.6841539,-0.6766572,-0.6781627,-0.68562865,-0.6961057,-0.7051079,-0.70209694,-0.7006222,-0.70360243,-0.70808816,-0.71109915,-0.70360243,-0.6976112,-0.6931254,-0.68863964,-0.6841539,-0.6751517,-0.6691604,-0.67367697,-0.6841539,-0.68863964,-0.68863964,-0.68562865,-0.68713415,-0.69161993,-0.69161993,-0.6841539,-0.6721715,-0.6646747,-0.670666,-0.67367697,-0.6766572,-0.6781627,-0.6811429,-0.6841539,-0.6841539,-0.6826484,-0.67963743,-0.68562865,-0.68863964,-0.68562865,-0.6751517,-0.6646747,-0.6631692,-0.670666,-0.67963743,-0.6781627,-0.6781627,-0.67963743,-0.6811429,-0.6811429,-0.6676857,-0.646701,-0.61527,-0.5763423,-0.53744525,-0.5045088,-0.4940318,-0.4895153,-0.47605807,-0.43264455,-0.37426835,-0.3323297,-0.32636917,-0.34581763,-0.36526614,-0.36526614,-0.35478914,-0.35478914,-0.3892311,-0.46109533,-0.55839926,-0.6676857,-0.7605039,-0.8248713,-0.8518166,-0.8488056,-0.8308626,-0.81138337,-0.79792607,-0.7874491,-0.77844685,-0.77844685,-0.78145784,-0.78443813,-0.7859436,-0.77844685,-0.77098083,-0.76947534,-0.76947534,-0.76947534,-0.7649896,-0.7515017,-0.7335279,-0.72157615,-0.6931254,-0.6137952,-0.4311391,-0.1422075,0.22156847,0.55388284,0.70959365,0.70959365,0.5943161,0.39371693,0.14669335,-0.16018122,-0.5119748,-0.80840313,-0.9446348,-0.9071818,-0.7754666,-0.6616944,-0.62276673,-0.65121746,-0.6961057,-0.72007066,-0.72157615,-0.7140794,-0.70658267,-0.6976112,-0.6826484,-0.6661802,-0.6586834,-0.6601889,-0.6586834,-0.65121746,-0.63474923,-0.61527,-0.6003072,-0.5868499,-0.5718565,-0.56288505,-0.55987406,-0.55987406,-0.55689377,-0.5434365,-0.52395725,-0.5089946,-0.49701202,-0.48502952,-0.47006685,-0.45359856,-0.44462705,-0.43863583,-0.42815882,-0.41467083,-0.39672786,-0.38323987,-0.37125736,-0.35629463,-0.33383512,-0.3083954,-0.28744137,-0.2709732,-0.251494,-0.2245487,-0.19910902,-0.17366922,-0.15120971,-0.12724477,-0.10029954,-0.073354304,-0.05240029,-0.03442657,-0.017958343,0.007481456,0.029940963,0.047914624,0.061371922,0.07184887,0.085336804,0.09430838,0.091328144,0.082325935,0.07184887,0.061371922,0.04339814,0.013472676,-0.035932064,-0.091327965,-0.1527152,-0.22605419,-0.3068899,-0.39522237,-0.48054385,-0.552408,-0.6137952,-0.6691604,-0.7140794,-0.7499962,-0.7739611,-0.79042935,-0.80391735,-0.81439435,-0.81439435,-0.80840313,-0.80391735,-0.80241185,-0.80241185,-0.7964206,-0.78293264,-0.7739611,-0.76947534,-0.77245563,-0.77245563,-0.7649896,-0.7589984,-0.7574929,-0.7589984,-0.7574929,-0.7470159,-0.7350334,-0.73205316,-0.73054767,-0.7290422,-0.72007066,-0.70959365,-0.70360243,-0.70209694,-0.70360243,-0.7006222,-0.6961057,-0.6961057,-0.6961057,-0.6961057,-0.68863964,-0.68713415,-0.6931254,-0.70360243,-0.7125739,-0.71109915,-0.70959365,-0.70808816,-0.70959365,-0.70959365,-0.70360243,-0.7006222,-0.70658267,-0.7155849,-0.72007066,-0.7140794,-0.70658267,-0.70209694,-0.70209694,-0.70360243,-0.7006222,-0.6976112,-0.6961057,-0.6946309,-0.69011444,-0.68562865,-0.6841539,-0.68713415,-0.68713415,-0.67963743,-0.6676857,-0.6616944,-0.6676857,-0.67367697,-0.6751517,-0.6646747,-0.6526922,-0.65121746,-0.6586834,-0.6631692,-0.6616944,-0.6601889,-0.6572087,-0.6572087,-0.6541977,-0.65121746,-0.64971197,-0.6526922,-0.6586834,-0.6572087,-0.6452262,-0.64074045,-0.6437207,-0.65121746,-0.6541977,-0.646701,-0.6377295,-0.6332437,-0.6332437,-0.63474923,-0.62725246,-0.62276673,-0.6242722,-0.63026345,-0.63474923,-0.6332437,-0.62875795,-0.62574697,-0.62725246,-0.62875795,-0.6242722,-0.62276673,-0.62276673,-0.6242722,-0.6137952,-0.58233356,-0.5329288,-0.48355478,-0.44911283,-0.4311391,-0.41467083,-0.3877256,-0.3413319,-0.28891617,-0.25748515,-0.25748515,-0.2829557,-0.31137568,-0.3278439,-0.3248636,-0.32185262,-0.34879786,-0.4191566,-0.520977,-0.63026345,-0.72455645,-0.78892386,-0.82634616,-0.8428143,-0.8398341,-0.8248713,-0.81138337,-0.80391735,-0.80090636,-0.79792607,-0.78892386,-0.77995235,-0.7754666,-0.7739611,-0.76947534,-0.7574929,-0.7485214,-0.7440356,-0.7440356,-0.73205316,-0.70658267,-0.67963743,-0.6362239,-0.53593975,-0.3278439,-0.014978111,0.35328364,0.64221525,0.72455645,0.6526922,0.4835242,0.25597978,0.010461688,-0.27994472,-0.5868499,-0.8203549,-0.9012213,-0.8368231,-0.72007066,-0.6377295,-0.6242722,-0.6631692,-0.71109915,-0.7335279,-0.7290422,-0.70658267,-0.6841539,-0.670666,-0.6646747,-0.6586834,-0.6452262,-0.63173825,-0.6242722,-0.61828095,-0.61228967,-0.6003072,-0.58383894,-0.5718565,-0.5673708,-0.56439054,-0.5553883,-0.5434365,-0.52994853,-0.51796603,-0.5030033,-0.4880405,-0.4775635,-0.47006685,-0.46109533,-0.44911283,-0.4311391,-0.41467083,-0.4012136,-0.39221138,-0.37875414,-0.35780013,-0.3368461,-0.3203779,-0.3053844,-0.28744137,-0.2634765,-0.2365312,-0.21557724,-0.20061445,-0.18414623,-0.16168678,-0.13624698,-0.109301805,-0.085336804,-0.056886017,-0.02843541,-0.0014901161,0.017958403,0.029940963,0.044903636,0.06585765,0.085336804,0.0987941,0.1002996,0.10327983,0.10927117,0.113756895,0.11077654,0.09728861,0.07485986,0.04339814,-0.0014901161,-0.05839157,-0.12875026,-0.20660573,-0.28443038,-0.36379135,-0.44161606,-0.51796603,-0.58233356,-0.6377295,-0.6811429,-0.72007066,-0.7559874,-0.78293264,-0.7964206,-0.80539215,-0.81138337,-0.8173746,-0.8158691,-0.80840313,-0.79940087,-0.7934096,-0.7949151,-0.79193485,-0.77995235,-0.76796985,-0.7589984,-0.7589984,-0.7559874,-0.7485214,-0.7365389,-0.72305095,-0.72157615,-0.72305095,-0.72157615,-0.71856517,-0.71709037,-0.7125739,-0.70959365,-0.70360243,-0.7006222,-0.6991167,-0.70209694,-0.70209694,-0.6961057,-0.69161993,-0.69011444,-0.6946309,-0.6991167,-0.70209694,-0.70808816,-0.7125739,-0.7140794,-0.71109915,-0.6991167,-0.69161993,-0.69011444,-0.6946309,-0.6961057,-0.69161993,-0.69011444,-0.69161993,-0.6976112,-0.6991167,-0.6946309,-0.6931254,-0.6931254,-0.7006222,-0.7051079,-0.70209694,-0.6961057,-0.69161993,-0.69011444,-0.68713415,-0.6781627,-0.670666,-0.670666,-0.67963743,-0.68562865,-0.6841539,-0.6781627,-0.67367697,-0.6766572,-0.6811429,-0.6826484,-0.6781627,-0.6751517,-0.67367697,-0.670666,-0.6646747,-0.6601889,-0.6616944,-0.6676857,-0.6691604,-0.6631692,-0.6586834,-0.6557032,-0.6601889,-0.6586834,-0.6541977,-0.64971197,-0.64971197,-0.6572087,-0.6616944,-0.6601889,-0.6557032,-0.6541977,-0.6572087,-0.6541977,-0.646701,-0.63923496,-0.63173825,-0.63474923,-0.6332437,-0.63026345,-0.63026345,-0.63026345,-0.6377295,-0.64074045,-0.6377295,-0.63173825,-0.62725246,-0.62725246,-0.62725246,-0.6242722,-0.61975574,-0.61078423,-0.59880173,-0.5718565,-0.52546275,-0.47455257,-0.44014132,-0.4236731,-0.41617638,-0.39371687,-0.34280664,-0.28443038,-0.251494,-0.251494,-0.27545887,-0.30240417,-0.31438667,-0.31586146,-0.32185262,-0.35478914,-0.4206621,-0.5134803,-0.6242722,-0.72157615,-0.7874491,-0.8188801,-0.82634616,-0.8203549,-0.8098779,-0.79940087,-0.79193485,-0.7874491,-0.78892386,-0.7874491,-0.77995235,-0.7754666,-0.7739611,-0.77844685,-0.78443813,-0.78293264,-0.78145784,-0.7739611,-0.7559874,-0.72157615,-0.68562865,-0.6437207,-0.55839926,-0.37574315,-0.07636529,0.30987024,0.65717804,0.80388665,0.7769414,0.6302328,0.4056995,0.14521861,-0.17216372,-0.52994853,-0.8158691,-0.93114674,-0.8682848,-0.72606194,-0.62126124,-0.5928105,-0.62725246,-0.6751517,-0.70209694,-0.70209694,-0.68713415,-0.6691604,-0.6526922,-0.6437207,-0.6422152,-0.6377295,-0.63026345,-0.62126124,-0.6137952,-0.60927874,-0.6018127,-0.58534443,-0.57038176,-0.55689377,-0.54792225,-0.53892004,-0.52245176,-0.50598353,-0.49550653,-0.4910208,-0.4820493,-0.46708655,-0.44760734,-0.43264455,-0.42665333,-0.4206621,-0.4116906,-0.3982026,-0.38474536,-0.37426835,-0.36228585,-0.34431213,-0.3248636,-0.3083954,-0.29490745,-0.2829557,-0.26498193,-0.24101692,-0.21855748,-0.19910902,-0.17366922,-0.14073277,-0.10478526,-0.073354304,-0.047914565,-0.026960611,-0.0045010448,0.023949623,0.047914624,0.06736314,0.08383131,0.10180509,0.11676788,0.13022506,0.12875032,0.12423384,0.119748116,0.11676788,0.10927117,0.08982265,0.0628773,0.026929855,-0.022474885,-0.08684224,-0.16767794,-0.251494,-0.3323297,-0.4086796,-0.48355478,-0.55987406,-0.62276673,-0.670666,-0.70360243,-0.72606194,-0.7515017,-0.7739611,-0.79193485,-0.80391735,-0.81138337,-0.8173746,-0.81138337,-0.79792607,-0.7769414,-0.76646435,-0.76646435,-0.76646435,-0.7619786,-0.7530072,-0.7410246,-0.7365389,-0.73205316,-0.72606194,-0.72007066,-0.71709037,-0.7140794,-0.70959365,-0.6961057,-0.6826484,-0.6781627,-0.68562865,-0.69161993,-0.6931254,-0.68562865,-0.67963743,-0.6811429,-0.6811429,-0.6781627,-0.67367697,-0.6691604,-0.670666,-0.67367697,-0.6721715,-0.6721715,-0.6766572,-0.68562865,-0.69161993,-0.69161993,-0.68863964,-0.68713415,-0.69011444,-0.69011444,-0.68863964,-0.68713415,-0.68863964,-0.6961057,-0.7006222,-0.6991167,-0.69161993,-0.69011444,-0.6931254,-0.6961057,-0.6961057,-0.69011444,-0.6826484,-0.6766572,-0.6751517,-0.67367697,-0.67367697,-0.6751517,-0.6766572,-0.6766572,-0.6751517,-0.6751517,-0.67963743,-0.68713415,-0.68863964,-0.68562865,-0.6811429,-0.6811429,-0.68562865,-0.68863964,-0.69011444,-0.68562865,-0.6811429,-0.6766572,-0.6676857,-0.6586834,-0.6557032,-0.6586834,-0.6691604,-0.67367697,-0.6676857,-0.6586834,-0.6557032,-0.6586834,-0.6616944,-0.6586834,-0.6526922,-0.6482065,-0.6452262,-0.63923496,-0.6332437,-0.62725246,-0.62574697,-0.62875795,-0.62574697,-0.597327,-0.5539135,-0.5119748,-0.48355478,-0.47006685,-0.45510405,-0.42665333,-0.37875414,-0.32636917,-0.29042166,-0.2829557,-0.29939318,-0.3248636,-0.3413319,-0.3368461,-0.3323297,-0.35927486,-0.43264455,-0.53892004,-0.6541977,-0.7440356,-0.79042935,-0.80840313,-0.80539215,-0.7859436,-0.76796985,-0.75451267,-0.7499962,-0.75451267,-0.75451267,-0.7470159,-0.7395192,-0.7350334,-0.7365389,-0.73054767,-0.72007066,-0.70808816,-0.70360243,-0.7006222,-0.6841539,-0.6586834,-0.6332437,-0.597327,-0.5105001,-0.32185262,-0.020969331,0.3413012,0.61825025,0.7185652,0.6931255,0.5673709,0.35927498,0.08831704,-0.27244788,-0.64074045,-0.8892388,-0.9386435,-0.8248713,-0.6646747,-0.55689377,-0.53145397,-0.56288505,-0.60927874,-0.64074045,-0.6437207,-0.63026345,-0.60780394,-0.5898302,-0.58534443,-0.58383894,-0.5778477,-0.5673708,-0.55689377,-0.5509025,-0.54641676,-0.53892004,-0.53145397,-0.520977,-0.5134803,-0.500023,-0.48502952,-0.46558106,-0.45209306,-0.44610184,-0.43863583,-0.43264455,-0.4236731,-0.4116906,-0.40569937,-0.39221138,-0.37426835,-0.35331434,-0.3383209,-0.3323297,-0.3248636,-0.3083954,-0.2829557,-0.2589907,-0.24402791,-0.2365312,-0.22755975,-0.20510018,-0.18414623,-0.16319221,-0.13922727,-0.11228204,-0.08383125,-0.05839157,-0.04041779,-0.022474885,-1.5318394e-05,0.02843535,0.05240035,0.070343375,0.08681166,0.10327983,0.12125361,0.13173056,0.13173056,0.12875032,0.13022506,0.12875032,0.12423384,0.10327983,0.07335436,0.03442669,-0.011967063,-0.07037407,-0.1422075,-0.22156847,-0.3053844,-0.38474536,-0.46407557,-0.54193103,-0.60927874,-0.6601889,-0.6976112,-0.72606194,-0.7485214,-0.7619786,-0.76796985,-0.76646435,-0.77098083,-0.77995235,-0.77995235,-0.7754666,-0.7649896,-0.7589984,-0.7559874,-0.7530072,-0.7410246,-0.72756743,-0.72007066,-0.72305095,-0.72157615,-0.7140794,-0.70209694,-0.6946309,-0.6946309,-0.6931254,-0.6826484,-0.6676857,-0.6601889,-0.6646747,-0.6676857,-0.6646747,-0.6572087,-0.65121746,-0.6541977,-0.6572087,-0.6572087,-0.6541977,-0.6526922,-0.6572087,-0.6616944,-0.6572087,-0.646701,-0.6452262,-0.65121746,-0.6601889,-0.6616944,-0.6572087,-0.6557032,-0.6601889,-0.6676857,-0.67367697,-0.6721715,-0.670666,-0.670666,-0.6676857,-0.6646747,-0.6586834,-0.6631692,-0.6766572,-0.6841539,-0.68713415,-0.6811429,-0.6781627,-0.6826484,-0.69011444,-0.6946309,-0.69161993,-0.68863964,-0.6826484,-0.6721715,-0.6676857,-0.6646747,-0.6691604,-0.6811429,-0.68562865,-0.67963743,-0.6676857,-0.6601889,-0.6616944,-0.6616944,-0.6616944,-0.6586834,-0.6572087,-0.6631692,-0.6676857,-0.6661802,-0.6572087,-0.63923496,-0.61527,-0.5763423,-0.53443426,-0.5014978,-0.4895153,-0.4880405,-0.47157234,-0.42514783,-0.36526614,-0.3203779,-0.31438667,-0.3323297,-0.35180885,-0.35331434,-0.34431213,-0.34581763,-0.37724864,-0.44610184,-0.54491127,-0.6557032,-0.75451267,-0.8203549,-0.8458253,-0.8413396,-0.8233658,-0.8098779,-0.80241185,-0.7949151,-0.79042935,-0.79193485,-0.79792607,-0.80241185,-0.79792607,-0.78145784,-0.7649896,-0.7559874,-0.7499962,-0.7470159,-0.7425301,-0.7290422,-0.70959365,-0.69011444,-0.6557032,-0.5808587,-0.41617638,-0.15120971,0.19161224,0.49851763,0.64070976,0.6302328,0.5134803,0.3203473,0.079345584,-0.21855748,-0.56137955,-0.8458253,-0.9595975,-0.90420157,-0.76646435,-0.64971197,-0.61078423,-0.63474923,-0.67367697,-0.6976112,-0.70209694,-0.6931254,-0.6826484,-0.670666,-0.6557032,-0.64074045,-0.6332437,-0.62875795,-0.62276673,-0.61527,-0.60927874,-0.60780394,-0.60328746,-0.594316,-0.5778477,-0.55987406,-0.5509025,-0.54491127,-0.53744525,-0.528443,-0.5194715,-0.5074891,-0.4940318,-0.47903836,-0.46257007,-0.45061833,-0.45061833,-0.44462705,-0.43264455,-0.41467083,-0.39522237,-0.38323987,-0.36827713,-0.35180885,-0.3323297,-0.30990088,-0.29343265,-0.27696443,-0.25299942,-0.22605419,-0.19910902,-0.17514402,-0.14970428,-0.11977875,-0.08383125,-0.053905785,-0.03295183,-0.014978111,0.0045012236,0.026929855,0.04339814,0.05387509,0.05839157,0.06886864,0.082325935,0.09581387,0.1002996,0.1002996,0.09280288,0.07784009,0.047914624,-1.5318394e-05,-0.05839157,-0.12125349,-0.18562096,-0.2604962,-0.34431213,-0.4311391,-0.51646054,-0.5913357,-0.6586834,-0.71856517,-0.7634841,-0.7949151,-0.81288886,-0.82634616,-0.8413396,-0.8488056,-0.8473308,-0.8398341,-0.8308626,-0.82634616,-0.8218604,-0.8173746,-0.81138337,-0.80391735,-0.80090636,-0.79792607,-0.7934096,-0.7874491,-0.78145784,-0.7769414,-0.76947534,-0.7589984,-0.7470159,-0.7410246,-0.7410246,-0.7380444,-0.7290422,-0.71856517,-0.70808816,-0.70360243,-0.70808816,-0.70959365,-0.70959365,-0.70959365,-0.71109915,-0.7051079,-0.6976112,-0.68863964,-0.68562865,-0.68863964,-0.69011444,-0.68863964,-0.6826484,-0.6841539,-0.6931254,-0.70209694,-0.70658267,-0.70658267,-0.70209694,-0.70360243,-0.70658267,-0.70658267,-0.70360243,-0.70658267,-0.7155849,-0.71856517,-0.7155849,-0.70658267,-0.6961057,-0.6961057,-0.6991167,-0.7006222,-0.6976112,-0.6991167,-0.70658267,-0.70808816,-0.7051079,-0.6976112,-0.68863964,-0.69011444,-0.6931254,-0.6931254,-0.69161993,-0.69011444,-0.6931254,-0.6946309,-0.69011444,-0.6841539,-0.6841539,-0.68863964,-0.6931254,-0.69161993,-0.6826484,-0.6766572,-0.6766572,-0.6751517,-0.6721715,-0.6661802,-0.6631692,-0.6721715,-0.67963743,-0.67963743,-0.670666,-0.6541977,-0.6332437,-0.594316,-0.5434365,-0.49550653,-0.46708655,-0.45958984,-0.44760734,-0.4101851,-0.34581763,-0.29490745,-0.28145015,-0.29791844,-0.32335818,-0.3323297,-0.32335818,-0.32185262,-0.34581763,-0.40268838,-0.4895153,-0.5913357,-0.6961057,-0.77844685,-0.82634616,-0.8443198,-0.8398341,-0.82634616,-0.81439435,-0.80241185,-0.7934096,-0.7934096,-0.80090636,-0.80391735,-0.80391735,-0.7964206,-0.78892386,-0.7859436,-0.78293264,-0.7754666,-0.7605039,-0.7470159,-0.73054767,-0.72007066,-0.6976112,-0.63026345,-0.46407557,-0.19161224,0.16466701,0.5119748,0.69610584,0.6901145,0.56137955,0.35478926,0.119748116,-0.14073277,-0.45061833,-0.7395192,-0.90420157,-0.9071818,-0.80391735,-0.6976112,-0.6526922,-0.6721715,-0.7125739,-0.7335279,-0.7350334,-0.72606194,-0.71109915,-0.6946309,-0.6781627,-0.6661802,-0.6601889,-0.6572087,-0.65121746,-0.64074045,-0.62875795,-0.61975574,-0.61078423,-0.60328746,-0.5913357,-0.58383894,-0.5778477,-0.57038176,-0.55987406,-0.54491127,-0.53443426,-0.528443,-0.520977,-0.5105001,-0.49550653,-0.48054385,-0.46708655,-0.44911283,-0.4311391,-0.4086796,-0.39371687,-0.3862201,-0.37875414,-0.36526614,-0.34581763,-0.3278439,-0.31137568,-0.29192722,-0.26648742,-0.2350257,-0.20958596,-0.18712652,-0.1661725,-0.13474154,-0.10029954,-0.06886852,-0.044903517,-0.029940844,-0.010492384,0.013472676,0.03740692,0.05240035,0.06736314,0.08082032,0.09280288,0.10180509,0.10478532,0.10629094,0.10779631,0.10327983,0.08681166,0.04640913,-0.007481277,-0.06736308,-0.13323599,-0.20510018,-0.28593594,-0.36677164,-0.44610184,-0.5149858,-0.58233356,-0.6437207,-0.6946309,-0.7335279,-0.7559874,-0.77098083,-0.78443813,-0.7949151,-0.80241185,-0.80391735,-0.80391735,-0.8098779,-0.80840313,-0.79940087,-0.78443813,-0.77245563,-0.76646435,-0.76646435,-0.7634841,-0.7530072,-0.7470159,-0.7425301,-0.7395192,-0.7350334,-0.72606194,-0.71709037,-0.7125739,-0.70959365,-0.7051079,-0.6946309,-0.68562865,-0.68713415,-0.6931254,-0.6976112,-0.6991167,-0.6976112,-0.6946309,-0.69161993,-0.69011444,-0.68713415,-0.69011444,-0.6991167,-0.70658267,-0.70808816,-0.6991167,-0.6946309,-0.70209694,-0.71109915,-0.72007066,-0.72305095,-0.72455645,-0.7290422,-0.73205316,-0.7290422,-0.72157615,-0.72007066,-0.72606194,-0.73205316,-0.7335279,-0.72756743,-0.72455645,-0.73054767,-0.7410246,-0.7455104,-0.7395192,-0.73205316,-0.7290422,-0.72756743,-0.7290422,-0.72606194,-0.72455645,-0.72606194,-0.72756743,-0.72455645,-0.71709037,-0.7125739,-0.7125739,-0.70808816,-0.70209694,-0.6976112,-0.6991167,-0.71109915,-0.72305095,-0.72455645,-0.7125739,-0.6991167,-0.6991167,-0.7006222,-0.70360243,-0.7006222,-0.6931254,-0.68713415,-0.6841539,-0.6841539,-0.6781627,-0.6781627,-0.67963743,-0.6826484,-0.67963743,-0.6721715,-0.6691604,-0.6721715,-0.67963743,-0.6826484,-0.6751517,-0.6661802,-0.6616944,-0.6601889,-0.6586834,-0.6482065,-0.63173825,-0.60780394,-0.5673708,-0.51796603,-0.47157234,-0.44014132,-0.4206621,-0.39522237,-0.34581763,-0.28443038,-0.2470082,-0.2485137,-0.27545887,-0.3068899,-0.3188724,-0.31438667,-0.3188724,-0.34581763,-0.4116906,-0.5045088,-0.61228967,-0.71856517,-0.7964206,-0.8383286,-0.8503111,-0.8458253,-0.8338428,-0.8218604,-0.80539215,-0.79193485,-0.7874491,-0.7934096,-0.80090636,-0.79792607,-0.78293264,-0.76796985,-0.7619786,-0.7634841,-0.7619786,-0.7559874,-0.7440356,-0.72756743,-0.7125739,-0.6826484,-0.61527,-0.45808434,-0.19161224,0.1571703,0.51495504,0.72007084,0.7305478,0.6032876,0.3862201,0.13474154,-0.13474154,-0.44911283,-0.7380444,-0.90420157,-0.9012213,-0.78892386,-0.6721715,-0.62574697,-0.646701,-0.69161993,-0.7155849,-0.71856517,-0.71109915,-0.70209694,-0.6931254,-0.67963743,-0.6661802,-0.6572087,-0.6526922,-0.6452262,-0.6332437,-0.62126124,-0.61228967,-0.6018127,-0.5883247,-0.57038176,-0.55689377,-0.552408,-0.5509025,-0.5434365,-0.5329288,-0.52395725,-0.51646054,-0.5074891,-0.4910208,-0.47006685,-0.45359856,-0.44610184,-0.44462705,-0.44014132,-0.42815882,-0.4131961,-0.3997081,-0.38323987,-0.36078036,-0.3323297,-0.3068899,-0.28593594,-0.26946765,-0.25450492,-0.23355097,-0.21109152,-0.19161224,-0.16466707,-0.12875026,-0.08684224,-0.05240029,-0.02843541,-0.011967063,0.008986831,0.035932064,0.05986643,0.07784009,0.08831704,0.0987941,0.11676788,0.13022506,0.13621628,0.13772178,0.14070201,0.13922727,0.12423384,0.09280288,0.04339814,-0.016483545,-0.082325816,-0.15569544,-0.2350257,-0.3173669,-0.3997081,-0.47157234,-0.5434365,-0.60927874,-0.6661802,-0.70959365,-0.7380444,-0.7619786,-0.78145784,-0.7964206,-0.80090636,-0.79792607,-0.79193485,-0.79042935,-0.79042935,-0.78443813,-0.7739611,-0.76796985,-0.7649896,-0.7605039,-0.7530072,-0.7380444,-0.72305095,-0.7155849,-0.71109915,-0.70808816,-0.70209694,-0.6991167,-0.70209694,-0.7051079,-0.7006222,-0.68713415,-0.67963743,-0.67963743,-0.6841539,-0.69161993,-0.69011444,-0.68713415,-0.68562865,-0.6841539,-0.6781627,-0.6661802,-0.6601889,-0.6616944,-0.6676857,-0.6751517,-0.6751517,-0.6766572,-0.6811429,-0.6841539,-0.68562865,-0.6811429,-0.6766572,-0.6781627,-0.67963743,-0.6751517,-0.6691604,-0.6646747,-0.6691604,-0.6781627,-0.6841539,-0.6826484,-0.6781627,-0.6751517,-0.6721715,-0.6691604,-0.6646747,-0.6631692,-0.6691604,-0.6721715,-0.6721715,-0.6631692,-0.6616944,-0.6646747,-0.6691604,-0.67367697,-0.670666,-0.6676857,-0.6691604,-0.6676857,-0.6616944,-0.64971197,-0.6377295,-0.6332437,-0.6377295,-0.6422152,-0.6452262,-0.6437207,-0.6422152,-0.6437207,-0.6437207,-0.6437207,-0.6422152,-0.6452262,-0.6482065,-0.6452262,-0.6362239,-0.62725246,-0.62574697,-0.62875795,-0.63173825,-0.63026345,-0.62725246,-0.62574697,-0.6242722,-0.61828095,-0.60780394,-0.6003072,-0.5958215,-0.59880173,-0.59880173,-0.5883247,-0.5793533,-0.5763423,-0.5658653,-0.549397,-0.5149858,-0.47455257,-0.44312155,-0.4236731,-0.40720487,-0.37125736,-0.3173669,-0.2604962,-0.22605419,-0.22156847,-0.23954219,-0.2634765,-0.27696443,-0.27545887,-0.27545887,-0.29791844,-0.35780013,-0.45510405,-0.56887627,-0.6676857,-0.72305095,-0.7470159,-0.7485214,-0.7350334,-0.72007066,-0.70808816,-0.6991167,-0.6976112,-0.6991167,-0.6991167,-0.69011444,-0.6826484,-0.6781627,-0.6781627,-0.6766572,-0.6721715,-0.670666,-0.670666,-0.6661802,-0.6452262,-0.61975574,-0.5958215,-0.56288505,-0.46708655,-0.25450492,0.070343375,0.45359862,0.7350334,0.8308319,0.7919042,0.64971197,0.41765118,0.11676788,-0.2604962,-0.6362239,-0.8682848,-0.8997158,-0.77995235,-0.62574697,-0.5329288,-0.51796603,-0.55987406,-0.60927874,-0.63474923,-0.63173825,-0.61228967,-0.5928105,-0.58233356,-0.5763423,-0.5658653,-0.5509025,-0.53892004,-0.5329288,-0.52994853,-0.52546275,-0.51646054,-0.5089946,-0.4985175,-0.486535,-0.47157234,-0.45510405,-0.44462705,-0.44462705,-0.44760734,-0.44161606,-0.42514783,-0.40268838,-0.3862201,-0.37724864,-0.36978263,-0.35927486,-0.34879786,-0.33383512,-0.3203779,-0.3068899,-0.28891617,-0.27395344,-0.2589907,-0.2470082,-0.2245487,-0.19462323,-0.16767794,-0.14819872,-0.13474154,-0.11827326,-0.08982253,-0.061371803,-0.031446278,-0.0060065985,0.019463897,0.04640913,0.07335436,0.08982265,0.10478532,0.11827326,0.13173056,0.14371312,0.15120983,0.15268457,0.1571703,0.16316152,0.16316152,0.15268457,0.13022506,0.09581387,0.05839157,0.008986831,-0.055380583,-0.13025576,-0.20958596,-0.29042166,-0.36978263,-0.44760734,-0.52245176,-0.5868499,-0.6362239,-0.6751517,-0.70658267,-0.7335279,-0.7499962,-0.7574929,-0.7619786,-0.76646435,-0.7739611,-0.7754666,-0.76947534,-0.7605039,-0.7499962,-0.7410246,-0.7395192,-0.7350334,-0.7380444,-0.7395192,-0.73205316,-0.71856517,-0.7006222,-0.68863964,-0.68562865,-0.6841539,-0.6811429,-0.670666,-0.6646747,-0.6616944,-0.6616944,-0.6616944,-0.6557032,-0.65121746,-0.6526922,-0.6572087,-0.6572087,-0.6557032,-0.6557032,-0.6586834,-0.6646747,-0.6616944,-0.6557032,-0.646701,-0.6482065,-0.64971197,-0.6526922,-0.6526922,-0.6572087,-0.6646747,-0.6691604,-0.6676857,-0.6586834,-0.6572087,-0.6631692,-0.6691604,-0.6691604,-0.6616944,-0.6572087,-0.6601889,-0.6661802,-0.6661802,-0.6557032,-0.64971197,-0.64971197,-0.6557032,-0.6586834,-0.6557032,-0.6482065,-0.64971197,-0.6572087,-0.6586834,-0.6557032,-0.6541977,-0.6572087,-0.6646747,-0.6721715,-0.67367697,-0.6721715,-0.6751517,-0.6781627,-0.6751517,-0.6661802,-0.6616944,-0.6646747,-0.6751517,-0.6826484,-0.67963743,-0.6721715,-0.6661802,-0.6661802,-0.6661802,-0.6616944,-0.6601889,-0.6572087,-0.6557032,-0.64971197,-0.63923496,-0.62875795,-0.62126124,-0.60780394,-0.5778477,-0.5329288,-0.4925263,-0.47304708,-0.47157234,-0.46407557,-0.4311391,-0.37875414,-0.3278439,-0.3039096,-0.3039096,-0.31586146,-0.3278439,-0.3308549,-0.33383512,-0.35030335,-0.39221138,-0.46856135,-0.5748675,-0.6841539,-0.76796985,-0.8098779,-0.8218604,-0.81439435,-0.80689764,-0.79940087,-0.79193485,-0.78892386,-0.7859436,-0.7859436,-0.77995235,-0.76947534,-0.7634841,-0.7619786,-0.76646435,-0.76796985,-0.7605039,-0.7530072,-0.7470159,-0.7350334,-0.7155849,-0.6946309,-0.67367697,-0.61975574,-0.4775635,-0.21855748,0.13474154,0.4835242,0.66618025,0.6826484,0.5883248,0.4116906,0.17815506,-0.11977875,-0.47304708,-0.78293264,-0.9356325,-0.9116983,-0.79193485,-0.67963743,-0.63173825,-0.63923496,-0.6691604,-0.6931254,-0.6976112,-0.68863964,-0.6721715,-0.6526922,-0.6422152,-0.6377295,-0.6362239,-0.6332437,-0.62875795,-0.6242722,-0.61828095,-0.61078423,-0.59880173,-0.5913357,-0.5883247,-0.5868499,-0.5808587,-0.5673708,-0.5539135,-0.54491127,-0.54193103,-0.53593975,-0.5194715,-0.5030033,-0.4910208,-0.48355478,-0.47605807,-0.46109533,-0.44312155,-0.42514783,-0.4131961,-0.39672786,-0.37724864,-0.35927486,-0.33982635,-0.32335818,-0.3039096,-0.27843916,-0.25299942,-0.22903442,-0.20510018,-0.17966044,-0.14970428,-0.122759044,-0.09879404,-0.07485986,-0.050894856,-0.022474885,0.0059759617,0.031446338,0.050894856,0.06585765,0.079345584,0.085336804,0.08982265,0.09280288,0.1002996,0.10927117,0.10779631,0.091328144,0.056886196,0.01497817,-0.03295183,-0.09430826,-0.16767794,-0.25299942,-0.3383209,-0.4131961,-0.48502952,-0.5539135,-0.62276673,-0.68562865,-0.7290422,-0.7649896,-0.79042935,-0.8098779,-0.8218604,-0.8248713,-0.82634616,-0.8308626,-0.8338428,-0.8338428,-0.8233658,-0.81288886,-0.80391735,-0.79792607,-0.79042935,-0.78293264,-0.7754666,-0.77098083,-0.77098083,-0.76646435,-0.7559874,-0.7470159,-0.7440356,-0.7440356,-0.7410246,-0.73205316,-0.72305095,-0.71709037,-0.7155849,-0.7140794,-0.70658267,-0.7006222,-0.7006222,-0.70808816,-0.71109915,-0.70658267,-0.70209694,-0.6961057,-0.6931254,-0.68713415,-0.6781627,-0.6751517,-0.6826484,-0.6976112,-0.70959365,-0.70658267,-0.6991167,-0.69161993,-0.69011444,-0.6931254,-0.6946309,-0.6961057,-0.6946309,-0.6961057,-0.6946309,-0.6931254,-0.6931254,-0.6976112,-0.70209694,-0.7051079,-0.7006222,-0.6976112,-0.6961057,-0.6976112,-0.6961057,-0.69161993,-0.68863964,-0.68863964,-0.69161993,-0.69161993,-0.68863964,-0.68562865,-0.68713415,-0.69161993,-0.6931254,-0.69011444,-0.68713415,-0.69011444,-0.6946309,-0.6946309,-0.68863964,-0.6841539,-0.6826484,-0.68562865,-0.68562865,-0.6781627,-0.670666,-0.6721715,-0.6841539,-0.6946309,-0.6976112,-0.6961057,-0.6931254,-0.6961057,-0.6991167,-0.6976112,-0.6961057,-0.6946309,-0.6931254,-0.68863964,-0.6781627,-0.6721715,-0.67367697,-0.6781627,-0.6811429,-0.6751517,-0.6646747,-0.6572087,-0.65121746,-0.6437207,-0.62574697,-0.5958215,-0.5539135,-0.5134803,-0.4775635,-0.45660955,-0.44610184,-0.42665333,-0.3862201,-0.33383512,-0.29192722,-0.28593594,-0.30990088,-0.33982635,-0.35180885,-0.33982635,-0.3368461,-0.36827713,-0.44610184,-0.54792225,-0.6586834,-0.7515017,-0.81439435,-0.8488056,-0.8518166,-0.8308626,-0.80840313,-0.79792607,-0.79940087,-0.80090636,-0.79792607,-0.79042935,-0.7859436,-0.7859436,-0.7859436,-0.7769414,-0.7649896,-0.7574929,-0.7559874,-0.7559874,-0.7440356,-0.72157615,-0.6991167,-0.67367697,-0.61975574,-0.4775635,-0.2230739,0.122758985,0.49102092,0.72007084,0.7515017,0.6467011,0.4491129,0.21256626,-0.041923285,-0.3368461,-0.63026345,-0.82634616,-0.86975956,-0.7874491,-0.6751517,-0.61228967,-0.62126124,-0.670666,-0.70959365,-0.7155849,-0.7051079,-0.6931254,-0.68863964,-0.6841539,-0.6751517,-0.6616944,-0.64971197,-0.64074045,-0.62574697,-0.60927874,-0.5958215,-0.5913357,-0.59880173,-0.6018127,-0.5913357,-0.5778477,-0.56288505,-0.552408,-0.54491127,-0.53443426,-0.520977,-0.5105001,-0.5045088,-0.4940318,-0.4775635,-0.45808434,-0.44014132,-0.4311391,-0.4191566,-0.40268838,-0.38323987,-0.36677164,-0.35629463,-0.34879786,-0.3368461,-0.3173669,-0.29490745,-0.27244788,-0.24550271,-0.2125662,-0.18113524,-0.1527152,-0.13173056,-0.109301805,-0.082325816,-0.050894856,-0.023949564,-0.0029956102,0.017958403,0.038912296,0.055380583,0.06736314,0.076334596,0.08681166,0.0987941,0.11228204,0.119748116,0.11526227,0.10180509,0.082325935,0.055380583,0.01497817,-0.038912356,-0.10180503,-0.17216372,-0.2485137,-0.3278439,-0.4101851,-0.4895153,-0.5553883,-0.61228967,-0.6616944,-0.70658267,-0.7425301,-0.76646435,-0.7874491,-0.80241185,-0.81439435,-0.8203549,-0.8158691,-0.80689764,-0.80391735,-0.80539215,-0.80539215,-0.7964206,-0.78443813,-0.77245563,-0.76796985,-0.76796985,-0.7649896,-0.7605039,-0.7559874,-0.7559874,-0.7515017,-0.7440356,-0.7395192,-0.7335279,-0.73205316,-0.73054767,-0.72606194,-0.72157615,-0.72305095,-0.72455645,-0.72305095,-0.71709037,-0.70959365,-0.70658267,-0.70959365,-0.71109915,-0.71109915,-0.70959365,-0.70808816,-0.7125739,-0.7155849,-0.7125739,-0.7125739,-0.7140794,-0.71709037,-0.71709037,-0.7125739,-0.71109915,-0.72007066,-0.7365389,-0.7485214,-0.7485214,-0.7410246,-0.7350334,-0.7350334,-0.7365389,-0.7335279,-0.7290422,-0.72756743,-0.73054767,-0.73054767,-0.72606194,-0.72157615,-0.72157615,-0.72455645,-0.72606194,-0.72157615,-0.70959365,-0.70360243,-0.70209694,-0.70209694,-0.6991167,-0.69161993,-0.68562865,-0.68713415,-0.68863964,-0.6931254,-0.6976112,-0.70209694,-0.70808816,-0.70808816,-0.70209694,-0.6961057,-0.69161993,-0.6931254,-0.69161993,-0.68713415,-0.67963743,-0.6781627,-0.6826484,-0.6841539,-0.6781627,-0.670666,-0.6691604,-0.67367697,-0.6781627,-0.6766572,-0.6721715,-0.6691604,-0.670666,-0.6676857,-0.6601889,-0.65121746,-0.6482065,-0.6557032,-0.6616944,-0.6646747,-0.6601889,-0.6541977,-0.6526922,-0.64971197,-0.6437207,-0.6377295,-0.6332437,-0.63026345,-0.62276673,-0.6018127,-0.5658653,-0.52395725,-0.4895153,-0.46558106,-0.44760734,-0.42514783,-0.39073658,-0.34280664,-0.29939318,-0.27545887,-0.28145015,-0.3068899,-0.3293494,-0.3293494,-0.32185262,-0.3368461,-0.39672786,-0.5074891,-0.63923496,-0.7470159,-0.81439435,-0.8428143,-0.8443198,-0.8293571,-0.81138337,-0.7934096,-0.78293264,-0.7859436,-0.7859436,-0.7859436,-0.78443813,-0.78443813,-0.7874491,-0.7859436,-0.7769414,-0.76646435,-0.7574929,-0.7559874,-0.7499962,-0.73205316,-0.70808816,-0.69011444,-0.6557032,-0.5539135,-0.3323297,-0.007481277,0.37276292,0.66467476,0.7530072,0.6931255,0.53142333,0.30089867,0.038912296,-0.27395344,-0.60479295,-0.8503111,-0.9341577,-0.86975956,-0.7395192,-0.6422152,-0.61975574,-0.6541977,-0.7006222,-0.72157615,-0.7140794,-0.6931254,-0.6766572,-0.6691604,-0.6646747,-0.6541977,-0.6422152,-0.63026345,-0.6242722,-0.6137952,-0.6003072,-0.5868499,-0.58233356,-0.58534443,-0.58534443,-0.5763423,-0.55987406,-0.54193103,-0.52994853,-0.5194715,-0.50598353,-0.49701202,-0.4880405,-0.48502952,-0.47903836,-0.46558106,-0.44911283,-0.43562484,-0.42514783,-0.4116906,-0.39221138,-0.36978263,-0.35030335,-0.33383512,-0.3173669,-0.29490745,-0.26946765,-0.2470082,-0.23053998,-0.21109152,-0.18712652,-0.16018122,-0.13323599,-0.11228204,-0.08684224,-0.053905785,-0.022474885,0.0045012236,0.023949623,0.038912296,0.056886196,0.076334596,0.09280288,0.1002996,