-0.727566,-0.7215724,-0.7185756,-0.7195847,-0.7235601,-0.7245692,-0.7175665,-0.71059436,-0.7115729,-0.7175665,-0.722551,-0.7185756,-0.71059436,-0.7075975,-0.7115729,-0.7145697,-0.7135911,-0.71059436,-0.71059436,-0.71658796,-0.7185756,-0.7135911,-0.70860666,-0.70860666,-0.7155788,-0.7235601,-0.7215724,-0.7155788,-0.7135911,-0.71658796,-0.7195847,-0.7185756,-0.7175665,-0.7185756,-0.7235601,-0.7245692,-0.7175665,-0.7115729,-0.7095852,-0.7145697,-0.7185756,-0.712582,-0.7065884,-0.70560986,-0.71059436,-0.712582,-0.7065884,-0.7005948,-0.69762856,-0.70261306,-0.7075975,-0.70560986,-0.7005948,-0.69661945,-0.69362265,-0.6866505,-0.6726756,-0.6596793,-0.6596793,-0.6726756,-0.6846322,-0.687629,-0.67665094,-0.6606884,-0.6457044,-0.626745,-0.6038102,-0.5838418,-0.57286364,-0.5738728,-0.58084494,-0.5878477,-0.5998043,-0.6237482,-0.6636852,-0.70560986,-0.7365259,-0.752519,-0.7594912,-0.7634971,-0.762488,-0.7564944,-0.7495222,-0.7485131,-0.752519,-0.752519,-0.7455163,-0.7355473,-0.7305628,-0.7335291,-0.7365259,-0.7335291,-0.7345382,-0.75349754,-0.7914163,-0.8373469,-0.8612908,-0.8263688,-0.7046007,-0.47305173,-0.15269941,0.20658064,0.52595437,0.687629,0.62873256,0.34929574,-0.07585281,-0.5110011,-0.8223629,-0.9600936,-0.9491155,-0.87125975,-0.8064003,-0.79242545,-0.8173784,-0.848325,-0.8612908,-0.85728484,-0.8473159,-0.8393346,-0.8323319,-0.8223629,-0.8113848,-0.8034035,-0.8004067,-0.7974099,-0.78643185,-0.7734661,-0.76447564,-0.762488,-0.7614789,-0.7575035,-0.7515099,-0.7465254,-0.7465254,-0.7435286,-0.7335291,-0.7205633,-0.712582,-0.712582,-0.7135911,-0.7095852,-0.7016039,-0.6956103,-0.6926135,-0.68564135,-0.6716665,-0.6576916,-0.64870113,-0.6467135,-0.641729,-0.6297418,-0.6137792,-0.601792,-0.59582895,-0.5858294,-0.5668701,-0.5449139,-0.5239668,-0.505986,-0.48702657,-0.4630828,-0.44311428,-0.43314528,-0.43412387,-0.43513298,-0.42913938,-0.42017955,-0.41617358,-0.42017955,-0.42415494,-0.42415494,-0.42715168,-0.4421357,-0.47106403,-0.50399834,-0.5349449,-0.5648824,-0.601792,-0.6467135,-0.68863815,-0.722551,-0.7495222,-0.77646285,-0.80441266,-0.8243506,-0.8323319,-0.833341,-0.8343501,-0.8383255,-0.8373469,-0.8303442,-0.8203752,-0.8143816,-0.8143816,-0.81239396,-0.8034035,-0.79242545,-0.78643185,-0.78744096,-0.78444415,-0.77245694,-0.7575035,-0.747504,-0.7455163,-0.7445072,-0.7385441,-0.7295537,-0.7245692,-0.7265569,-0.7265569,-0.7195847,-0.71059436,-0.7046007,-0.70560986,-0.70560986,-0.6986071,-0.687629,-0.68264455,-0.6866505,-0.69163495,-0.6896167,-0.6846322,-0.6816354,-0.68564135,-0.68863815,-0.6866505,-0.68264455,-0.6836537,-0.6926135,-0.7005948,-0.69961625,-0.6956103,-0.69463176,-0.69961625,-0.70261306,-0.69961625,-0.69362265,-0.6926135,-0.6986071,-0.70261306,-0.69961625,-0.6926135,-0.69163495,-0.6986071,-0.7035916,-0.7016039,-0.6926135,-0.687629,-0.69062585,-0.69463176,-0.6926135,-0.68863815,-0.68564135,-0.68863815,-0.69062585,-0.6846322,-0.6746633,-0.6656729,-0.6636852,-0.6616975,-0.6566825,-0.64870113,-0.64870113,-0.6557039,-0.6616975,-0.6576916,-0.6427381,-0.6257664,-0.6137792,-0.60081345,-0.5818541,-0.5608764,-0.5449139,-0.545923,-0.5569011,-0.56986684,-0.58283263,-0.6038102,-0.6377231,-0.6786386,-0.7135911,-0.7365259,-0.75050074,-0.7564944,-0.75349754,-0.7425195,-0.7305628,-0.7255478,-0.7285446,-0.7305628,-0.727566,-0.7215724,-0.7185756,-0.722551,-0.7245692,-0.7175665,-0.7115729,-0.722551,-0.762488,-0.81539077,-0.85428804,-0.8373469,-0.7315414,-0.5069951,-0.16866207,0.22954595,0.61276996,0.8523003,0.8592725,0.627754,0.21755874,-0.24052423,-0.6077856,-0.8203752,-0.88425606,-0.86028165,-0.8243506,-0.81838757,-0.8423314,-0.86826295,-0.87826246,-0.873278,-0.8642876,-0.858294,-0.8533095,-0.84330994,-0.8283565,-0.8173784,-0.8113848,-0.8053912,-0.7944131,-0.78043824,-0.7714784,-0.76946014,-0.7684816,-0.7614789,-0.7515099,-0.7445072,-0.7435286,-0.7405318,-0.7315414,-0.7205633,-0.7135911,-0.7145697,-0.7145697,-0.7065884,-0.69362265,-0.6836537,-0.67964774,-0.6756724,-0.666682,-0.6537162,-0.6437167,-0.6407199,-0.6357354,-0.6247573,-0.60879475,-0.5968075,-0.5878477,-0.5778482,-0.5608764,-0.5409385,-0.5229577,-0.5119796,-0.49800467,-0.47705764,-0.45210463,-0.43314528,-0.42516398,-0.42017955,-0.41418594,-0.40620464,-0.40320784,-0.40718317,-0.41018003,-0.40920144,-0.40920144,-0.42216724,-0.450117,-0.48402983,-0.5179732,-0.5519166,-0.5908139,-0.6347263,-0.67665094,-0.7095852,-0.7355473,-0.7594912,-0.7854533,-0.8064003,-0.8163693,-0.8163693,-0.81539077,-0.8173784,-0.81838757,-0.8133725,-0.80441266,-0.7993976,-0.79841906,-0.7974099,-0.7884195,-0.7734661,-0.7634971,-0.7614789,-0.7614789,-0.75548524,-0.7455163,-0.737535,-0.7355473,-0.7345382,-0.7285446,-0.7175665,-0.71059436,-0.7095852,-0.71059436,-0.70560986,-0.6986071,-0.69362265,-0.6956103,-0.69661945,-0.6926135,-0.6836537,-0.67964774,-0.68564135,-0.69163495,-0.69163495,-0.68564135,-0.6816354,-0.6846322,-0.68863815,-0.68863815,-0.6836537,-0.6816354,-0.6866505,-0.69163495,-0.6896167,-0.6846322,-0.6806569,-0.6846322,-0.68863815,-0.68863815,-0.6836537,-0.6816354,-0.6846322,-0.6896167,-0.687629,-0.6836537,-0.6816354,-0.6866505,-0.69163495,-0.69062585,-0.6846322,-0.6816354,-0.68564135,-0.6896167,-0.6896167,-0.68564135,-0.6816354,-0.68264455,-0.67964774,-0.6716665,-0.6626761,-0.6596793,-0.666682,-0.6746633,-0.6756724,-0.6696788,-0.666682,-0.67065734,-0.6726756,-0.6696788,-0.6616975,-0.6546948,-0.651698,-0.6457044,-0.6367445,-0.626745,-0.6227696,-0.6327386,-0.6427381,-0.6457044,-0.6387322,-0.6257664,-0.6137792,-0.5998043,-0.5788573,-0.55589193,-0.5389203,-0.53295726,-0.5379417,-0.545923,-0.5549134,-0.570876,-0.5998043,-0.6367445,-0.67365414,-0.70261306,-0.7245692,-0.7395227,-0.7415409,-0.7335291,-0.7235601,-0.7185756,-0.7235601,-0.7285446,-0.7255478,-0.7175665,-0.7115729,-0.712582,-0.7135911,-0.7095852,-0.70261306,-0.70860666,-0.7435286,-0.7993976,-0.8513218,-0.86526614,-0.79841906,-0.6187637,-0.30339593,0.10380256,0.53592336,0.8752656,0.9910095,0.8482944,0.48002374,-1.5318394e-05,-0.4391389,-0.7325505,-0.8612908,-0.873278,-0.8463068,-0.8373469,-0.8593031,-0.88425606,-0.89523417,-0.89122826,-0.88125926,-0.87725335,-0.87526566,-0.86826295,-0.8552972,-0.8423314,-0.8363378,-0.8303442,-0.8193661,-0.80441266,-0.7914163,-0.78444415,-0.78043824,-0.77245694,-0.762488,-0.75349754,-0.75050074,-0.747504,-0.7405318,-0.7295537,-0.7215724,-0.7195847,-0.7175665,-0.71059436,-0.6986071,-0.69062585,-0.6896167,-0.68863815,-0.6806569,-0.6646943,-0.651698,-0.6447258,-0.6397413,-0.6297418,-0.61478835,-0.60081345,-0.591823,-0.5818541,-0.5658915,-0.5439353,-0.5239668,-0.5110011,-0.49800467,-0.47803622,-0.45409232,-0.43513298,-0.42614257,-0.42216724,-0.41617358,-0.40620464,-0.39822334,-0.39721423,-0.39620507,-0.39421737,-0.39122063,-0.39920187,-0.42017955,-0.4491079,-0.4800545,-0.5110011,-0.5489198,-0.5938107,-0.6397413,-0.67665094,-0.7065884,-0.7345382,-0.7634971,-0.78744096,-0.8004067,-0.80141586,-0.80141586,-0.808388,-0.8163693,-0.8173784,-0.8103757,-0.8023944,-0.79841906,-0.7944131,-0.78643185,-0.7734661,-0.76447564,-0.7614789,-0.75848204,-0.75050074,-0.737535,-0.7285446,-0.7265569,-0.7265569,-0.7215724,-0.7115729,-0.7065884,-0.7095852,-0.712582,-0.71059436,-0.7005948,-0.6926135,-0.69362265,-0.69961625,-0.7005948,-0.69762856,-0.6956103,-0.6986071,-0.70261306,-0.70261306,-0.69762856,-0.69463176,-0.69762856,-0.7016039,-0.6986071,-0.6926135,-0.68863815,-0.6926135,-0.69762856,-0.6986071,-0.69362265,-0.6896167,-0.69163495,-0.6956103,-0.69463176,-0.6926135,-0.69463176,-0.7016039,-0.7075975,-0.7065884,-0.69762856,-0.6926135,-0.69762856,-0.7035916,-0.7046007,-0.69762856,-0.69163495,-0.69362265,-0.6986071,-0.6986071,-0.6956103,-0.6956103,-0.70261306,-0.70860666,-0.7075975,-0.69961625,-0.69362265,-0.69661945,-0.7005948,-0.7005948,-0.69362265,-0.6896167,-0.69463176,-0.7005948,-0.70261306,-0.69463176,-0.6846322,-0.6776601,-0.67065734,-0.6606884,-0.6497103,-0.6437167,-0.64870113,-0.6576916,-0.6616975,-0.6557039,-0.6437167,-0.6337477,-0.6227696,-0.60680705,-0.5858294,-0.56787914,-0.5588888,-0.5598979,-0.5648824,-0.57286364,-0.591823,-0.6257664,-0.66766053,-0.70860666,-0.7395227,-0.7594912,-0.77245694,-0.7744752,-0.76646334,-0.75349754,-0.7455163,-0.7465254,-0.75050074,-0.75050074,-0.7425195,-0.7355473,-0.7355473,-0.7385441,-0.737535,-0.7335291,-0.7395227,-0.76946014,-0.8163693,-0.86028165,-0.86627525,-0.79841906,-0.6257664,-0.32834888,0.050899744,0.45109546,0.7604698,0.8533094,0.69561017,0.32336426,-0.15269941,-0.5768696,-0.8423314,-0.9351406,-0.90819997,-0.848325,-0.8203752,-0.8343501,-0.8642876,-0.8822378,-0.8822378,-0.87425655,-0.86826295,-0.8642876,-0.85728484,-0.84330994,-0.8293656,-0.8203752,-0.8143816,-0.80740947,-0.79841906,-0.79643136,-0.79841906,-0.79643136,-0.78744096,-0.7714784,-0.7575035,-0.75349754,-0.752519,-0.7485131,-0.7395227,-0.7315414,-0.7295537,-0.727566,-0.7205633,-0.7075975,-0.69661945,-0.69463176,-0.69661945,-0.69362265,-0.6816354,-0.67065734,-0.6596793,-0.6497103,-0.6357354,-0.61778516,-0.6038102,-0.5998043,-0.5968075,-0.58882624,-0.570876,-0.5498983,-0.5349449,-0.5199609,-0.5010015,-0.47803622,-0.4580983,-0.4491079,-0.4471202,-0.44311428,-0.43712068,-0.43314528,-0.43513298,-0.44011742,-0.4421357,-0.4391389,-0.4441234,-0.46008593,-0.48402983,-0.5119796,-0.5389203,-0.57286364,-0.61478835,-0.6576916,-0.69463176,-0.7235601,-0.7515099,-0.7794597,-0.80441266,-0.81838757,-0.8213538,-0.8223629,-0.8303442,-0.8353287,-0.8343501,-0.8253597,-0.8173784,-0.8173784,-0.8193661,-0.8143816,-0.8034035,-0.79242545,-0.7884195,-0.78744096,-0.78245646,-0.7714784,-0.76447564,-0.76447564,-0.76646334,-0.762488,-0.747504,-0.7345382,-0.7295537,-0.7285446,-0.7265569,-0.7185756,-0.712582,-0.7135911,-0.7145697,-0.7115729,-0.7035916,-0.69762856,-0.7005948,-0.7075975,-0.7115729,-0.7065884,-0.70261306,-0.7095852,-0.7185756,-0.7235601,-0.7195847,-0.7145697,-0.7135911,-0.7155788,-0.7145697,-0.7075975,-0.70560986,-0.71059436,-0.7205633,-0.7265569,-0.7205633,-0.712582,-0.7095852,-0.7115729,-0.7145697,-0.7145697,-0.7155788,-0.7215724,-0.727566,-0.727566,-0.7215724,-0.7155788,-0.7145697,-0.71658796,-0.71658796,-0.7095852,-0.70560986,-0.7075975,-0.7115729,-0.7095852,-0.69661945,-0.6846322,-0.6816354,-0.6816354,-0.6836537,-0.6816354,-0.6806569,-0.6836537,-0.68564135,-0.67665094,-0.6557039,-0.6347263,-0.6187637,-0.60579795,-0.591823,-0.5768696,-0.57286364,-0.58283263,-0.60280114,-0.6287632,-0.6537162,-0.68564135,-0.7255478,-0.7575035,-0.7714784,-0.7674725,-0.7564944,-0.7515099,-0.752519,-0.75548524,-0.75349754,-0.7515099,-0.752519,-0.75349754,-0.7495222,-0.7385441,-0.7305628,-0.7285446,-0.7325505,-0.7395227,-0.75349754,-0.78643185,-0.8323319,-0.8593031,-0.81539077,-0.6656729,-0.40620464,-0.08383417,0.24948394,0.51996076,0.63172925,0.531948,0.21557105,-0.22456157,-0.6367445,-0.89523417,-0.97305936,-0.9281684,-0.8473159,-0.79343456,-0.7794597,-0.7944131,-0.8173784,-0.833341,-0.8343501,-0.8243506,-0.8133725,-0.80939716,-0.8103757,-0.8064003,-0.79242545,-0.77646285,-0.7654848,-0.7614789,-0.7575035,-0.75050074,-0.7425195,-0.7395227,-0.737535,-0.7305628,-0.71658796,-0.7065884,-0.70560986,-0.70860666,-0.7065884,-0.69661945,-0.6846322,-0.6806569,-0.6806569,-0.6786386,-0.66766053,-0.6576916,-0.651698,-0.6467135,-0.6397413,-0.6277541,-0.6157669,-0.60980386,-0.60579795,-0.59481984,-0.5758605,-0.55589193,-0.5419171,-0.530939,-0.51898235,-0.49901384,-0.4800545,-0.46507043,-0.45311385,-0.44011742,-0.42516398,-0.41418594,-0.41118908,-0.41317677,-0.41317677,-0.40819234,-0.40620464,-0.41118908,-0.42017955,-0.42913938,-0.43712068,-0.45409232,-0.48305124,-0.5219791,-0.5628947,-0.5978166,-0.6357354,-0.6776601,-0.7205633,-0.7545067,-0.7744752,-0.7884195,-0.8034035,-0.8173784,-0.8263688,-0.8243506,-0.81838757,-0.81539077,-0.8143816,-0.8103757,-0.7993976,-0.78942865,-0.7854533,-0.78444415,-0.78043824,-0.77046925,-0.7594912,-0.75349754,-0.752519,-0.747504,-0.7365259,-0.727566,-0.7255478,-0.7255478,-0.722551,-0.7135911,-0.7046007,-0.7016039,-0.7016039,-0.69961625,-0.6896167,-0.6816354,-0.6806569,-0.68264455,-0.6806569,-0.6716665,-0.6656729,-0.66766053,-0.6726756,-0.6776601,-0.6746633,-0.67065734,-0.67365414,-0.6786386,-0.6816354,-0.6776601,-0.67365414,-0.6756724,-0.68264455,-0.68863815,-0.687629,-0.6866505,-0.6896167,-0.6926135,-0.69163495,-0.6866505,-0.6846322,-0.687629,-0.69362265,-0.6926135,-0.6846322,-0.67665094,-0.6726756,-0.6696788,-0.6636852,-0.6546948,-0.64870113,-0.6527071,-0.6626761,-0.67065734,-0.6686697,-0.6626761,-0.6527071,-0.6407199,-0.6237482,-0.59882575,-0.5768696,-0.5628947,-0.5569011,-0.5578796,-0.5598979,-0.56986684,-0.59481984,-0.6297418,-0.66766053,-0.7005948,-0.7255478,-0.7425195,-0.7515099,-0.7485131,-0.7385441,-0.7315414,-0.7325505,-0.737535,-0.737535,-0.7285446,-0.7205633,-0.7195847,-0.722551,-0.722551,-0.7145697,-0.7075975,-0.712582,-0.737535,-0.7794597,-0.823372,-0.8493036,-0.8143816,-0.67964774,-0.41317677,-0.045915365,0.35229266,0.6896167,0.8482944,0.7774414,0.48302054,0.041909337,-0.40320784,-0.7215724,-0.8672844,-0.87425655,-0.8323319,-0.81239396,-0.8293656,-0.8563063,-0.86927205,-0.86826295,-0.8622999,-0.85728484,-0.8503127,-0.8383255,-0.8273474,-0.8203752,-0.8173784,-0.80939716,-0.7944131,-0.78043824,-0.77245694,-0.77046925,-0.7654848,-0.7545067,-0.7435286,-0.737535,-0.7365259,-0.7335291,-0.7245692,-0.71658796,-0.712582,-0.71059436,-0.70560986,-0.6956103,-0.6866505,-0.6836537,-0.68264455,-0.67665094,-0.6636852,-0.6497103,-0.6437167,-0.641729,-0.6367445,-0.6237482,-0.60879475,-0.59882575,-0.59283215,-0.5818541,-0.56387323,-0.5429262,-0.5239668,-0.5099919,-0.49402934,-0.47305173,-0.45409232,-0.44112659,-0.43314528,-0.42415494,-0.41216773,-0.40219873,-0.40118957,-0.40519553,-0.40718317,-0.40519553,-0.40620464,-0.41816127,-0.44112659,-0.46705812,-0.49201113,-0.5219791,-0.5618856,-0.60680705,-0.6477226,-0.67964774,-0.70860666,-0.737535,-0.7654848,-0.78643185,-0.7944131,-0.7974099,-0.8023944,-0.80740947,-0.808388,-0.8004067,-0.79343456,-0.7914163,-0.7914163,-0.78942865,-0.78043824,-0.7714784,-0.7654848,-0.7634971,-0.7564944,-0.7435286,-0.7305628,-0.727566,-0.7285446,-0.7265569,-0.7185756,-0.7095852,-0.70560986,-0.7046007,-0.69961625,-0.68863815,-0.6786386,-0.6756724,-0.6786386,-0.6806569,-0.67665094,-0.6716665,-0.6716665,-0.6746633,-0.6746633,-0.66766053,-0.6616975,-0.6636852,-0.6696788,-0.6716665,-0.666682,-0.6606884,-0.6616975,-0.666682,-0.6696788,-0.6656729,-0.6626761,-0.666682,-0.6746633,-0.6786386,-0.67365414,-0.666682,-0.6656729,-0.67065734,-0.6746633,-0.6726756,-0.6696788,-0.6716665,-0.6756724,-0.67665094,-0.6696788,-0.6656729,-0.66766053,-0.67365414,-0.6756724,-0.6686697,-0.6606884,-0.6587007,-0.6587007,-0.6546948,-0.6427381,-0.6297418,-0.6247573,-0.626745,-0.63176,-0.6327386,-0.6337477,-0.6367445,-0.6347263,-0.6217605,-0.5978166,-0.5718546,-0.5509075,-0.5419171,-0.5349449,-0.530939,-0.5339358,-0.5439353,-0.5628947,-0.5858294,-0.6137792,-0.651698,-0.69463176,-0.7305628,-0.7485131,-0.7445072,-0.7325505,-0.7235601,-0.7245692,-0.727566,-0.7245692,-0.7195847,-0.7175665,-0.7175665,-0.7145697,-0.7065884,-0.7005948,-0.7016039,-0.71059436,-0.7295537,-0.7614789,-0.8064003,-0.8503127,-0.8443191,-0.7395227,-0.49702615,-0.13374007,0.28443646,0.6816354,0.9371282,0.9570967,0.7255478,0.29440546,-0.19361502,-0.5778482,-0.7884195,-0.8503127,-0.8413223,-0.8303442,-0.8413223,-0.858294,-0.873278,-0.8822378,-0.88624376,-0.8822378,-0.86826295,-0.8523004,-0.8443191,-0.8393346,-0.8323319,-0.81838757,-0.8034035,-0.7944131,-0.7914163,-0.78643185,-0.77646285,-0.76447564,-0.7575035,-0.7545067,-0.7495222,-0.7385441,-0.727566,-0.7235601,-0.7245692,-0.722551,-0.712582,-0.7016039,-0.6956103,-0.69463176,-0.69163495,-0.6806569,-0.66766053,-0.6616975,-0.6616975,-0.6587007,-0.6467135,-0.63176,-0.6197728,-0.61179155,-0.59882575,-0.5778482,-0.55589193,-0.5389203,-0.5269636,-0.5139673,-0.49302024,-0.47305173,-0.4580983,-0.450117,-0.4391389,-0.42216724,-0.40718317,-0.40219873,-0.40519553,-0.40920144,-0.40519553,-0.40118957,-0.40219873,-0.41216773,-0.42816085,-0.4441234,-0.46507043,-0.49702615,-0.5379417,-0.5788573,-0.6157669,-0.6507194,-0.68564135,-0.7205633,-0.747504,-0.762488,-0.77245694,-0.78343505,-0.79643136,-0.8034035,-0.8004067,-0.79542226,-0.7914163,-0.79242545,-0.78942865,-0.77744144,-0.76447564,-0.75848204,-0.7575035,-0.7545067,-0.7445072,-0.7335291,-0.727566,-0.7255478,-0.7215724,-0.7115729,-0.7035916,-0.7005948,-0.70261306,-0.7005948,-0.6926135,-0.68564135,-0.68564135,-0.69163495,-0.6926135,-0.6846322,-0.67365414,-0.6696788,-0.67365414,-0.67665094,-0.6746633,-0.67065734,-0.6696788,-0.6746633,-0.6786386,-0.6756724,-0.67365414,-0.6756724,-0.6816354,-0.6836537,-0.67964774,-0.6756724,-0.67665094,-0.6836537,-0.68863815,-0.68564135,-0.68264455,-0.6846322,-0.69163495,-0.69661945,-0.69362265,-0.68863815,-0.6866505,-0.68863815,-0.6896167,-0.68564135,-0.6816354,-0.6836537,-0.69062585,-0.69463176,-0.69062585,-0.6836537,-0.6806569,-0.68264455,-0.68564135,-0.68264455,-0.6786386,-0.6776601,-0.6746633,-0.666682,-0.6527071,-0.6387322,-0.6327386,-0.6387322,-0.6427381,-0.6407199,-0.6337477,-0.6257664,-0.61778516,-0.60280114,-0.5768696,-0.5509075,-0.53295726,-0.530939,-0.5409385,-0.5539043,-0.5688577,-0.5908139,-0.6227696,-0.6616975,-0.69762856,-0.7285446,-0.7495222,-0.762488,-0.7614789,-0.7495222,-0.7385441,-0.7365259,-0.7405318,-0.7425195,-0.7345382,-0.7235601,-0.7185756,-0.7215724,-0.7255478,-0.722551,-0.7185756,-0.722551,-0.7465254,-0.78744096,-0.8313533,-0.85428804,-0.81239396,-0.666682,-0.3872453,-0.007996559,0.40317714,0.7425194,0.8822378,0.77845037,0.44510186,-0.02395922,-0.47507,-0.78043824,-0.90520316,-0.89621276,-0.84330994,-0.8193661,-0.8393346,-0.873278,-0.89223737,-0.89321595,-0.88624376,-0.87826246,-0.86927205,-0.8552972,-0.8393346,-0.8303442,-0.8273474,-0.8223629,-0.8133725,-0.8034035,-0.7974099,-0.79841906,-0.7944131,-0.78144735,-0.76646334,-0.75848204,-0.75848204,-0.75848204,-0.75050074,-0.7395227,-0.7305628,-0.727566,-0.7255478,-0.7155788,-0.7046007,-0.6956103,-0.6926135,-0.687629,-0.67665094,-0.6656729,-0.6576916,-0.6546948,-0.6477226,-0.6337477,-0.6157669,-0.6038102,-0.5978166,-0.58882624,-0.5718546,-0.5519166,-0.5349449,-0.5239668,-0.5119796,-0.49500793,-0.47705764,-0.46409184,-0.45907682,-0.45210463,-0.44011742,-0.42913938,-0.42516398,-0.43014848,-0.43513298,-0.43712068,-0.44112659,-0.45409232,-0.47705764,-0.49901384,-0.5169641,-0.5389203,-0.56986684,-0.61179155,-0.6546948,-0.6896167,-0.7205633,-0.7495222,-0.77845055,-0.8004067,-0.8113848,-0.8173784,-0.823372,-0.8313533,-0.8363378,-0.833341,-0.8263688,-0.8223629,-0.8213538,-0.8133725,-0.8004067,-0.7884195,-0.78043824,-0.7794597,-0.77744144,-0.76946014,-0.75848204,-0.75349754,-0.7515099,-0.7465254,-0.7325505,-0.7155788,-0.7065884,-0.7075975,-0.71059436,-0.7095852,-0.7065884,-0.7046007,-0.7046007,-0.7035916,-0.6956103,-0.6866505,-0.68564135,-0.69463176,-0.7016039,-0.69961625,-0.69362265,-0.6866505,-0.6866505,-0.68863815,-0.68863815,-0.69062585,-0.69362265,-0.7016039,-0.7016039,-0.6956103,-0.687629,-0.68564135,-0.69163495,-0.69661945,-0.69661945,-0.69163495,-0.69062585,-0.69463176,-0.6986071,-0.69762856,-0.69463176,-0.69661945,-0.7035916,-0.7075975,-0.7035916,-0.69661945,-0.6926135,-0.69362265,-0.69062585,-0.6786386,-0.6646943,-0.6566825,-0.6566825,-0.6616975,-0.6636852,-0.6636852,-0.666682,-0.666682,-0.6576916,-0.6387322,-0.6137792,-0.59283215,-0.58283263,-0.5758605,-0.5688577,-0.5658915,-0.5688577,-0.5818541,-0.6038102,-0.6307509,-0.666682,-0.70560986,-0.7395227,-0.75548524,-0.7515099,-0.7425195,-0.7355473,-0.7355473,-0.7365259,-0.7305628,-0.7235601,-0.7245692,-0.7315414,-0.7335291,-0.7265569,-0.7155788,-0.7115729,-0.7155788,-0.7285446,-0.7485131,-0.78144735,-0.8203752,-0.833341,-0.7674725,-0.58882624,-0.30140823,0.03692484,0.36525834,0.59781647,0.64769197,0.48204195,0.12074363,-0.32935804,-0.70860666,-0.9151721,-0.9471278,-0.88125926,-0.8103757,-0.77845055,-0.78144735,-0.8004067,-0.8203752,-0.833341,-0.8343501,-0.823372,-0.8064003,-0.7944131,-0.79043776,-0.7854533,-0.77646285,-0.76646334,-0.762488,-0.7654848,-0.7674725,-0.7605003,-0.747504,-0.737535,-0.7335291,-0.7305628,-0.7215724,-0.712582,-0.7075975,-0.7095852,-0.7095852,-0.7035916,-0.69163495,-0.6846322,-0.68264455,-0.6786386,-0.66766053,-0.6537162,-0.6437167,-0.6407199,-0.6377231,-0.6297418,-0.6187637,-0.61179155,-0.60879475,-0.59882575,-0.5798358,-0.55589193,-0.5349449,-0.5239668,-0.5119796,-0.49302024,-0.4720732,-0.45608002,-0.4491079,-0.4421357,-0.43314528,-0.42314577,-0.41718274,-0.41816127,-0.41917044,-0.41718274,-0.41418594,-0.41917044,-0.4311576,-0.44510192,-0.45608002,-0.4690764,-0.49402934,-0.5339358,-0.5798358,-0.6197728,-0.6557039,-0.6896167,-0.7235601,-0.75050074,-0.7674725,-0.77744144,-0.78744096,-0.80141586,-0.8113848,-0.8103757,-0.80441266,-0.7993976,-0.80141586,-0.8023944,-0.79841906,-0.7914163,-0.7854533,-0.78144735,-0.7744752,-0.7605003,-0.7435286,-0.7325505,-0.7295537,-0.7265569,-0.7185756,-0.7075975,-0.7016039,-0.70261306,-0.7016039,-0.69463176,-0.6846322,-0.6776601,-0.67665094,-0.6756724,-0.6686697,-0.6606884,-0.6576916,-0.6606884,-0.6626761,-0.6587007,-0.651698,-0.6507194,-0.6566825,-0.6606884,-0.6566825,-0.6497103,-0.64870113,-0.6557039,-0.6626761,-0.6626761,-0.6566825,-0.6546948,-0.6587007,-0.6636852,-0.6656729,-0.6636852,-0.6616975,-0.6646943,-0.666682,-0.6636852,-0.6587007,-0.6566825,-0.6566825,-0.6527071,-0.6437167,-0.6347263,-0.63176,-0.641729,-0.651698,-0.6537162,-0.6467135,-0.6357354,-0.6257664,-0.61179155,-0.5858294,-0.55589193,-0.53295726,-0.5249454,-0.530939,-0.5399294,-0.5489198,-0.56387323,-0.59283215,-0.6307509,-0.6696788,-0.7005948,-0.7205633,-0.7325505,-0.7325505,-0.722551,-0.7135911,-0.7115729,-0.71658796,-0.7175665,-0.7115729,-0.70261306,-0.69762856,-0.69961625,-0.7005948,-0.69463176,-0.68564135,-0.6846322,-0.7046007,-0.7425195,-0.78942865,-0.8253597,-0.8143816,-0.7205633,-0.5029892,-0.16967112,0.22055554,0.58781695,0.8163692,0.8243505,0.60280097,0.20058703,-0.25749588,-0.6287632,-0.8343501,-0.8822378,-0.8453282,-0.8064003,-0.8034035,-0.8253597,-0.8443191,-0.8493036,-0.8443191,-0.8373469,-0.8273474,-0.8113848,-0.79542226,-0.7854533,-0.78444415,-0.78144735,-0.7744752,-0.762488,-0.752519,-0.7495222,-0.7465254,-0.7365259,-0.7235601,-0.7155788,-0.7135911,-0.7115729,-0.7046007,-0.69463176,-0.69062585,-0.6926135,-0.69163495,-0.6846322,-0.6716665,-0.6626761,-0.6596793,-0.6566825,-0.64870113,-0.6357354,-0.6257664,-0.6227696,-0.61778516,-0.60579795,-0.5898354,-0.5768696,-0.56787914,-0.5598979,-0.5449139,-0.5249454,-0.505986,-0.49302024,-0.47803622,-0.4580983,-0.43712068,-0.42216724,-0.41718274,-0.41216773,-0.40320784,-0.39122063,-0.38522702,-0.38822383,-0.39620507,-0.39920187,-0.39920187,-0.40620464,-0.42516398,-0.450117,-0.47604853,-0.5029892,-0.5359235,-0.5788573,-0.6227696,-0.6596793,-0.687629,-0.7145697,-0.7425195,-0.76646334,-0.7794597,-0.78343505,-0.78643185,-0.79242545,-0.7944131,-0.78942865,-0.7794597,-0.7744752,-0.77646285,-0.77646285,-0.76946014,-0.7575035,-0.7485131,-0.747504,-0.7455163,-0.7365259,-0.722551,-0.7135911,-0.712582,-0.712582,-0.70560986,-0.6926135,-0.6836537,-0.68264455,-0.68264455,-0.67964774,-0.6716665,-0.666682,-0.6696788,-0.6716665,-0.6696788,-0.6636852,-0.6616975,-0.6656729,-0.67065734,-0.67065734,-0.6656729,-0.6636852,-0.666682,-0.6686697,-0.6636852,-0.6546948,-0.6497103,-0.6537162,-0.6596793,-0.6606884,-0.6557039,-0.6537162,-0.6587007,-0.6656729,-0.66766053,-0.6646943,-0.6646943,-0.6696788,-0.67365414,-0.6716665,-0.6656729,-0.6656729,-0.6716665,-0.6756724,-0.6726756,-0.6636852,-0.6566825,-0.6576916,-0.6546948,-0.6457044,-0.6337477,-0.6277541,-0.63176,-0.641729,-0.6467135,-0.6437167,-0.6357354,-0.6287632,-0.616776,-0.59882575,-0.5738728,-0.5539043,-0.5449139,-0.5419171,-0.5419171,-0.5439353,-0.5519166,-0.5738728,-0.60579795,-0.6437167,-0.6816354,-0.7155788,-0.7405318,-0.7495222,-0.7415409,-0.727566,-0.7185756,-0.7215724,-0.7255478,-0.7235601,-0.7135911,-0.70560986,-0.7035916,-0.7046007,-0.70261306,-0.6956103,-0.69163495,-0.6986071,-0.7215724,-0.7614789,-0.80740947,-0.8403437,-0.8133725,-0.6806569,-0.40418637,-0.013990223,0.41816115,0.7924254,0.9810405,0.9221443,0.6227695,0.16165924,-0.30938947,-0.651698,-0.8193661,-0.8523004,-0.8313533,-0.8263688,-0.8463068,-0.87125975,-0.88324696,-0.8852346,-0.8852346,-0.88025016,-0.8672844,-0.8493036,-0.8353287,-0.8293656,-0.8263688,-0.8193661,-0.80740947,-0.79643136,-0.78942865,-0.78343505,-0.77245694,-0.75848204,-0.7515099,-0.752519,-0.7545067,-0.7495222,-0.7365259,-0.7255478,-0.7215724,-0.7195847,-0.712582,-0.7005948,-0.6926135,-0.6926135,-0.6926135,-0.68564135,-0.6716665,-0.6587007,-0.651698,-0.6437167,-0.63176,-0.61478835,-0.60280114,-0.5968075,-0.5898354,-0.5738728,-0.5509075,-0.5299604,-0.5149764,-0.50201064,-0.48503894,-0.4630828,-0.4441234,-0.43314528,-0.42314577,-0.41118908,-0.39920187,-0.39122063,-0.39122063,-0.39320832,-0.39021146,-0.38424844,-0.38623613,-0.40021104,-0.42115808,-0.44510192,-0.4690764,-0.5010015,-0.5449139,-0.5898354,-0.6297418,-0.6616975,-0.6926135,-0.7265569,-0.7575035,-0.77744144,-0.78643185,-0.7914163,-0.79841906,-0.80141586,-0.7993976,-0.79043776,-0.7854533,-0.78942865,-0.79242545,-0.7884195,-0.77744144,-0.7684816,-0.76447564,-0.7634971,-0.7564944,-0.7405318,-0.7285446,-0.722551,-0.7205633,-0.71658796,-0.7065884,-0.69762856,-0.69463176,-0.6926135,-0.69062585,-0.68564135,-0.68564135,-0.69163495,-0.6986071,-0.6986071,-0.69362265,-0.69163495,-0.69661945,-0.7035916,-0.70560986,-0.70261306,-0.7035916,-0.71059436,-0.7175665,-0.7185756,-0.71059436,-0.7046007,-0.70261306,-0.7016039,-0.69463176,-0.6836537,-0.6786386,-0.6846322,-0.6926135,-0.69463176,-0.69062585,-0.687629,-0.6926135,-0.69961625,-0.7005948,-0.69661945,-0.69463176,-0.69961625,-0.7046007,-0.7016039,-0.69362265,-0.6866505,-0.687629,-0.69062585,-0.68863815,-0.68264455,-0.6816354,-0.68564135,-0.69062585,-0.687629,-0.6756724,-0.6626761,-0.6557039,-0.651698,-0.6447258,-0.6377231,-0.6377231,-0.6477226,-0.6537162,-0.6477226,-0.6277541,-0.60680705,-0.591823,-0.5758605,-0.5569011,-0.5349449,-0.5229577,-0.5289513,-0.5469016,-0.5648824,-0.58283263,-0.6107824,-0.6537162,-0.6986071,-0.7315414,-0.7455163,-0.7485131,-0.75050074,-0.7495222,-0.7445072,-0.737535,-0.7325505,-0.7365259,-0.7405318,-0.7385441,-0.7305628,-0.722551,-0.7215724,-0.7215724,-0.71658796,-0.7145697,-0.7335291,-0.7794597,-0.8353287,-0.86627525,-0.8213538,-0.6726756,-0.39822334,-0.028943658,0.37923336,0.73551667,0.9031848,0.8183569,0.49201095,0.02395916,-0.42614257,-0.7365259,-0.87826246,-0.89021915,-0.8523004,-0.823372,-0.8283565,-0.8563063,-0.8822378,-0.89223737,-0.88324696,-0.86826295,-0.85728484,-0.848325,-0.8393346,-0.8273474,-0.81838757,-0.81539077,-0.8113848,-0.80441266,-0.79242545,-0.78343505,-0.78144735,-0.77845055,-0.77046925,-0.75848204,-0.7495222,-0.7495222,-0.75050074,-0.7445072,-0.7295537,-0.71658796,-0.71059436,-0.7065884,-0.70261306,-0.6926135,-0.68264455,-0.6786386,-0.6746633,-0.6656729,-0.6537162,-0.6437167,-0.6407199,-0.6357354,-0.6227696,-0.60280114,-0.58283263,-0.57286364,-0.5658915,-0.5528952,-0.5319481,-0.5099919,-0.49302024,-0.47904533,-0.46607953,-0.450117,-0.4391389,-0.43513298,-0.43314528,-0.42715168,-0.41718274,-0.41216773,-0.41317677,-0.41816127,-0.42115808,-0.42314577,-0.4361421,-0.46507043,-0.50201064,-0.5369326,-0.5658915,-0.5968075,-0.6357354,-0.6776601,-0.7155788,-0.7415409,-0.76447564,-0.7884195,-0.808388,-0.8203752,-0.8203752,-0.8203752,-0.823372,-0.8253597,-0.8223629,-0.8133725,-0.8053912,-0.80141586,-0.7993976,-0.79242545,-0.78043824,-0.77046925,-0.7654848,-0.7605003,-0.7515099,-0.7365259,-0.7265569,-0.7255478,-0.7265569,-0.722551,-0.7135911,-0.7065884,-0.7065884,-0.7095852,-0.7115729,-0.7065884,-0.7035916,-0.7065884,-0.7095852,-0.7065884,-0.69762856,-0.69062585,-0.69163495,-0.6956103,-0.6956103,-0.69163495,-0.6896167,-0.69463176,-0.7016039,-0.7035916,-0.69961625,-0.69661945,-0.69961625,-0.7046007,-0.70560986,-0.7005948,-0.69661945,-0.6986071,-0.70261306,-0.7035916,-0.69961625,-0.69762856,-0.7005948,-0.70261306,-0.6956103,-0.6786386,-0.6646943,-0.6596793,-0.6606884,-0.6626761,-0.6636852,-0.666682,-0.6726756,-0.6696788,-0.6546948,-0.626745,-0.5968075,-0.5768696,-0.5648824,-0.5569011,-0.5528952,-0.5598979,-0.58084494,-0.6107824,-0.6467135,-0.6836537,-0.7215724,-0.75548524,-0.77545375,-0.77646285,-0.7654848,-0.75349754,-0.7515099,-0.75548524,-0.7564944,-0.7515099,-0.747504,-0.7485131,-0.7495222,-0.7465254,-0.7365259,-0.7295537,-0.7305628,-0.737535,-0.7575035,-0.79043776,-0.8363378,-0.873278,-0.8493036,-0.7215724,-0.4580983,-0.09083688,0.31437385,0.6786386,0.87823176,0.83731616,0.54491365,0.074843645,-0.40819234,-0.752519,-0.9062123,-0.9161812,-0.8702812,-0.8383255,-0.8383255,-0.85428804,-0.87226886,-0.8852346,-0.88924056,-0.8822378,-0.86526614,-0.8503127,-0.8423314,-0.8363378,-0.8253597,-0.80939716,-0.7974099,-0.79242545,-0.79242545,-0.78744096,-0.77646285,-0.76646334,-0.762488,-0.762488,-0.7594912,-0.7495222,-0.737535,-0.7315414,-0.727566,-0.7235601,-0.7155788,-0.71059436,-0.7095852,-0.7075975,-0.6986071,-0.6806569,-0.6656729,-0.6576916,-0.6537162,-0.6457044,-0.6327386,-0.6197728,-0.61179155,-0.60579795,-0.591823,-0.5718546,-0.5519166,-0.5369326,-0.5259545,-0.5099919,-0.48702657,-0.46607953,-0.45210463,-0.44311428,-0.43412387,-0.42415494,-0.41816127,-0.41617358,-0.41617358,-0.41216773,-0.40320784,-0.39721423,-0.40219873,-0.41516447,-0.4311576,-0.45109558,-0.47904533,-0.51898235,-0.56387323,-0.60579795,-0.641729,-0.6756724,-0.71059436,-0.7435286,-0.76646334,-0.7794597,-0.78942865,-0.80141586,-0.8113848,-0.81239396,-0.80441266,-0.79643136,-0.79343456,-0.79343456,-0.78942865,-0.7794597,-0.77046925,-0.7674725,-0.7674725,-0.7634971,-0.75349754,-0.7425195,-0.7355473,-0.7295537,-0.7215724,-0.70860666,-0.7005948,-0.69961625,-0.7016039,-0.6986071,-0.68863815,-0.6806569,-0.6806569,-0.6836537,-0.6846322,-0.6806569,-0.6776601,-0.67964774,-0.68264455,-0.6816354,-0.6756724,-0.6716665,-0.6776601,-0.68564135,-0.6896167,-0.6846322,-0.67964774,-0.6806569,-0.6836537,-0.6836537,-0.6786386,-0.6756724,-0.6806569,-0.6866505,-0.6866505,-0.6746633,-0.6616975,-0.6557039,-0.6566825,-0.6557039,-0.64870113,-0.6477226,-0.6537162,-0.6646943,-0.6696788,-0.6587007,-0.6437167,-0.6247573,-0.6038102,-0.5788573,-0.5519166,-0.5389203,-0.5479107,-0.56986684,-0.5978166,-0.6277541,-0.6646943,-0.7115729,-0.7564944,-0.78444415,-0.79043776,-0.78744096,-0.78643185,-0.78643185,-0.78444415,-0.77646285,-0.7684816,-0.76646334,-0.7674725,-0.7634971,-0.75349754,-0.7455163,-0.7445072,-0.7485131,-0.75050074,-0.7485131,-0.75848204,-0.79343456,-0.8453282,-0.88624376,-0.8702812,-0.7594912,-0.5249454,-0.17964005,0.21954644,0.6008134,0.8283565,0.8103757,0.54090786,0.08881855,-0.39421737,-0.7594912,-0.9421128,-0.96208125,-0.8982004,-0.8353287,-0.8193661,-0.8413223,-0.87425655,-0.89122826,-0.88722235,-0.8762442,-0.8702812,-0.86627525,-0.8612908,-0.848325,-0.8373469,-0.8303442,-0.8243506,-0.81239396,-0.79643136,-0.78444415,-0.78444415,-0.7884195,-0.7854533,-0.7714784,-0.7575035,-0.75050074,-0.75050074,-0.752519,-0.7485131,-0.7435286,-0.7425195,-0.7435286,-0.737535,-0.7245692,-0.71059436,-0.7046007,-0.69961625,-0.69362265,-0.6806569,-0.66766053,-0.6616975,-0.6566825,-0.6457044,-0.6297418,-0.61179155,-0.5998043,-0.5908139,-0.5768696,-0.5569011,-0.5379417,-0.5239668,-0.5110011,-0.49402934,-0.47305173,-0.45907682,-0.4551015,-0.45608002,-0.45311385,-0.44611108,-0.44112659,-0.44311428,-0.44809872,-0.45210463,-0.45311385,-0.46409184,-0.49002343,-0.5239668,-0.5608764,-0.59283215,-0.6237482,-0.6636852,-0.7046007,-0.7385441,-0.7614789,-0.7794597,-0.7993976,-0.8163693,-0.8283565,-0.8283565,-0.8253597,-0.8273474,-0.8293656,-0.8283565,-0.8223629,-0.81539077,-0.8143816,-0.8133725,-0.80740947,-0.7944131,-0.78343505,-0.7794597,-0.77744144,-0.77046925,-0.7575035,-0.7455163,-0.7405318,-0.7405318,-0.7385441,-0.7295537,-0.7235601,-0.7245692,-0.727566,-0.727566,-0.7185756,-0.7095852,-0.7075975,-0.70860666,-0.7075975,-0.7005948,-0.6956103,-0.69661945,-0.70261306,-0.7095852,-0.71059436,-0.71059436,-0.7145697,-0.7175665,-0.7155788,-0.7095852,-0.70860666,-0.7135911,-0.7235601,-0.7265569,-0.7195847,-0.71059436,-0.70560986,-0.7046007,-0.6986071,-0.6896167,-0.6836537,-0.69062585,-0.70560986,-0.71658796,-0.7155788,-0.70261306,-0.687629,-0.6726756,-0.6527071,-0.6277541,-0.60579795,-0.59283215,-0.591823,-0.5978166,-0.60680705,-0.626745,-0.6606884,-0.7046007,-0.7465254,-0.7744752,-0.78942865,-0.7974099,-0.80141586,-0.7974099,-0.78444415,-0.7744752,-0.7714784,-0.7734661,-0.7734661,-0.7674725,-0.7614789,-0.7614789,-0.76447564,-0.7634971,-0.7545067,-0.7485131,-0.7495222,-0.7674725,-0.8004067,-0.8373469,-0.86526614,-0.8473159,-0.7425195,-0.52097005,-0.20459312,0.14471805,0.45806754,0.6307509,0.60478866,0.36427987,-0.04392767,-0.48901433,-0.8263688,-0.97706527,-0.9630904,-0.88025016,-0.8133725,-0.8034035,-0.8253597,-0.8453282,-0.8533095,-0.8503127,-0.8423314,-0.8313533,-0.8173784,-0.8064003,-0.8004067,-0.7993976,-0.7944131,-0.78343505,-0.77245694,-0.7674725,-0.7674725,-0.76447564,-0.75548524,-0.7455163,-0.7415409,-0.7395227,-0.7335291,-0.7205633,-0.70860666,-0.7035916,-0.7035916,-0.7016039,-0.69362265,-0.687629,-0.6866505,-0.6866505,-0.6806569,-0.666682,-0.6537162,-0.6467135,-0.6437167,-0.6357354,-0.6187637,-0.60280114,-0.59283215,-0.5878477,-0.5788573,-0.5608764,-0.5409385,-0.5249454,-0.5129887,-0.49702615,-0.47604853,-0.45907682,-0.4491079,-0.44611108,-0.44112659,-0.42816085,-0.41718274,-0.41418594,-0.41718274,-0.42115808,-0.42017955,-0.42415494,-0.43712068,-0.45907682,-0.48503894,-0.5099919,-0.5409385,-0.5798358,-0.626745,-0.6696788,-0.70261306,-0.7305628,-0.7575035,-0.78144735,-0.7974099,-0.8023944,-0.8053912,-0.8103757,-0.81539077,-0.8163693,-0.80939716,-0.8034035,-0.80141586,-0.8034035,-0.7993976,-0.7854533,-0.7714784,-0.7634971,-0.762488,-0.7605003,-0.752519,-0.7455163,-0.7425195,-0.7415409,-0.7355473,-0.7205633,-0.7075975,-0.7016039,-0.70560986,-0.70560986,-0.69961625,-0.69163495,-0.687629,-0.68863815,-0.68564135,-0.67665094,-0.66766053,-0.666682,-0.67065734,-0.6726756,-0.6696788,-0.6656729,-0.6686697,-0.6776601,-0.68264455,-0.6786386,-0.67365414,-0.6726756,-0.6756724,-0.6776601,-0.6746633,-0.6716665,-0.6746633,-0.67964774,-0.6806569,-0.6726756,-0.6636852,-0.6587007,-0.6576916,-0.6546948,-0.6447258,-0.6387322,-0.6427381,-0.6546948,-0.6646943,-0.6616975,-0.6507194,-0.6377231,-0.6227696,-0.60081345,-0.5738728,-0.5509075,-0.5419171,-0.5498983,-0.5618856,-0.5718546,-0.5858294,-0.6137792,-0.6557039,-0.6986071,-0.7265569,-0.7405318,-0.7445072,-0.7455163,-0.7405318,-0.7345382,-0.7305628,-0.7335291,-0.7395227,-0.7395227,-0.7315414,-0.722551,-0.7185756,-0.7195847,-0.7175665,-0.71059436,-0.7046007,-0.712582,-0.7415409,-0.78744096,-0.8343501,-0.86327845,-0.8303442,-0.6956103,-0.42415494,-0.04392767,0.37623656,0.7365258,0.9101876,0.8413222,0.5429261,0.095790744,-0.354311,-0.6816354,-0.8423314,-0.86927205,-0.84330994,-0.8313533,-0.8473159,-0.8702812,-0.88125926,-0.879241,-0.87226886,-0.86526614,-0.8552972,-0.8413223,-0.8293656,-0.823372,-0.8213538,-0.8133725,-0.7993976,-0.7854533,-0.7794597,-0.77845055,-0.7744752,-0.7614789,-0.7495222,-0.7425195,-0.7435286,-0.7405318,-0.7295537,-0.7195847,-0.7135911,-0.7135911,-0.7115729,-0.70261306,-0.6926135,-0.68863815,-0.6866505,-0.67964774,-0.6646943,-0.64870113,-0.6407199,-0.6387322,-0.6347263,-0.6227696,-0.60879475,-0.59882575,-0.59283215,-0.58084494,-0.5588888,-0.5349449,-0.5169641,-0.5050074,-0.49302024,-0.47507,-0.4580983,-0.4471202,-0.44311428,-0.4361421,-0.42216724,-0.41018003,-0.40620464,-0.41018003,-0.41418594,-0.41216773,-0.41317677,-0.42415494,-0.4471202,-0.47507,-0.50399834,-0.5369326,-0.5788573,-0.6257664,-0.666682,-0.6956103,-0.7185756,-0.7405318,-0.7634971,-0.78043824,-0.78643185,-0.7884195,-0.79343456,-0.7993976,-0.8004067,-0.7914163,-0.78144735,-0.7744752,-0.77245694,-0.7674725,-0.75548524,-0.7435286,-0.737535,-0.737535,-0.7345382,-0.7235601,-0.7115729,-0.70560986,-0.7035916,-0.7016039,-0.69463176,-0.687629,-0.68564135,-0.68863815,-0.6896167,-0.6816354,-0.67365414,-0.67065734,-0.6746633,-0.6786386,-0.6756724,-0.6726756,-0.67365414,-0.6786386,-0.6816354,-0.6776601,-0.67365414,-0.6756724,-0.68264455,-0.68564135,-0.6806569,-0.67365414,-0.6726756,-0.6776601,-0.6806569,-0.6776601,-0.67365414,-0.67365414,-0.67964774,-0.68264455,-0.67665094,-0.6686697,-0.666682,-0.67065734,-0.67365414,-0.6716665,-0.67065734,-0.67365414,-0.6816354,-0.6846322,-0.6776601,-0.67065734,-0.666682,-0.6646943,-0.6587007,-0.6457044,-0.6327386,-0.6277541,-0.6357354,-0.6457044,-0.6477226,-0.6427381,-0.63176,-0.61778516,-0.5978166,-0.5688577,-0.5429262,-0.5279422,-0.5269636,-0.5349449,-0.5429262,-0.5539043,-0.5738728,-0.60579795,-0.6467135,-0.6846322,-0.71658796,-0.7405318,-0.7545067,-0.7545067,-0.7435286,-0.7345382,-0.7345382,-0.7395227,-0.7415409,-0.7325505,-0.7195847,-0.7135911,-0.7155788,-0.7175665,-0.7115729,-0.7046007,-0.7046007,-0.7145697,-0.7395227,-0.7794597,-0.8283565,-0.8612908,-0.8313533,-0.68863815,-0.39920187,-0.002003014,0.43314517,0.8073789,0.990031,0.9221443,0.60778546,0.13471854,-0.33532107,-0.666682,-0.823372,-0.8533095,-0.8383255,-0.8393346,-0.86028165,-0.88125926,-0.89223737,-0.89321595,-0.89122826,-0.88125926,-0.8642876,-0.848325,-0.8383255,-0.8353287,-0.8303442,-0.81838757,-0.8053912,-0.7974099,-0.79542226,-0.7914163,-0.7794597,-0.76646334,-0.75848204,-0.75548524,-0.75349754,-0.7455163,-0.737535,-0.7335291,-0.7335291,-0.7295537,-0.7185756,-0.7046007,-0.69463176,-0.69062585,-0.68564135,-0.6756724,-0.666682,-0.6596793,-0.6576916,-0.6507194,-0.6367445,-0.6227696,-0.6107824,-0.60280114,-0.591823,-0.5738728,-0.5539043,-0.5389203,-0.5279422,-0.5149764,-0.49402934,-0.4740609,-0.4610951,-0.45210463,-0.4421357,-0.42715168,-0.41216773,-0.40620464,-0.41018003,-0.41516447,-0.41317677,-0.41018003,-0.41418594,-0.42715168,-0.44611108,-0.46507043,-0.49103254,-0.5269636,-0.57286364,-0.6187637,-0.6537162,-0.6836537,-0.712582,-0.7455163,-0.7714784,-0.78744096,-0.79643136,-0.8023944,-0.80939716,-0.8103757,-0.8023944,-0.79343456,-0.7884195,-0.7884195,-0.78643185,-0.77646285,-0.76447564,-0.7564944,-0.75548524,-0.752519,-0.7445072,-0.7355473,-0.7315414,-0.7335291,-0.7355473,-0.7305628,-0.7215724,-0.71658796,-0.71658796,-0.712582,-0.7046007,-0.69961625,-0.7005948,-0.71059436,-0.7155788,-0.712582,-0.7046007,-0.70261306,-0.7075975,-0.712582,-0.71059436,-0.7065884,-0.70560986,-0.71059436,-0.712582,-0.70860666,-0.7035916,-0.7035916,-0.70860666,-0.7115729,-0.7035916,-0.69463176,-0.6926135,-0.6986071,-0.7046007,-0.70560986,-0.70261306,-0.7035916,-0.71059436,-0.7135911,-0.71059436,-0.70560986,-0.70560986,-0.712582,-0.71658796,-0.7145697,-0.70860666,-0.7046007,-0.7065884,-0.70860666,-0.7046007,-0.6986071,-0.69762856,-0.7016039,-0.70261306,-0.6956103,-0.6836537,-0.6716665,-0.6656729,-0.6616975,-0.6566825,-0.6557039,-0.6626761,-0.67065734,-0.6726756,-0.6606884,-0.641729,-0.6237482,-0.60680705,-0.58882624,-0.56787914,-0.5539043,-0.5539043,-0.5688577,-0.58683854,-0.6047888,-0.6287632,-0.6646943,-0.7095852,-0.7465254,-0.7654848,-0.7684816,-0.7654848,-0.76447564,-0.7605003,-0.752519,-0.7465254,-0.7455163,-0.7515099,-0.75548524,-0.75050074,-0.7435286,-0.7385441,-0.737535,-0.7345382,-0.727566,-0.727566,-0.752519,-0.80441266,-0.858294,-0.87125975,-0.8023944,-0.6227696,-0.33033657,0.030931234,0.40718305,0.6916044,0.768451,0.60377955,0.22954595,-0.23355204,-0.6337477,-0.87226886,-0.9431219,-0.90220636,-0.8363378,-0.8034035,-0.8163693,-0.8523004,-0.8822378,-0.88624376,-0.87526566,-0.86327845,-0.8563063,-0.8523004,-0.8423314,-0.8283565,-0.8163693,-0.8103757,-0.8034035,-0.7944131,-0.78444415,-0.77744144,-0.77646285,-0.77245694,-0.7634971,-0.75349754,-0.75050074,-0.752519,-0.75050074,-0.7415409,-0.7295537,-0.722551,-0.7215724,-0.7185756,-0.7075975,-0.6956103,-0.687629,-0.6866505,-0.6836537,-0.6716665,-0.6557039,-0.6437167,-0.6397413,-0.6357354,-0.6247573,-0.6077856,-0.591823,-0.5798358,-0.56986684,-0.5569011,-0.5399294,-0.5239668,-0.5129887,-0.49901384,-0.48103297,-0.46507043,-0.4551015,-0.45311385,-0.45109558,-0.44510192,-0.43812978,-0.43712068,-0.4441234,-0.45311385,-0.4580983,-0.46607953,-0.48503894,-0.5169641,-0.5509075,-0.5798358,-0.60680705,-0.6377231,-0.6786386,-0.7185756,-0.7495222,-0.77046925,-0.79043776,-0.8113848,-0.8263688,-0.8313533,-0.8303442,-0.8293656,-0.8343501,-0.8363378,-0.8293656,-0.8203752,-0.81539077,-0.8163693,-0.8163693,-0.808388,-0.79542226,-0.7854533,-0.78144735,-0.7734661,-0.762488,-0.75349754,-0.7515099,-0.75848204,-0.7605003,-0.752519,-0.7385441,-0.7295537,-0.7295537,-0.7305628,-0.727566,-0.722551,-0.7215724,-0.7265569,-0.727566,-0.7245692,-0.7185756,-0.7135911,-0.7145697,-0.7145697,-0.7095852,-0.70560986,-0.7046007,-0.7115729,-0.71658796,-0.7155788,-0.712582,-0.7145697,-0.7235601,-0.7315414,-0.7305628,-0.7235601,-0.7205633,-0.7235601,-0.7285446,-0.7285446,-0.7235601,-0.7205633,-0.7235601,-0.7255478,-0.7235601,-0.71658796,-0.70860666,-0.70560986,-0.7005948,-0.6926135,-0.6866505,-0.69062585,-0.7016039,-0.70860666,-0.7016039,-0.68564135,-0.6696788,-0.6576916,-0.6427381,-0.62078196,-0.5968075,-0.5838418,-0.58882624,-0.60280114,-0.6197728,-0.6367445,-0.6656729,-0.7046007,-0.7425195,-0.76447564,-0.77046925,-0.7674725,-0.7654848,-0.7614789,-0.75349754,-0.7445072,-0.7415409,-0.7445072,-0.7485131,-0.7435286,-0.7335291,-0.727566,-0.7295537,-0.7315414,-0.727566,-0.7235601,-0.7325505,-0.76447564,-0.80939716,-0.84330994,-0.8293656,-0.737535,-0.5409385,-0.24951458,0.090806246,0.41917026,0.6227695,0.62374806,0.40617394,0.018944025,-0.41317677,-0.75349754,-0.9261502,-0.94012505,-0.86826295,-0.79542226,-0.77245694,-0.7914163,-0.81838757,-0.8303442,-0.8243506,-0.81239396,-0.80441266,-0.79841906,-0.79043776,-0.78245646,-0.77845055,-0.77744144,-0.7714784,-0.7594912,-0.7455163,-0.7395227,-0.7425195,-0.7425195,-0.7335291,-0.7195847,-0.71059436,-0.7135911,-0.71658796,-0.712582,-0.69961625,-0.68863815,-0.6846322,-0.6816354,-0.6746633,-0.6636852,-0.6537162,-0.6497103,-0.6427381,-0.6297418,-0.61478835,-0.6047888,-0.6038102,-0.60280114,-0.5938107,-0.5778482,-0.5618856,-0.5519166,-0.5409385,-0.5249454,-0.5050074,-0.48901433,-0.47904533,-0.4690764,-0.4551015,-0.4391389,-0.42614257,-0.42216724,-0.42017955,-0.41418594,-0.40519553,-0.39920187,-0.40118957,-0.40519553,-0.41018003,-0.41718274,-0.43412387,-0.46409184,-0.49800467,-0.530939,-0.56387323,-0.5998043,-0.6427381,-0.6836537,-0.7155788,-0.7395227,-0.7614789,-0.7854533,-0.8023944,-0.808388,-0.8064003,-0.80441266,-0.8053912,-0.8064003,-0.8004067,-0.79242545,-0.7884195,-0.78942865,-0.7884195,-0.7794597,-0.7654848,-0.7545067,-0.752519,-0.752519,-0.7495222,-0.7405318,-0.7305628,-0.7255478,-0.7175665,-0.7065884,-0.69661945,-0.6926135,-0.6986071,-0.7016039,-0.69661945,-0.6846322,-0.6746633,-0.67365414,-0.6746633,-0.6726756,-0.6686697,-0.666682,-0.67065734,-0.67365414,-0.6696788,-0.6646943,-0.6626761,-0.67065734,-0.6776601,-0.6776601,-0.6746633,-0.6746633,-0.6806569,-0.6846322,-0.6836537,-0.6776601,-0.6746633,-0.67964774,-0.68264455,-0.6806569,-0.67665094,-0.6776601,-0.68564135,-0.69062585,-0.6866505,-0.67365414,-0.6616975,-0.6566825,-0.6537162,-0.6467135,-0.6397413,-0.6407199,-0.6497103,-0.6566825,-0.651698,-0.6337477,-0.6157669,-0.60280114,-0.58683854,-0.56787914,-0.5479107,-0.5399294,-0.5479107,-0.5618856,-0.5738728,-0.58683854,-0.6127701,-0.6546948,-0.69961625,-0.7315414,-0.7445072,-0.7465254,-0.7465254,-0.7435286,-0.7365259,-0.7295537,-0.7265569,-0.7295537,-0.7305628,-0.7235601,-0.7135911,-0.7075975,-0.71059436,-0.7135911,-0.71059436,-0.7075975,-0.7255478,-0.77046925,-0.8263688,-0.8622999,-0.8303442,-0.7016039,-0.4471202,-0.08484322,0.33134556,0.7145697,0.9291469,0.8962126,0.62075126,0.18361533,-0.2714708,-0.616776,-0.80740947,-0.8642876,-0.8513218,-0.8323319,-0.8383255,-0.86327845,-0.8822378,-0.8852346,-0.8762442,-0.86526614,-0.86028165,-0.8533095,-0.8413223,-0.8243506,-0.8113848,-0.80740947,-0.8064003,-0.79841906,-0.78744096,-0.77845055,-0.7744752,-0.77046925,-0.7614789,-0.7485131,-0.7385441,-0.7355473,-0.7345382,-0.7285446,-0.71658796,-0.70860666,-0.70560986,-0.7046007,-0.6986071,-0.68863815,-0.6786386,-0.67365414,-0.6686697,-0.6576916,-0.6437167,-0.6327386,-0.6287632,-0.6247573,-0.6157669,-0.59882575,-0.58084494,-0.5688577,-0.55589193,-0.5389203,-0.51898235,-0.5050074,-0.49601704,-0.48402983,-0.46607953,-0.44311428,-0.42715168,-0.42314577,-0.42216724,-0.41718274,-0.40819234,-0.40418637,-0.40920144,-0.41617358,-0.42017955,-0.42314577,-0.4361421,-0.46409184,-0.50002295,-0.5359235,-0.570876,-0.60879475,-0.651698,-0.6896167,-0.7185756,-0.737535,-0.7545067,-0.7734661,-0.78942865,-0.79542226,-0.79343456,-0.79242545,-0.79643136,-0.7993976,-0.7944131,-0.78343505,-0.7714784,-0.7654848,-0.7605003,-0.7545067,-0.7445072,-0.7385441,-0.7385441,-0.737535,-0.7305628,-0.7195847,-0.7115729,-0.7115729,-0.712582,-0.70860666,-0.6986071,-0.6926135,-0.69362265,-0.69661945,-0.69661945,-0.6926135,-0.69062585,-0.69463176,-0.6956103,-0.69062585,-0.6836537,-0.6806569,-0.687629,-0.69661945,-0.69762856,-0.69163495,-0.68564135,-0.68564135,-0.687629,-0.68564135,-0.6806569,-0.6806569,-0.687629,-0.69362265,-0.6926135,-0.68564135,-0.6806569,-0.6836537,-0.6866505,-0.68564135,-0.67964774,-0.6756724,-0.67964774,-0.6836537,-0.6816354,-0.6756724,-0.67365414,-0.6786386,-0.68564135,-0.6866505,-0.68264455,-0.67964774,-0.6806569,-0.68264455,-0.6776601,-0.66766053,-0.6557039,-0.6497103,-0.6437167,-0.6347263,-0.6277541,-0.6307509,-0.6427381,-0.6507194,-0.6437167,-0.6237482,-0.6038102,-0.58882624,-0.57485133,-0.5578796,-0.5409385,-0.5359235,-0.5498983,-0.5688577,-0.5848509,-0.5998043,-0.6247573,-0.6656729,-0.7095852,-0.7405318,-0.75349754,-0.7545067,-0.75349754,-0.7495222,-0.7425195,-0.7345382,-0.7305628,-0.7345382,-0.737535,-0.7335291,-0.722551,-0.71658796,-0.7195847,-0.7245692,-0.7245692,-0.7235601,-0.7425195,-0.7884195,-0.84330994,-0.87125975,-0.8223629,-0.6626761,-0.37125212,0.01695633,0.44412327,0.8064002,0.965078,0.8612908,0.51797307,0.041909337,-0.40620464,-0.712582,-0.858294,-0.8822378,-0.8593031,-0.8443191,-0.858294,-0.88624376,-0.9091785,-0.9151721,-0.90520316,-0.89223737,-0.88324696,-0.87425655,-0.8612908,-0.8463068,-0.8353287,-0.8323319,-0.8283565,-0.8193661,-0.8053912,-0.7944131,-0.79043776,-0.78643185,-0.77646285,-0.762488,-0.75349754,-0.7515099,-0.75050074,-0.7435286,-0.7315414,-0.7235601,-0.722551,-0.722551,-0.7155788,-0.7005948,-0.68863815,-0.68564135,-0.6846322,-0.6786386,-0.6646943,-0.651698,-0.6437167,-0.6367445,-0.6247573,-0.6077856,-0.591823,-0.58084494,-0.570876,-0.5549134,-0.53295726,-0.5119796,-0.49901384,-0.48803574,-0.4720732,-0.45409232,-0.44011742,-0.43412387,-0.43314528,-0.42816085,-0.41917044,-0.41516447,-0.41718274,-0.42216724,-0.42614257,-0.42913938,-0.4421357,-0.47106403,-0.50800425,-0.5439353,-0.5778482,-0.61478835,-0.6587007,-0.70261306,-0.7365259,-0.75848204,-0.7744752,-0.7914163,-0.8053912,-0.8103757,-0.808388,-0.808388,-0.8113848,-0.8143816,-0.80939716,-0.79643136,-0.78643185,-0.78343505,-0.78144735,-0.7744752,-0.7605003,-0.7485131,-0.7445072,-0.7425195,-0.7365259,-0.7245692,-0.71658796,-0.71658796,-0.7175665,-0.7135911,-0.7046007,-0.69961625,-0.7016039,-0.7075975,-0.7075975,-0.7016039,-0.69762856,-0.7016039,-0.70560986,-0.7065884,-0.7005948,-0.69661945,-0.69961625,-0.7035916,-0.70261306,-0.6956103,-0.69062585,-0.6926135,-0.69661945,-0.6956103,-0.69163495,-0.69062585,-0.69661945,-0.7035916,-0.70560986,-0.6986071,-0.69362265,-0.69661945,-0.7005948,-0.70261306,-0.69762856,-0.69362265,-0.69661945,-0.70261306,-0.7035916,-0.69961625,-0.69661945,-0.6986071,-0.70261306,-0.70261306,-0.69762856,-0.69362265,-0.69661945,-0.7016039,-0.7016039,-0.69463176,-0.68863815,-0.68863815,-0.68863815,-0.687629,-0.6816354,-0.6806569,-0.68564135,-0.69062585,-0.68863815,-0.6816354,-0.67665094,-0.6816354,-0.687629,-0.687629,-0.6776601,-0.66766053,-0.6606884,-0.6566825,-0.6537162,-0.6437167,-0.6397413,-0.6457044,-0.6546948,-0.6557039,-0.6477226,-0.6327386,-0.62078196,-0.60879475,-0.58882624,-0.5658915,-0.5479107,-0.5429262,-0.5509075,-0.5618856,-0.57286364,-0.59283215,-0.6287632,-0.67665094,-0.7205633,-0.7495222,-0.76447564,-0.76946014,-0.7654848,-0.7564944,-0.7455163,-0.7405318,-0.7455163,-0.7515099,-0.75050074,-0.7415409,-0.7335291,-0.7345382,-0.737535,-0.7355473,-0.7295537,-0.7345382,-0.76946014,-0.8253597,-0.87725335,-0.88025016,-0.8004067,-0.6038102,-0.28544563,0.10976553,0.51696396,0.8103757,0.87324727,0.6806263,0.27844274,-0.20358396,-0.6107824,-0.8552972,-0.9331529,-0.9071908,-0.8563063,-0.8373469,-0.85428804,-0.88125926,-0.89722186,-0.89722186,-0.88924056,-0.88324696,-0.8762442,-0.86826295,-0.85428804,-0.84330994,-0.8393346,-0.8343501,-0.8243506,-0.80939716,-0.7974099,-0.7944131,-0.7944131,-0.7914163,-0.78043824,-0.77046925,-0.7654848,-0.76447564,-0.7605003,-0.75050074,-0.7415409,-0.7405318,-0.7405318,-0.737535,-0.7255478,-0.7145697,-0.70860666,-0.7035916,-0.69463176,-0.6786386,-0.666682,-0.6626761,-0.6596793,-0.6527071,-0.6357354,-0.61778516,-0.60680705,-0.5968075,-0.58283263,-0.5628947,-0.5439353,-0.53295726,-0.5249454,-0.5139673,-0.49601704,-0.47904533,-0.4690764,-0.4630828,-0.45708913,-0.44611108,-0.44011742,-0.44112659,-0.4471202,-0.45311385,-0.45708913,-0.4680673,-0.49002343,-0.51898235,-0.5498983,-0.5778482,-0.6107824,-0.6537162,-0.69463176,-0.7295537,-0.7515099,-0.7674725,-0.78643185,-0.8053912,-0.8193661,-0.8243506,-0.8263688,-0.8313533,-0.8353287,-0.8323319,-0.8243506,-0.81838757,-0.8193661,-0.8213538,-0.81539077,-0.8023944,-0.78744096,-0.78343505,-0.78643185,-0.78744096,-0.7794597,-0.76946014,-0.7605003,-0.752519,-0.7435286,-0.7325505,-0.727566,-0.7285446,-0.7315414,-0.7295537,-0.7235601,-0.7175665,-0.7205633,-0.727566,-0.7295537,-0.7265569,-0.7245692,-0.7265569,-0.7265569,-0.722551,-0.7115729,-0.7035916,-0.7065884,-0.7145697,-0.7205633,-0.7215724,-0.7195847,-0.7205633,-0.7215724,-0.7205633,-0.7175665,-0.7205633,-0.7295537,-0.7345382,-0.7325505,-0.7235601,-0.7195847,-0.7245692,-0.7315414,-0.7315414,-0.722551,-0.7185756,-0.7245692,-0.7345382,-0.737535,-0.7325505,-0.7255478,-0.7245692,-0.7295537,-0.7285446,-0.7195847,-0.7115729,-0.712582,-0.7185756,-0.722551,-0.7185756,-0.7145697,-0.71059436,-0.7065884,-0.69762856,-0.68564135,-0.6806569,-0.6866505,-0.6956103,-0.7005948,-0.6956103,-0.6866505,-0.67964774,-0.67065734,-0.6606884,-0.6397413,-0.61778516,-0.60081345,-0.5908139,-0.5838418,-0.58283263,-0.59283215,-0.6157669,-0.6477226,-0.68264455,-0.712582,-0.7395227,-0.762488,-0.77845055,-0.78343505,-0.77646285,-0.76946014,-0.7714784,-0.77646285,-0.77545375,-0.7674725,-0.7605003,-0.7594912,-0.7634971,-0.7654848,-0.75848204,-0.7515099,-0.7485131,-0.7575035,-0.78144735,-0.8173784,-0.85728484,-0.86826295,-0.80441266,-0.6237482,-0.33033657,0.013959527,0.34629905,0.5718545,0.60778546,0.43213606,0.06787145,-0.3762672,-0.747504,-0.9481064,-0.97406846,-0.90520316,-0.8343501,-0.80740947,-0.8203752,-0.8423314,-0.858294,-0.86526614,-0.86627525,-0.8563063,-0.8403437,-0.8293656,-0.823372,-0.8193661,-0.81239396,-0.79841906,-0.78744096,-0.7854533,-0.78744096,-0.78444415,-0.77245694,-0.7594912,-0.7545067,-0.7515099,-0.747504,-0.7365259,-0.727566,-0.7255478,-0.7265569,-0.7235601,-0.7115729,-0.7016039,-0.6986071,-0.69762856,-0.69362265,-0.6806569,-0.66766053,-0.6616975,-0.6606884,-0.6527071,-0.6367445,-0.61778516,-0.60579795,-0.5978166,-0.58882624,-0.57485133,-0.5588888,-0.5469016,-0.5349449,-0.5179732,-0.49500793,-0.47705764,-0.4680673,-0.46607953,-0.46008593,-0.44611108,-0.43314528,-0.42816085,-0.43014848,-0.43014848,-0.42516398,-0.42415494,-0.43412387,-0.45311385,-0.47803622,-0.50201064,-0.530939,-0.56986684,-0.61179155,-0.6507194,-0.6816354,-0.7115729,-0.7425195,-0.7744752,-0.7974099,-0.8053912,-0.808388,-0.8133725,-0.81838757,-0.8203752,-0.8163693,-0.8113848,-0.8103757,-0.808388,-0.8004067,-0.7854533,-0.7734661,-0.77046925,-0.77245694,-0.77245694,-0.7634971,-0.75050074,-0.7425195,-0.7385441,-0.7325505,-0.7205633,-0.71059436,-0.7075975,-0.70860666,-0.70860666,-0.7005948,-0.69463176,-0.69163495,-0.69362265,-0.69163495,-0.6806569,-0.6726756,-0.6726756,-0.67665094,-0.6806569,-0.67665094,-0.6726756,-0.6726756,-0.6776601,-0.6806569,-0.6786386,-0.6776601,-0.6816354,-0.6866505,-0.6846322,-0.67665094,-0.6716665,-0.6756724,-0.68564135,-0.6926135,-0.68863815,-0.68564135,-0.68564135,-0.69163495,-0.69362265,-0.6896167,-0.68564135,-0.68863815,-0.6926135,-0.69463176,-0.687629,-0.6806569,-0.67665094,-0.6746633,-0.666682,-0.6557039,-0.6447258,-0.6437167,-0.651698,-0.6576916,-0.6566825,-0.651698,-0.6457044,-0.6367445,-0.6187637,-0.59283215,-0.5688577,-0.55589193,-0.55589193,-0.5608764,-0.5628947,-0.570876,-0.591823,-0.6257664,-0.6646943,-0.69661945,-0.7175665,-0.7315414,-0.7385441,-0.7365259,-0.7285446,-0.7235601,-0.7265569,-0.7325505,-0.7335291,-0.7265569,-0.7175665,-0.7145697,-0.71658796,-0.7175665,-0.7135911,-0.71059436,-0.7215724,-0.7545067,-0.7993976,-0.8373469,-0.8383255,-0.7634971,-0.5768696,-0.2664863,0.11875594,0.5089828,0.78542256,0.8473158,0.6716664,0.29541445,-0.16566527,-0.56387323,-0.8064003,-0.88823146,-0.8642876,-0.8223629,-0.8133725,-0.8343501,-0.85728484,-0.86627525,-0.86327845,-0.858294,-0.8552972,-0.8473159,-0.8323319,-0.8173784,-0.808388,-0.8023944,-0.7944131,-0.78043824,-0.7674725,-0.7634971,-0.76646334,-0.76447564,-0.752519,-0.7385441,-0.7295537,-0.7265569,-0.7255478,-0.7185756,-0.7115729,-0.7075975,-0.7075975,-0.7035916,-0.6926135,-0.6806569,-0.6726756,-0.67065734,-0.6656729,-0.6557039,-0.6457044,-0.6407199,-0.6367445,-0.6287632,-0.6127701,-0.59882575,-0.5898354,-0.5858294,-0.5738728,-0.5498983,-0.5239668,-0.5050074,-0.49201113,-0.47904533,-0.4580983,-0.43712068,-0.42314577,-0.41816127,-0.41317677,-0.40519553,-0.39721423,-0.39620507,-0.40219873,-0.40718317,-0.40718317,-0.41216773,-0.42913938,-0.4580983,-0.49201113,-0.5249454,-0.5628947,-0.60680705,-0.6537162,-0.69362265,-0.7195847,-0.7415409,-0.76447564,-0.78942865,-0.8064003,-0.81239396,-0.8103757,-0.80939716,-0.808388,-0.80441266,-0.79542226,-0.78744096,-0.7884195,-0.79343456,-0.79343456,-0.78245646,-0.7684816,-0.7575035,-0.752519,-0.7465254,-0.737535,-0.7315414,-0.7305628,-0.7345382,-0.7315414,-0.7195847,-0.7065884,-0.7005948,-0.70261306,-0.7035916,-0.69661945,-0.69062585,-0.68863815,-0.69362265,-0.6956103,-0.69062585,-0.6836537,-0.6816354,-0.6846322,-0.68863815,-0.68564135,-0.6816354,-0.6786386,-0.6786386,-0.6776601,-0.6726756,-0.6716665,-0.67665094,-0.6846322,-0.6866505,-0.67964774,-0.6716665,-0.6716665,-0.67964774,-0.687629,-0.687629,-0.6846322,-0.6836537,-0.68564135,-0.6866505,-0.6816354,-0.67665094,-0.67665094,-0.68264455,-0.6866505,-0.68564135,-0.6846322,-0.6866505,-0.69163495,-0.69163495,-0.6836537,-0.6756724,-0.6756724,-0.67964774,-0.6776601,-0.6626761,-0.6457044,-0.6347263,-0.6337477,-0.6397413,-0.6427381,-0.6447258,-0.64870113,-0.64870113,-0.6387322,-0.6187637,-0.59283215,-0.5718546,-0.5578796,-0.5479107,-0.5419171,-0.5469016,-0.5628947,-0.58683854,-0.6127701,-0.6387322,-0.6726756,-0.7115729,-0.7445072,-0.7594912,-0.752519,-0.737535,-0.7295537,-0.7305628,-0.7315414,-0.727566,-0.722551,-0.7215724,-0.7255478,-0.7255478,-0.7185756,-0.712582,-0.712582,-0.722551,-0.7435286,-0.77744144,-0.823372,-0.86526614,-0.85428804,-0.7415409,-0.48204213,-0.10478115,0.32336426,0.71655715,0.9461187,0.9361191,0.6756419,0.22853684,-0.25449908,-0.6247573,-0.8213538,-0.87425655,-0.8612908,-0.8523004,-0.86327845,-0.8822378,-0.89523417,-0.90220636,-0.90520316,-0.8982004,-0.8822378,-0.86627525,-0.8552972,-0.8503127,-0.8443191,-0.833341,-0.8243506,-0.81838757,-0.8143816,-0.8064003,-0.79043776,-0.7744752,-0.76646334,-0.7654848,-0.76447564,-0.75848204,-0.75050074,-0.7465254,-0.7465254,-0.7405318,-0.727566,-0.7145697,-0.70860666,-0.7095852,-0.70860666,-0.69961625,-0.68863815,-0.6816354,-0.6776601,-0.6716665,-0.6587007,-0.6437167,-0.6297418,-0.6187637,-0.60579795,-0.5878477,-0.56986684,-0.5569011,-0.5469016,-0.530939,-0.5069951,-0.48103297,-0.4630828,-0.4551015,-0.450117,-0.44011742,-0.42816085,-0.41816127,-0.41418594,-0.40819234,-0.40021104,-0.3952266,-0.40021104,-0.41816127,-0.44311428,-0.46705812,-0.49702615,-0.5339358,-0.5798358,-0.6247573,-0.6616975,-0.69463176,-0.727566,-0.7594912,-0.78444415,-0.7974099,-0.8023944,-0.80939716,-0.8173784,-0.8203752,-0.8133725,-0.8064003,-0.8064003,-0.81239396,-0.8133725,-0.8023944,-0.78643185,-0.7734661,-0.7684816,-0.76447564,-0.7564944,-0.7495222,-0.7455163,-0.7455163,-0.7425195,-0.7335291,-0.7245692,-0.7205633,-0.7215724,-0.7195847,-0.71059436,-0.7035916,-0.7016039,-0.7075975,-0.71059436,-0.7046007,-0.69762856,-0.69362265,-0.69661945,-0.69762856,-0.69463176,-0.69062585,-0.69362265,-0.7035916,-0.71059436,-0.70860666,-0.70261306,-0.7005948,-0.7035916,-0.7046007,-0.69961625,-0.69463176,-0.69362265,-0.6986071,-0.7035916,-0.69961625,-0.6926135,-0.6896167,-0.69362265,-0.6986071,-0.69762856,-0.69661945,-0.69762856,-0.7005948,-0.7005948,-0.69661945,-0.69163495,-0.6926135,-0.69762856,-0.69961625,-0.6956103,-0.69062585,-0.6926135,-0.7005948,-0.70261306,-0.69463176,-0.68264455,-0.6756724,-0.67665094,-0.67964774,-0.6786386,-0.6776601,-0.67964774,-0.68564135,-0.687629,-0.6806569,-0.6726756,-0.67065734,-0.6756724,-0.6816354,-0.6806569,-0.67665094,-0.6776601,-0.6816354,-0.6816354,-0.6716665,-0.6576916,-0.64870113,-0.6497103,-0.6497103,-0.6477226,-0.6447258,-0.6447258,-0.6477226,-0.6437167,-0.6277541,-0.60879475,-0.5908139,-0.5768696,-0.5628947,-0.5439353,-0.5319481,-0.5349449,-0.5519166,-0.5738728,-0.5968075,-0.6257664,-0.6656729,-0.71059436,-0.7415409,-0.7515099,-0.7445072,-0.7365259,-0.7365259,-0.7395227,-0.7385441,-0.7345382,-0.7315414,-0.7315414,-0.727566,-0.7185756,-0.71059436,-0.7095852,-0.7175665,-0.7315414,-0.7575035,-0.7993976,-0.8503127,-0.879241,-0.8273474,-0.6507194,-0.33434248,0.07184684,0.50100136,0.8482944,0.9880127,0.8662753,0.50100136,0.0020029545,-0.4551015,-0.7485131,-0.86826295,-0.87725335,-0.8593031,-0.8593031,-0.87725335,-0.89722186,-0.9101876,-0.9151721,-0.91119677,-0.89621276,-0.88025016,-0.8672844,-0.86327845,-0.858294,-0.848325,-0.8343501,-0.8253597,-0.8223629,-0.8173784,-0.80740947,-0.7944131,-0.7854533,-0.78444415,-0.78343505,-0.77845055,-0.76946014,-0.762488,-0.7614789,-0.7575035,-0.7455163,-0.7305628,-0.7195847,-0.7185756,-0.7175665,-0.7115729,-0.7016039,-0.6926135,-0.6866505,-0.67964774,-0.666682,-0.651698,-0.6407199,-0.6347263,-0.6257664,-0.60879475,-0.5878477,-0.570876,-0.5608764,-0.5509075,-0.5349449,-0.5149764,-0.49702615,-0.48402983,-0.47005492,-0.45210463,-0.4361421,-0.43014848,-0.43213618,-0.43412387,-0.43014848,-0.42216724,-0.42017955,-0.42913938,-0.4421357,-0.45608002,-0.4740609,-0.5029892,-0.5449139,-0.5878477,-0.6257664,-0.6587007,-0.69062585,-0.727566,-0.7605003,-0.78343505,-0.79841906,-0.8103757,-0.823372,-0.8323319,-0.8323319,-0.8283565,-0.8253597,-0.8253597,-0.8223629,-0.8103757,-0.7974099,-0.78744096,-0.78744096,-0.7884195,-0.78245646,-0.7714784,-0.7614789,-0.7575035,-0.752519,-0.7465254,-0.7385441,-0.7345382,-0.7355473,-0.7335291,-0.7265569,-0.7175665,-0.7175665,-0.7245692,-0.7285446,-0.7245692,-0.7175665,-0.712582,-0.71658796,-0.7195847,-0.7185756,-0.7145697,-0.7145697,-0.7195847,-0.7235601,-0.7185756,-0.7115729,-0.70560986,-0.7075975,-0.7095852,-0.7075975,-0.70560986,-0.7075975,-0.7145697,-0.7185756,-0.712582,-0.70560986,-0.7016039,-0.70560986,-0.71059436,-0.7095852,-0.70560986,-0.70560986,-0.71059436,-0.7135911,-0.7115729,-0.7075975,-0.70860666,-0.71658796,-0.7205633,-0.7175665,-0.71059436,-0.7065884,-0.7115729,-0.7155788,-0.7115729,-0.70261306,-0.69762856,-0.7005948,-0.7035916,-0.70261306,-0.69961625,-0.69762856,-0.7016039,-0.7016039,-0.69762856,-0.69163495,-0.6896167,-0.69463176,-0.6986071,-0.6956103,-0.68863815,-0.68564135,-0.6896167,-0.6926135,-0.69062585,-0.6846322,-0.68564135,-0.6926135,-0.69661945,-0.69062585,-0.6786386,-0.666682,-0.6606884,-0.6576916,-0.6527071,-0.6457044,-0.6467135,-0.6537162,-0.6576916,-0.651698,-0.6387322,-0.626745,-0.6217605,-0.60879475,-0.58882624,-0.5658915,-0.5519166,-0.55589193,-0.5688577,-0.5838418,-0.5978166,-0.6237482,-0.6616975,-0.7016039,-0.7295537,-0.7445072,-0.7515099,-0.7545067,-0.75349754,-0.747504,-0.7395227,-0.7405318,-0.747504,-0.75050074,-0.7435286,-0.7295537,-0.7195847,-0.7185756,-0.7205633,-0.722551,-0.7365259,-0.77245694,-0.8273474,-0.86826295,-0.84330994,-0.7145697,-0.46705812,-0.13074327,0.23951495,0.56885755,0.7395226,0.6816354,0.38721454,-0.058881104,-0.505986,-0.8173784,-0.9471278,-0.93712825,-0.8642876,-0.80740947,-0.79643136,-0.8193661,-0.85428804,-0.87526566,-0.8762442,-0.8642876,-0.8513218,-0.84330994,-0.8363378,-0.8243506,-0.8103757,-0.8023944,-0.8004067,-0.7993976,-0.79343456,-0.78245646,-0.7734661,-0.7714784,-0.76646334,-0.7575035,-0.7465254,-0.7415409,-0.7435286,-0.7455163,-0.737535,-0.7235601,-0.712582,-0.7115729,-0.712582,-0.7095852,-0.70261306,-0.6956103,-0.69463176,-0.69362265,-0.6836537,-0.6656729,-0.6507194,-0.641729,-0.6347263,-0.6247573,-0.60879475,-0.5938107,-0.5818541,-0.56986684,-0.5528952,-0.5319481,-0.5139673,-0.505986,-0.49702615,-0.48402983,-0.4690764,-0.46008593,-0.45708913,-0.45409232,-0.44809872,-0.43712068,-0.43314528,-0.44112659,-0.45210463,-0.46008593,-0.46607953,-0.4800545,-0.5119796,-0.5528952,-0.5938107,-0.6297418,-0.6646943,-0.7005948,-0.7365259,-0.7654848,-0.78444415,-0.8004067,-0.8173784,-0.8303442,-0.8373469,-0.8353287,-0.8323319,-0.833341,-0.8313533,-0.8263688,-0.8203752,-0.8163693,-0.81838757,-0.81838757,-0.81239396,-0.8004067,-0.7914163,-0.78942865,-0.78643185,-0.77646285,-0.7634971,-0.7545067,-0.752519,-0.752519,-0.7485131,-0.7395227,-0.7315414,-0.7285446,-0.7265569,-0.7195847,-0.712582,-0.7115729,-0.7185756,-0.722551,-0.7185756,-0.70860666,-0.70261306,-0.7065884,-0.71059436,-0.7095852,-0.7046007,-0.7035916,-0.70860666,-0.7115729,-0.70560986,-0.6926135,-0.6866505,-0.69362265,-0.7046007,-0.70860666,-0.7065884,-0.7046007,-0.7095852,-0.7145697,-0.7155788,-0.7095852,-0.7046007,-0.70560986,-0.7075975,-0.7046007,-0.69762856,-0.69463176,-0.7035916,-0.7145697,-0.7185756,-0.7115729,-0.7035916,-0.7016039,-0.70261306,-0.7016039,-0.69661945,-0.6926135,-0.6926135,-0.69362265,-0.6896167,-0.6786386,-0.66766053,-0.6616975,-0.6606884,-0.6606884,-0.6596793,-0.6636852,-0.67065734,-0.67365414,-0.666682,-0.64870113,-0.6287632,-0.616776,-0.6038102,-0.5858294,-0.5668701,-0.5549134,-0.5578796,-0.5668701,-0.5768696,-0.5878477,-0.6107824,-0.64870113,-0.69062585,-0.722551,-0.7345382,-0.737535,-0.7395227,-0.7385441,-0.7345382,-0.7255478,-0.7195847,-0.7215724,-0.7245692,-0.7215724,-0.7115729,-0.7035916,-0.7035916,-0.7075975,-0.7095852,-0.7115729,-0.7325505,-0.77646285,-0.8243506,-0.8363378,-0.76447564,-0.58283263,-0.2964238,0.049890637,0.40617394,0.67766,0.75747275,0.6057979,0.24550855,-0.21058667,-0.60680705,-0.84330994,-0.9151721,-0.87826246,-0.8163693,-0.78144735,-0.78643185,-0.8103757,-0.8313533,-0.8363378,-0.8273474,-0.81838757,-0.8133725,-0.80740947,-0.79841906,-0.78343505,-0.7734661,-0.77046925,-0.76946014,-0.76447564,-0.75349754,-0.7445072,-0.7425195,-0.7385441,-0.7315414,-0.7185756,-0.7095852,-0.7075975,-0.7065884,-0.7016039,-0.69163495,-0.68564135,-0.68564135,-0.6846322,-0.6776601,-0.6636852,-0.6537162,-0.6527071,-0.651698,-0.6437167,-0.63176,-0.62078196,-0.616776,-0.6137792,-0.59882575,-0.5768696,-0.5578796,-0.5469016,-0.5399294,-0.5249454,-0.50201064,-0.47904533,-0.4630828,-0.45210463,-0.44011742,-0.42516398,-0.41418594,-0.41018003,-0.40819234,-0.40219873,-0.39222974,-0.38623613,-0.39122063,-0.39822334,-0.40718317,-0.41617358,-0.4361421,-0.47106403,-0.5129887,-0.5509075,-0.5848509,-0.6197728,-0.6606884,-0.7005948,-0.7325505,-0.75548524,-0.77545375,-0.79643136,-0.8113848,-0.8173784,-0.81239396,-0.8053912,-0.80441266,-0.80441266,-0.8034035,-0.79841906,-0.79542226,-0.79542226,-0.7914163,-0.78043824,-0.76447564,-0.7564944,-0.75848204,-0.762488,-0.7594912,-0.7465254,-0.7325505,-0.7255478,-0.7195847,-0.712582,-0.7016039,-0.6956103,-0.69762856,-0.6986071,-0.69362265,-0.6836537,-0.67665094,-0.6786386,-0.6806569,-0.6786386,-0.6696788,-0.6626761,-0.6616975,-0.6656729,-0.666682,-0.6626761,-0.6606884,-0.666682,-0.67365414,-0.67665094,-0.67365414,-0.6716665,-0.67365414,-0.67665094,-0.6756724,-0.6686697,-0.6656729,-0.6696788,-0.6726756,-0.6716665,-0.6656729,-0.6636852,-0.67065734,-0.6786386,-0.67964774,-0.6746633,-0.6696788,-0.6726756,-0.6776601,-0.6776601,-0.67365414,-0.6716665,-0.6746633,-0.6776601,-0.67665094,-0.6696788,-0.6656729,-0.6686697,-0.6716665,-0.6716665,-0.6646943,-0.6596793,-0.6576916,-0.6546948,-0.6447258,-0.6347263,-0.6307509,-0.6347263,-0.6437167,-0.6477226,-0.6427381,-0.6377231,-0.6327386,-0.6237482,-0.6038102,-0.5738728,-0.545923,-0.5319481,-0.53295726,-0.5429262,-0.5539043,-0.5658915,-0.5858294,-0.6137792,-0.6467135,-0.67964774,-0.7115729,-0.737535,-0.747504,-0.7425195,-0.7285446,-0.7195847,-0.7215724,-0.7285446,-0.7295537,-0.722551,-0.7155788,-0.7145697,-0.7155788,-0.7115729,-0.7016039,-0.69463176,-0.70860666,-0.7455163,-0.79643136,-0.8393346,-0.8383255,-0.7545067,-0.5429262,-0.19859946,0.22456145,0.6427076,0.9221443,0.9640689,0.7564943,0.35229266,-0.122762024,-0.52097005,-0.7634971,-0.85428804,-0.85428804,-0.8393346,-0.8493036,-0.87226886,-0.88924056,-0.88924056,-0.8822378,-0.87526566,-0.86927205,-0.86028165,-0.8463068,-0.8363378,-0.8313533,-0.8253597,-0.8173784,-0.80441266,-0.79242545,-0.7884195,-0.7854533,-0.77744144,-0.76447564,-0.75548524,-0.7515099,-0.7495222,-0.7435286,-0.7295537,-0.7205633,-0.7185756,-0.7205633,-0.7195847,-0.70860666,-0.6956103,-0.68863815,-0.68564135,-0.6816354,-0.6726756,-0.6656729,-0.6606884,-0.6537162,-0.641729,-0.6237482,-0.60680705,-0.5978166,-0.5898354,-0.5758605,-0.5539043,-0.53295726,-0.51898235,-0.5069951,-0.49103254,-0.4690764,-0.44809872,-0.43513298,-0.42715168,-0.41816127,-0.40620464,-0.39920187,-0.40021104,-0.40320784,-0.40320784,-0.40118957,-0.40620464,-0.42715168,-0.45608002,-0.4860481,-0.5139673,-0.5469016,-0.58882624,-0.6367445,-0.6786386,-0.7095852,-0.7345382,-0.7594912,-0.78144735,-0.79643136,-0.80141586,-0.8034035,-0.80740947,-0.8113848,-0.80939716,-0.79841906,-0.7884195,-0.7854533,-0.78444415,-0.78144735,-0.7714784,-0.762488,-0.75848204,-0.7564944,-0.7515099,-0.7405318,-0.7315414,-0.7285446,-0.727566,-0.7235601,-0.7145697,-0.7075975,-0.7065884,-0.7065884,-0.7016039,-0.6896167,-0.6806569,-0.6806569,-0.687629,-0.69163495,-0.69062585,-0.6896167,-0.69163495,-0.6956103,-0.69463176,-0.68564135,-0.67964774,-0.6806569,-0.687629,-0.6926135,-0.68863815,-0.6836537,-0.6836537,-0.68564135,-0.68564135,-0.67964774,-0.6746633,-0.67665094,-0.68264455,-0.687629,-0.68564135,-0.6846322,-0.68863815,-0.69362265,-0.6926135,-0.6846322,-0.6786386,-0.6786386,-0.6836537,-0.68564135,-0.6816354,-0.67964774,-0.68564135,-0.69463176,-0.69661945,-0.6896167,-0.6806569,-0.6776601,-0.6806569,-0.68264455,-0.6806569,-0.6806569,-0.6836537,-0.687629,-0.68564135,-0.67964774,-0.6746633,-0.6776601,-0.68264455,-0.68264455,-0.6726756,-0.6636852,-0.6606884,-0.6596793,-0.6537162,-0.641729,-0.6337477,-0.6357354,-0.6467135,-0.6537162,-0.6507194,-0.6427381,-0.63176,-0.6217605,-0.60879475,-0.5878477,-0.56787914,-0.5539043,-0.5469016,-0.5449139,-0.5439353,-0.5519166,-0.5718546,-0.60280114,-0.6387322,-0.67365414,-0.7046007,-0.7305628,-0.7485131,-0.75050074,-0.7415409,-0.7335291,-0.7345382,-0.737535,-0.7355473,-0.7265569,-0.7185756,-0.71658796,-0.7175665,-0.7175665,-0.7115729,-0.70860666,-0.7215724,-0.7564944,-0.80441266,-0.8463068,-0.8552972,-0.7884195,-0.601792,-0.2774644,0.13771534,0.56586075,0.8842255,0.9720502,0.8013853,0.41516435,-0.06888074,-0.49402934,-0.762488,-0.8642876,-0.8622999,-0.8393346,-0.84330994,-0.87125975,-0.89422506,-0.89722186,-0.88823146,-0.87826246,-0.87226886,-0.86526614,-0.85428804,-0.8453282,-0.8413223,-0.8383255,-0.8313533,-0.81539077,-0.8004067,-0.7944131,-0.79242545,-0.7884195,-0.77845055,-0.7684816,-0.7634971,-0.7614789,-0.7564944,-0.7465254,-0.7355473,-0.7325505,-0.7325505,-0.727566,-0.7135911,-0.69961625,-0.6926135,-0.69163495,-0.6896167,-0.6816354,-0.67065734,-0.6626761,-0.6566825,-0.6467135,-0.6307509,-0.61478835,-0.6047888,-0.59882575,-0.58882624,-0.570876,-0.5519166,-0.5369326,-0.5239668,-0.50800425,-0.48503894,-0.46207362,-0.4471202,-0.43812978,-0.43014848,-0.41917044,-0.41018003,-0.40920144,-0.41317677,-0.41617358,-0.41418594,-0.41418594,-0.42516398,-0.44809872,-0.47507,-0.5029892,-0.5369326,-0.5788573,-0.6247573,-0.6656729,-0.69762856,-0.727566,-0.7594912,-0.79043776,-0.8133725,-0.8213538,-0.8243506,-0.8263688,-0.8293656,-0.8263688,-0.8163693,-0.8064003,-0.80441266,-0.8064003,-0.80441266,-0.79643136,-0.7854533,-0.78043824,-0.77845055,-0.77245694,-0.7605003,-0.75050074,-0.7455163,-0.7455163,-0.7435286,-0.7345382,-0.7265569,-0.7255478,-0.7285446,-0.7295537,-0.722551,-0.712582,-0.7075975,-0.70860666,-0.70860666,-0.7035916,-0.7016039,-0.7005948,-0.7046007,-0.7075975,-0.70261306,-0.69961625,-0.7016039,-0.70560986,-0.70560986,-0.69961625,-0.69362265,-0.69762856,-0.7075975,-0.71658796,-0.7155788,-0.7095852,-0.7046007,-0.7035916,-0.70261306,-0.69762856,-0.6926135,-0.69463176,-0.7005948,-0.70560986,-0.7035916,-0.7035916,-0.7075975,-0.7135911,-0.7135911,-0.7046007,-0.69762856,-0.69762856,-0.70560986,-0.70860666,-0.7005948,-0.6896167,-0.68264455,-0.6846322,-0.69062585,-0.69163495,-0.69362265,-0.69762856,-0.70261306,-0.70261306,-0.69661945,-0.6896167,-0.6896167,-0.69163495,-0.6926135,-0.687629,-0.6846322,-0.6866505,-0.69062585,-0.69163495,-0.68264455,-0.6746633,-0.6746633,-0.67964774,-0.6806569,-0.67365414,-0.6646943,-0.6587007,-0.6576916,-0.6546948,-0.6437167,-0.6367445,-0.6387322,-0.64870113,-0.6566825,-0.64870113,-0.6277541,-0.6077856,-0.59283215,-0.5758605,-0.5578796,-0.5419171,-0.5379417,-0.5489198,-0.5648824,-0.5798358,-0.60081345,-0.6347263,-0.6786386,-0.7185756,-0.7445072,-0.7545067,-0.75848204,-0.7575035,-0.7495222,-0.7355473,-0.7245692,-0.7245692,-0.7315414,-0.737535,-0.7335291,-0.7265569,-0.7245692,-0.727566,-0.727566,-0.727566,-0.7455163,-0.78744096,-0.8423314,-0.86627525,-0.80740947,-0.6337477,-0.33831787,0.03291893,0.42314565,0.7345381,0.8393345,0.69561017,0.31935835,-0.16768354,-0.59481984,-0.85428804,-0.9381374,-0.9101876,-0.8513218,-0.81838757,-0.8213538,-0.8463068,-0.8702812,-0.879241,-0.87226886,-0.8563063,-0.8443191,-0.8393346,-0.8353287,-0.8253597,-0.81539077,-0.80939716,-0.8064003,-0.8023944,-0.7914163,-0.78144735,-0.77744144,-0.7794597,-0.77545375,-0.7634971,-0.7495222,-0.7415409,-0.7415409,-0.7435286,-0.7355473,-0.7215724,-0.712582,-0.7115729,-0.7095852,-0.7046007,-0.69961625,-0.69661945,-0.69362265,-0.68863815,-0.67365414,-0.6587007,-0.6507194,-0.6477226,-0.641729,-0.6237482,-0.601792,-0.5838418,-0.5718546,-0.5578796,-0.5399294,-0.5219791,-0.5089828,-0.50201064,-0.49002343,-0.4690764,-0.450117,-0.44112659,-0.44112659,-0.44311428,-0.4391389,-0.43314528,-0.43314528,-0.4421357,-0.45311385,-0.46207362,-0.47106403,-0.49002343,-0.5199609,-0.5549134,-0.59283215,-0.63176,-0.6716665,-0.712582,-0.7455163,-0.7654848,-0.7794597,-0.7974099,-0.81539077,-0.8303442,-0.8343501,-0.8323319,-0.8323319,-0.8353287,-0.8353287,-0.8263688,-0.8133725,-0.80740947,-0.8103757,-0.8133725,-0.8064003,-0.7944131,-0.78043824,-0.7734661,-0.7684816,-0.762488,-0.75548524,-0.7495222,-0.747504,-0.7435286,-0.7365259,-0.7315414,-0.7295537,-0.7295537,-0.7245692,-0.7145697,-0.70860666,-0.7115729,-0.7205633,-0.7235601,-0.7135911,-0.70261306,-0.69661945,-0.69961625,-0.7035916,-0.7016039,-0.69762856,-0.7016039,-0.7115729,-0.7185756,-0.7135911,-0.7035916,-0.6986071,-0.7046007,-0.7135911,-0.7155788,-0.7115729,-0.7075975,-0.7065884,-0.7075975,-0.70560986,-0.7065884,-0.7115729,-0.7215724,-0.7235601,-0.7155788,-0.7046007,-0.70261306,-0.70860666,-0.7145697,-0.7115729,-0.7035916,-0.7005948,-0.70560986,-0.712582,-0.71059436,-0.7035916,-0.69961625,-0.7035916,-0.70860666,-0.70860666,-0.7046007,-0.7005948,-0.7005948,-0.69661945,-0.6836537,-0.6686697,-0.6596793,-0.6606884,-0.6636852,-0.6646943,-0.6656729,-0.67065734,-0.6786386,-0.67665094,-0.6616975,-0.6397413,-0.61778516,-0.6038102,-0.5908139,-0.57485133,-0.56787914,-0.57286364,-0.5898354,-0.6127701,-0.6357354,-0.6626761,-0.69661945,-0.7325505,-0.75548524,-0.7605003,-0.7545067,-0.7515099,-0.75349754,-0.7545067,-0.7495222,-0.7445072,-0.7415409,-0.7435286,-0.7425195,-0.7345382,-0.7255478,-0.7235601,-0.7305628,-0.7405318,-0.75848204,-0.79043776,-0.8303442,-0.8533095,-0.8064003,-0.6507194,-0.38424844,-0.0558843,0.28043044,0.5509074,0.6546947,0.54491365,0.22254324,-0.22257388,-0.63176,-0.88025016,-0.9501246,-0.904194,-0.833341,-0.7944131,-0.79343456,-0.81239396,-0.8343501,-0.8493036,-0.8473159,-0.8303442,-0.8064003,-0.79043776,-0.7854533,-0.78043824,-0.7714784,-0.7605003,-0.75349754,-0.75548524,-0.7564944,-0.7485131,-0.7355473,-0.727566,-0.7265569,-0.7255478,-0.7185756,-0.70860666,-0.7016039,-0.70261306,-0.7035916,-0.69961625,-0.69163495,-0.6836537,-0.6786386,-0.67065734,-0.6576916,-0.6437167,-0.6367445,-0.6367445,-0.6347263,-0.626745,-0.6157669,-0.6077856,-0.6047888,-0.59882575,-0.58283263,-0.5618856,-0.5429262,-0.5269636,-0.5099919,-0.48702657,-0.4630828,-0.4471202,-0.44112659,-0.43412387,-0.42216724,-0.40819234,-0.40021104,-0.40021104,-0.40418637,-0.40118957,-0.39620507,-0.39620507,-0.40519553,-0.41816127,-0.43213618,-0.45311385,-0.4860481,-0.53295726,-0.5798358,-0.6197728,-0.6537162,-0.68564135,-0.7205633,-0.75050074,-0.7684816,-0.7794597,-0.78942865,-0.8004067,-0.808388,-0.808388,-0.80441266,-0.80141586,-0.8034035,-0.8023944,-0.7944131,-0.78343505,-0.77744144,-0.77744144,-0.77545375,-0.76646334,-0.7545067,-0.7445072,-0.7425195,-0.737535,-0.727566,-0.71658796,-0.71059436,-0.7115729,-0.7115729,-0.70261306,-0.687629,-0.67964774,-0.67964774,-0.6816354,-0.6816354,-0.67665094,-0.67365414,-0.6746633,-0.6726756,-0.6646943,-0.6557039,-0.6507194,-0.651698,-0.6507194,-0.6457044,-0.6407199,-0.6447258,-0.6566825,-0.6646943,-0.6636852,-0.6596793,-0.6587007,-0.666682,-0.67365414,-0.67065734,-0.6636852,-0.6616975,-0.6656729,-0.67065734,-0.666682,-0.6587007,-0.6537162,-0.6576916,-0.6646943,-0.6686697,-0.6686697,-0.6696788,-0.67365414,-0.6746633,-0.67065734,-0.6636852,-0.6606884,-0.6616975,-0.6616975,-0.6576916,-0.64870113,-0.641729,-0.641729,-0.6397413,-0.6327386,-0.6297418,-0.6327386,-0.6407199,-0.6437167,-0.6337477,-0.6137792,-0.5968075,-0.58283263,-0.5668701,-0.5469016,-0.530939,-0.5289513,-0.5419171,-0.5588888,-0.5738728,-0.5898354,-0.62078196,-0.6646943,-0.70261306,-0.722551,-0.7235601,-0.7195847,-0.7175665,-0.7195847,-0.7195847,-0.7145697,-0.712582,-0.7145697,-0.7145697,-0.70860666,-0.7005948,-0.6956103,-0.6956103,-0.6956103,-0.69762856,-0.7135911,-0.75548524,-0.8113848,-0.84330994,-0.79841906,-0.6397413,-0.35229278,0.019953132,0.42614245,0.773466,0.9341314,0.8473158,0.52194846,0.058881044,-0.38024253,-0.6786386,-0.81838757,-0.8453282,-0.8273474,-0.8163693,-0.8243506,-0.8423314,-0.86028165,-0.8672844,-0.8612908,-0.848325,-0.8393346,-0.8373469,-0.8323319,-0.8203752,-0.80441266,-0.79343456,-0.78942865,-0.78744096,-0.7794597,-0.7654848,-0.75548524,-0.75349754,-0.75349754,-0.7495222,-0.7395227,-0.7295537,-0.7235601,-0.7195847,-0.7115729,-0.7035916,-0.69762856,-0.69661945,-0.6926135,-0.6816354,-0.67065734,-0.6646943,-0.6646943,-0.6596793,-0.6467135,-0.6287632,-0.6157669,-0.6127701,-0.60879475,-0.5968075,-0.5778482,-0.5618856,-0.5509075,-0.5389203,-0.5199609,-0.49800467,-0.47904533,-0.4680673,-0.4551015,-0.43412387,-0.41216773,-0.39920187,-0.40021104,-0.40418637,-0.40118957,-0.39122063,-0.38623613,-0.39021146,-0.40021104,-0.41118908,-0.42415494,-0.4471202,-0.4860481,-0.5299604,-0.570876,-0.60680705,-0.6407199,-0.6776601,-0.71059436,-0.7365259,-0.7564944,-0.7744752,-0.7914163,-0.8023944,-0.8023944,-0.7944131,-0.78942865,-0.78942865,-0.7884195,-0.78144735,-0.77046925,-0.7634971,-0.76447564,-0.76646334,-0.7594912,-0.7455163,-0.7335291,-0.7285446,-0.7265569,-0.7235601,-0.7175665,-0.7115729,-0.7115729,-0.7115729,-0.7046007,-0.69463176,-0.687629,-0.68564135,-0.68264455,-0.6756724,-0.66766053,-0.6656729,-0.6716665,-0.6756724,-0.6726756,-0.6636852,-0.6587007,-0.6616975,-0.6656729,-0.6646943,-0.6616975,-0.6616975,-0.6696788,-0.67365414,-0.67065734,-0.6606884,-0.6537162,-0.6557039,-0.6616975,-0.6616975,-0.6576916,-0.6566825,-0.6616975,-0.6656729,-0.666682,-0.6636852,-0.6646943,-0.6716665,-0.67665094,-0.6746633,-0.6656729,-0.6596793,-0.6616975,-0.6646943,-0.6636852,-0.6576916,-0.6566825,-0.6626761,-0.66766053,-0.6656729,-0.6566825,-0.6507194,-0.6537162,-0.6587007,-0.6596793,-0.6557039,-0.6527071,-0.6537162,-0.6527071,-0.64870113,-0.6437167,-0.6427381,-0.651698,-0.6576916,-0.6566825,-0.6447258,-0.63176,-0.6237482,-0.6197728,-0.61179155,-0.6047888,-0.6047888,-0.61179155,-0.61778516,-0.6127701,-0.5978166,-0.5848509,-0.57485133,-0.5628947,-0.545923,-0.5219791,-0.5119796,-0.52097005,-0.5359235,-0.5519166,-0.5658915,-0.5878477,-0.6257664,-0.66766053,-0.7005948,-0.7155788,-0.7195847,-0.7195847,-0.7185756,-0.7155788,-0.71059436,-0.7095852,-0.7115729,-0.7095852,-0.70261306,-0.69362265,-0.69163495,-0.6956103,-0.69961625,-0.7016039,-0.7135911,-0.75050074,-0.80740947,-0.8513218,-0.8293656,-0.7005948,-0.44112659,-0.073865175,0.34532046,0.73851347,0.9730593,0.95807517,0.6826445,0.22853684,-0.25049317,-0.6107824,-0.8023944,-0.8593031,-0.8473159,-0.8313533,-0.8363378,-0.8593031,-0.88425606,-0.89422506,-0.88722235,-0.8672844,-0.8523004,-0.8493036,-0.848325,-0.84330994,-0.8323319,-0.81838757,-0.80939716,-0.8004067,-0.78942865,-0.77646285,-0.77245694,-0.77545375,-0.77744144,-0.76946014,-0.75349754,-0.7385441,-0.7325505,-0.7295537,-0.7255478,-0.7185756,-0.7135911,-0.712582,-0.70860666,-0.69762856,-0.68264455,-0.67065734,-0.6686697,-0.6696788,-0.6656729,-0.6546948,-0.6437167,-0.6357354,-0.626745,-0.61179155,-0.591823,-0.57485133,-0.5658915,-0.55589193,-0.5389203,-0.5119796,-0.48803574,-0.4740609,-0.4630828,-0.450117,-0.43213618,-0.41718274,-0.41317677,-0.41317677,-0.40819234,-0.39920187,-0.39421737,-0.40021104,-0.41018003,-0.41917044,-0.42516398,-0.43712068,-0.46507043,-0.5029892,-0.5429262,-0.58084494,-0.6217605,-0.6656729,-0.70560986,-0.7345382,-0.752519,-0.7684816,-0.78744096,-0.8034035,-0.8103757,-0.80740947,-0.80141586,-0.79841906,-0.7974099,-0.7914163,-0.78343505,-0.7794597,-0.78043824,-0.7794597,-0.7714784,-0.75548524,-0.7415409,-0.737535,-0.737535,-0.7335291,-0.7245692,-0.7175665,-0.7155788,-0.7145697,-0.7075975,-0.69762856,-0.6896167,-0.6926135,-0.6956103,-0.6926135,-0.6846322,-0.6786386,-0.6816354,-0.687629,-0.68863815,-0.6816354,-0.6756724,-0.6756724,-0.67964774,-0.67964774,-0.67365414,-0.6696788,-0.6716665,-0.67665094,-0.6816354,-0.67964774,-0.6776601,-0.6776601,-0.6746633,-0.6686697,-0.6626761,-0.6626761,-0.67065734,-0.6776601,-0.6756724,-0.666682,-0.6596793,-0.6626761,-0.6686697,-0.67065734,-0.66766053,-0.6646943,-0.6686697,-0.67365414,-0.6746633,-0.6696788,-0.666682,-0.6716665,-0.6776601,-0.6806569,-0.67665094,-0.6726756,-0.6746633,-0.67665094,-0.6726756,-0.6636852,-0.6557039,-0.6566825,-0.6626761,-0.6656729,-0.6606884,-0.6576916,-0.6587007,-0.6626761,-0.6606884,-0.651698,-0.6457044,-0.6497103,-0.6576916,-0.6636852,-0.6606884,-0.6537162,-0.651698,-0.6537162,-0.6537162,-0.64870113,-0.6427381,-0.6367445,-0.63176,-0.6237482,-0.61179155,-0.60579795,-0.60980386,-0.6157669,-0.61778516,-0.61179155,-0.601792,-0.5938107,-0.58084494,-0.5608764,-0.5349449,-0.5139673,-0.5089828,-0.51598555,-0.5279422,-0.5399294,-0.5598979,-0.5978166,-0.6447258,-0.68863815,-0.7155788,-0.727566,-0.7315414,-0.7295537,-0.722551,-0.7115729,-0.70560986,-0.70860666,-0.7135911,-0.7155788,-0.7115729,-0.70560986,-0.7065884,-0.71059436,-0.71059436,-0.71059436,-0.7295537,-0.77545375,-0.8303442,-0.8563063,-0.79841906,-0.6227696,-0.31636167,0.078849554,0.5020106,0.8452976,0.975047,0.8403132,0.47005475,-0.017965555,-0.46008593,-0.7465254,-0.86526614,-0.86826295,-0.833341,-0.8163693,-0.8323319,-0.86327845,-0.88722235,-0.89122826,-0.88125926,-0.8702812,-0.86526614,-0.8612908,-0.8503127,-0.8313533,-0.81539077,-0.80939716,-0.80740947,-0.80441266,-0.79242545,-0.78343505,-0.7794597,-0.77744144,-0.77046925,-0.7564944,-0.7455163,-0.7435286,-0.7435286,-0.7415409,-0.7295537,-0.7195847,-0.7155788,-0.71658796,-0.712582,-0.7035916,-0.69463176,-0.6896167,-0.6846322,-0.6776601,-0.6636852,-0.6507194,-0.6447258,-0.6397413,-0.6287632,-0.60980386,-0.59283215,-0.58084494,-0.5688577,-0.5519166,-0.5279422,-0.5069951,-0.49601704,-0.49002343,-0.48103297,-0.46607953,-0.450117,-0.44011742,-0.43412387,-0.42614257,-0.41418594,-0.40718317,-0.41018003,-0.41617358,-0.42216724,-0.42614257,-0.43712068,-0.4630828,-0.49702615,-0.530939,-0.56387323,-0.601792,-0.6467135,-0.69062585,-0.7255478,-0.7455163,-0.7605003,-0.78245646,-0.80441266,-0.8193661,-0.8223629,-0.8203752,-0.8213538,-0.8223629,-0.81838757,-0.8103757,-0.80141586,-0.79841906,-0.7974099,-0.7914163,-0.77744144,-0.7674725,-0.76447564,-0.7654848,-0.7605003,-0.7485131,-0.7355473,-0.7295537,-0.7285446,-0.7245692,-0.7155788,-0.70860666,-0.7095852,-0.7135911,-0.7135911,-0.7065884,-0.69961625,-0.6986071,-0.7016039,-0.7035916,-0.69961625,-0.69961625,-0.7065884,-0.712582,-0.7145697,-0.7046007,-0.69362265,-0.69163495,-0.6956103,-0.69762856,-0.69463176,-0.69163495,-0.6956103,-0.70261306,-0.70560986,-0.69661945,-0.68863815,-0.687629,-0.69463176,-0.7016039,-0.70261306,-0.7005948,-0.69961625,-0.6986071,-0.69762856,-0.69463176,-0.6956103,-0.7016039,-0.71059436,-0.71059436,-0.7016039,-0.69463176,-0.6956103,-0.7005948,-0.7035916,-0.6986071,-0.6926135,-0.69062585,-0.69163495,-0.69062585,-0.6866505,-0.68564135,-0.6896167,-0.69362265,-0.69163495,-0.6836537,-0.67964774,-0.68264455,-0.69062585,-0.6926135,-0.6866505,-0.6786386,-0.67665094,-0.67964774,-0.67964774,-0.6756724,-0.6716665,-0.6716665,-0.6716665,-0.6656729,-0.6527071,-0.6447258,-0.6397413,-0.6407199,-0.6427381,-0.6397413,-0.6397413,-0.6447258,-0.6457044,-0.6357354,-0.60980386,-0.58283263,-0.56387323,-0.5549134,-0.5519166,-0.5498983,-0.5569011,-0.5778482,-0.60980386,-0.6467135,-0.6786386,-0.7065884,-0.7305628,-0.747504,-0.75349754,-0.7455163,-0.7355473,-0.7355473,-0.7405318,-0.7445072,-0.7395227,-0.7325505,-0.7285446,-0.7305628,-0.7305628,-0.7235601,-0.71658796,-0.7245692,-0.75349754,-0.79643136,-0.8353287,-0.8363378,-0.7674725,-0.5898354,-0.2964238,0.06386542,0.43014836,0.6896167,0.7405318,0.5618855,0.18162763,-0.28143972,-0.6746633,-0.89920956,-0.9481064,-0.88722235,-0.8143816,-0.7884195,-0.80441266,-0.833341,-0.8503127,-0.85428804,-0.8533095,-0.848325,-0.8413223,-0.8253597,-0.8113848,-0.8023944,-0.7993976,-0.7944131,-0.78245646,-0.77245694,-0.7674725,-0.76447564,-0.7594912,-0.7465254,-0.7365259,-0.7345382,-0.737535,-0.737535,-0.7295537,-0.7205633,-0.7175665,-0.7185756,-0.712582,-0.69661945,-0.6806569,-0.6716665,-0.6696788,-0.67065734,-0.666682,-0.6616975,-0.6576916,-0.6557039,-0.6477226,-0.6297418,-0.6107824,-0.59481984,-0.5858294,-0.5768696,-0.5668701,-0.55589193,-0.5429262,-0.5239668,-0.49901384,-0.47106403,-0.45311385,-0.44809872,-0.4491079,-0.4471202,-0.43712068,-0.42614257,-0.42216724,-0.42314577,-0.42614257,-0.42715168,-0.43412387,-0.450117,-0.47005492,-0.49302024,-0.5179732,-0.5528952,-0.59481984,-0.6387322,-0.6756724,-0.7035916,-0.727566,-0.7575035,-0.78942865,-0.81239396,-0.823372,-0.8293656,-0.8343501,-0.8383255,-0.8373469,-0.8313533,-0.8243506,-0.8243506,-0.8273474,-0.8243506,-0.81239396,-0.79841906,-0.79043776,-0.78942865,-0.78643185,-0.77845055,-0.76946014,-0.7634971,-0.7614789,-0.75848204,-0.747504,-0.7345382,-0.727566,-0.7245692,-0.7205633,-0.712582,-0.7035916,-0.7016039,-0.70261306,-0.70261306,-0.6986071,-0.69163495,-0.69062585,-0.69163495,-0.68863815,-0.6816354,-0.6756724,-0.67665094,-0.67964774,-0.68264455,-0.6816354,-0.6816354,-0.6866505,-0.6926135,-0.6926135,-0.6846322,-0.6776601,-0.6816354,-0.69062585,-0.69463176,-0.69062585,-0.6846322,-0.6816354,-0.68564135,-0.6896167,-0.6866505,-0.6816354,-0.6816354,-0.687629,-0.687629,-0.68264455,-0.67665094,-0.6746633,-0.6806569,-0.687629,-0.6866505,-0.68264455,-0.68264455,-0.6836537,-0.6806569,-0.6716665,-0.6636852,-0.6587007,-0.6576916,-0.6537162,-0.6427381,-0.6327386,-0.63176,-0.6397413,-0.6467135,-0.6457044,-0.6377231,-0.6287632,-0.6227696,-0.6107824,-0.5878477,-0.5658915,-0.5479107,-0.5409385,-0.5399294,-0.5389203,-0.5469016,-0.570876,-0.60980386,-0.651698,-0.6846322,-0.7075975,-0.722551,-0.7295537,-0.7285446,-0.7175665,-0.7095852,-0.7095852,-0.7155788,-0.7155788,-0.7075975,-0.6986071,-0.6956103,-0.7005948,-0.70261306,-0.69661945,-0.69163495,-0.7005948,-0.7345382,-0.78343505,-0.8223629,-0.81539077,-0.7245692,-0.5179732,-0.20061773,0.17364645,0.53292644,0.7634665,0.77845037,0.56586075,0.17364645,-0.2794521,-0.6467135,-0.8523004,-0.89722186,-0.8503127,-0.7974099,-0.78444415,-0.8034035,-0.8253597,-0.8343501,-0.8303442,-0.8273474,-0.8283565,-0.8263688,-0.8173784,-0.8034035,-0.7914163,-0.78343505,-0.77545375,-0.76447564,-0.7545067,-0.7495222,-0.747504,-0.7395227,-0.7255478,-0.7115729,-0.70560986,-0.70860666,-0.71059436,-0.7046007,-0.69661945,-0.69163495,-0.6896167,-0.6846322,-0.6746633,-0.6636852,-0.6576916,-0.6576916,-0.6537162,-0.6427381,-0.6307509,-0.6247573,-0.6227696,-0.616776,-0.6038102,-0.5878477,-0.5758605,-0.56387323,-0.5498983,-0.5279422,-0.5029892,-0.48503894,-0.4720732,-0.46008593,-0.4441234,-0.42816085,-0.41718274,-0.41118908,-0.40320784,-0.39021146,-0.38024253,-0.3782549,-0.38424844,-0.39222974,-0.39620507,-0.40021104,-0.41418594,-0.43712068,-0.46705812,-0.49800467,-0.5369326,-0.58084494,-0.6297418,-0.6726756,-0.70261306,-0.7295537,-0.75349754,-0.77744144,-0.79343456,-0.79643136,-0.79542226,-0.79643136,-0.8004067,-0.80141586,-0.79542226,-0.78744096,-0.78444415,-0.78343505,-0.7794597,-0.7674725,-0.75548524,-0.747504,-0.7485131,-0.7495222,-0.7435286,-0.7365259,-0.7335291,-0.7325505,-0.7285446,-0.71658796,-0.7035916,-0.6956103,-0.69463176,-0.69062585,-0.6806569,-0.6726756,-0.67065734,-0.67665094,-0.6816354,-0.6776601,-0.6696788,-0.6646943,-0.6686697,-0.6726756,-0.6696788,-0.6636852,-0.6606884,-0.6636852,-0.66766053,-0.666682,-0.6646943,-0.6656729,-0.6716665,-0.67665094,-0.6746633,-0.6716665,-0.67065734,-0.6726756,-0.6746633,-0.6726756,-0.6686697,-0.6696788,-0.6746633,-0.67665094,-0.67365414,-0.6696788,-0.6726756,-0.6806569,-0.68564135,-0.6836537,-0.6786386,-0.6756724,-0.6806569,-0.6836537,-0.6816354,-0.67665094,-0.6756724,-0.6776601,-0.67665094,-0.6716665,-0.6656729,-0.6656729,-0.6686697,-0.6686697,-0.6557039,-0.6397413,-0.6307509,-0.6327386,-0.6357354,-0.6357354,-0.6357354,-0.6387322,-0.6447258,-0.6427381,-0.6247573,-0.60081345,-0.58084494,-0.56787914,-0.5569011,-0.5409385,-0.530939,-0.5339358,-0.5498983,-0.570876,-0.5898354,-0.61478835,-0.6507194,-0.6926135,-0.7245692,-0.7355473,-0.7305628,-0.7245692,-0.7245692,-0.7255478,-0.7215724,-0.7155788,-0.7145697,-0.7195847,-0.7205633,-0.712582,-0.70261306,-0.6956103,-0.69762856,-0.70860666,-0.7305628,-0.77046925,-0.8223629,-0.8563063,-0.81838757,-0.6636852,-0.37424892,0.008975148,0.42415476,0.7794291,0.95309067,0.8802501,0.5648823,0.09679973,-0.3592955,-0.6786386,-0.8313533,-0.86327845,-0.8503127,-0.84330994,-0.8513218,-0.86826295,-0.88425606,-0.89523417,-0.89321595,-0.88125926,-0.86526614,-0.85428804,-0.8503127,-0.84330994,-0.8293656,-0.8143816,-0.80441266,-0.8004067,-0.7974099,-0.78643185,-0.77245694,-0.762488,-0.7605003,-0.75848204,-0.7515099,-0.7435286,-0.737535,-0.7355473,-0.7315414,-0.7195847,-0.7075975,-0.7005948,-0.7005948,-0.6986071,-0.69062585,-0.6786386,-0.67065734,-0.6686697,-0.6636852,-0.651698,-0.6367445,-0.6247573,-0.6187637,-0.6107824,-0.59283215,-0.570876,-0.5528952,-0.5399294,-0.5269636,-0.50800425,-0.4860481,-0.4690764,-0.45608002,-0.4441234,-0.42816085,-0.41216773,-0.40519553,-0.40519553,-0.40418637,-0.39620507,-0.38923293,-0.39222974,-0.40620464,-0.42415494,-0.4391389,-0.4551015,-0.4800545,-0.5199609,-0.5628947,-0.60280114,-0.6377231,-0.67365414,-0.7135911,-0.747504,-0.77046925,-0.78444415,-0.7974099,-0.8103757,-0.8173784,-0.8163693,-0.8103757,-0.80740947,-0.8103757,-0.8103757,-0.8023944,-0.7884195,-0.77845055,-0.7744752,-0.77245694,-0.76447564,-0.75349754,-0.7435286,-0.7395227,-0.7355473,-0.7285446,-0.7205633,-0.71658796,-0.7175665,-0.71658796,-0.70860666,-0.6986071,-0.69463176,-0.69661945,-0.69762856,-0.69062585,-0.68264455,-0.68264455,-0.69062585,-0.69661945,-0.69362265,-0.6846322,-0.6816354,-0.687629,-0.69362265,-0.69362265,-0.687629,-0.68564135,-0.69062585,-0.69362265,-0.6896167,-0.68264455,-0.6806569,-0.6866505,-0.6926135,-0.69062585,-0.6836537,-0.6786386,-0.6816354,-0.6846322,-0.68264455,-0.6776601,-0.6776601,-0.68264455,-0.6866505,-0.6846322,-0.6786386,-0.6776601,-0.68564135,-0.6926135,-0.69362265,-0.6896167,-0.68863815,-0.69362265,-0.6986071,-0.6956103,-0.68863815,-0.68264455,-0.68264455,-0.68264455,-0.6776601,-0.67365414,-0.67665094,-0.6846322,-0.68863815,-0.6836537,-0.6726756,-0.66766053,-0.6716665,-0.67665094,-0.67665094,-0.6726756,-0.67065734,-0.6726756,-0.6696788,-0.6587007,-0.6437167,-0.6357354,-0.6357354,-0.6397413,-0.641729,-0.641729,-0.6437167,-0.6447258,-0.6367445,-0.61778516,-0.5898354,-0.56387323,-0.5489198,-0.5389203,-0.5359235,-0.5409385,-0.5549134,-0.5798358,-0.60680705,-0.6357354,-0.6686697,-0.70560986,-0.7395227,-0.7575035,-0.7575035,-0.7445072,-0.7355473,-0.7355473,-0.7385441,-0.737535,-0.7315414,-0.7265569,-0.727566,-0.727566,-0.722551,-0.71658796,-0.71658796,-0.7385441,-0.78043824,-0.8283565,-0.8642876,-0.8523004,-0.7564944,-0.53295726,-0.18263698,0.23850572,0.652707,0.9201566,0.94810617,0.7245387,0.29938984,-0.18963969,-0.5898354,-0.8203752,-0.89021915,-0.87226886,-0.8473159,-0.8552972,-0.88025016,-0.90021867,-0.9062123,-0.90321547,-0.9011972,-0.89621276,-0.88425606,-0.86826295,-0.85428804,-0.8463068,-0.8393346,-0.8293656,-0.8193661,-0.8133725,-0.8133725,-0.8113848,-0.8004067,-0.78444415,-0.77245694,-0.7674725,-0.7654848,-0.7575035,-0.7465254,-0.7365259,-0.7325505,-0.7285446,-0.7215724,-0.7135911,-0.7095852,-0.7115729,-0.7095852,-0.7005948,-0.6846322,-0.6716665,-0.66766053,-0.6626761,-0.6537162,-0.6387322,-0.6227696,-0.6127701,-0.60081345,-0.5838418,-0.56387323,-0.5469016,-0.53295726,-0.5169641,-0.49601704,-0.4720732,-0.4551015,-0.450117,-0.44611108,-0.43812978,-0.42516398,-0.41516447,-0.41516447,-0.41718274,-0.41617358,-0.41216773,-0.41516447,-0.4311576,-0.4551015,-0.48103297,-0.5099919,-0.5439353,-0.58683854,-0.6287632,-0.6636852,-0.69163495,-0.7205633,-0.75548524,-0.78444415,-0.80141586,-0.8064003,-0.8113848,-0.8213538,-0.8303442,-0.8323319,-0.8253597,-0.81539077,-0.8103757,-0.8064003,-0.8023944,-0.7944131,-0.78942865,-0.78744096,-0.7854533,-0.7794597,-0.76946014,-0.7614789,-0.7564944,-0.7485131,-0.7385441,-0.7265569,-0.722551,-0.7255478,-0.727566,-0.7215724,-0.7115729,-0.7065884,-0.71059436,-0.7145697,-0.712582,-0.7046007,-0.7016039,-0.70860666,-0.71658796,-0.71658796,-0.70860666,-0.70261306,-0.70261306,-0.70560986,-0.7046007,-0.6986071,-0.69961625,-0.70860666,-0.71658796,-0.7155788,-0.70560986,-0.69762856,-0.69762856,-0.7035916,-0.7046007,-0.7005948,-0.69961625,-0.7035916,-0.70860666,-0.70860666,-0.70261306,-0.69961625,-0.7035916,-0.71059436,-0.712582,-0.7095852,-0.7065884,-0.70860666,-0.7115729,-0.71059436,-0.70560986,-0.7016039,-0.7016039,-0.7005948,-0.6956103,-0.69062585,-0.6896167,-0.69661945,-0.7016039,-0.69762856,-0.6896167,-0.6866505,-0.6926135,-0.69961625,-0.7005948,-0.69362265,-0.6896167,-0.6926135,-0.69661945,-0.69463176,-0.687629,-0.67964774,-0.6746633,-0.66766053,-0.6576916,-0.6477226,-0.6447258,-0.651698,-0.6626761,-0.6646943,-0.6546948,-0.6397413,-0.6257664,-0.60980386,-0.5908139,-0.570876,-0.5569011,-0.5539043,-0.5578796,-0.5648824,-0.57286364,-0.591823,-0.626745,-0.6696788,-0.71059436,-0.7395227,-0.75548524,-0.7634971,-0.762488,-0.752519,-0.7415409,-0.7385441,-0.7425195,-0.7455163,-0.7435286,-0.7365259,-0.7335291,-0.7355473,-0.7345382,-0.7295537,-0.7245692,-0.7415409,-0.78643185,-0.8403437,-0.87226886,-0.8343501,-0.69762856,-0.4441234,-0.09780908,0.28743327,0.6307509,0.7974099,0.7215724,0.40917075,-0.049890757,-0.49800467,-0.80740947,-0.9391465,-0.93113464,-0.8702812,-0.8273474,-0.8283565,-0.858294,-0.88125926,-0.8852346,-0.87226886,-0.85728484,-0.8523004,-0.8513218,-0.8473159,-0.8353287,-0.8273474,-0.8243506,-0.8193661,-0.80939716,-0.79643136,-0.7854533,-0.78444415,-0.78444415,-0.7794597,-0.7684816,-0.7605003,-0.75848204,-0.7564944,-0.747504,-0.7345382,-0.7255478,-0.7255478,-0.7265569,-0.722551,-0.7115729,-0.70261306,-0.69961625,-0.69961625,-0.6926135,-0.6786386,-0.6626761,-0.6527071,-0.6427381,-0.63176,-0.6187637,-0.60680705,-0.59882575,-0.58683854,-0.56787914,-0.5449139,-0.5269636,-0.52097005,-0.5129887,-0.50002295,-0.47904533,-0.45907682,-0.45109558,-0.4471202,-0.4421357,-0.43213618,-0.42715168,-0.42816085,-0.43314528,-0.43812978,-0.44112659,-0.45210463,-0.47507,-0.50800425,-0.5439353,-0.5798358,-0.6217605,-0.6686697,-0.7095852,-0.7405318,-0.7614789,-0.78245646,-0.8113848,-0.8343501,-0.8453282,-0.84330994,-0.8363378,-0.8363378,-0.8383255,-0.8373469,-0.8293656,-0.823372,-0.81838757,-0.8133725,-0.8053912,-0.79343456,-0.78942865,-0.79242545,-0.79343456,-0.78744096,-0.7734661,-0.7634971,-0.7614789,-0.762488,-0.7575035,-0.7425195,-0.7285446,-0.722551,-0.722551,-0.7235601,-0.7185756,-0.7135911,-0.7135911,-0.7145697,-0.712582,-0.7075975,-0.70261306,-0.70560986,-0.7075975,-0.70860666,-0.70560986,-0.7075975,-0.7135911,-0.7155788,-0.7095852,-0.69661945,-0.6866505,-0.687629,-0.69661945,-0.7046007,-0.7046007,-0.7046007,-0.7065884,-0.7075975,-0.7065884,-0.7046007,-0.7075975,-0.7175665,-0.7255478,-0.7235601,-0.7135911,-0.7065884,-0.70860666,-0.7145697,-0.71658796,-0.7135911,-0.7135911,-0.7195847,-0.7245692,-0.7235601,-0.7145697,-0.7075975,-0.7065884,-0.7046007,-0.6956103,-0.67964774,-0.67065734,-0.6726756,-0.6816354,-0.6896167,-0.69062585,-0.68863815,-0.687629,-0.6806569,-0.6646943,-0.6457044,-0.6307509,-0.6217605,-0.61478835,-0.601792,-0.5848509,-0.5768696,-0.58084494,-0.59283215,-0.60980386,-0.6297418,-0.6626761,-0.7075975,-0.747504,-0.7684816,-0.7674725,-0.75848204,-0.752519,-0.752519,-0.752519,-0.7455163,-0.7405318,-0.7385441,-0.7395227,-0.7365259,-0.727566,-0.7205633,-0.7195847,-0.7205633,-0.7285446,-0.7495222,-0.78744096,-0.8283565,-0.8253597,-0.7345382,-0.5219791,-0.21658033,0.12474966,0.44708955,0.6497102,0.6546947,0.43611133,0.035915732,-0.41216773,-0.7564944,-0.9181689,-0.9251716,-0.86028165,-0.8034035,-0.78643185,-0.79643136,-0.8163693,-0.8343501,-0.8393346,-0.8313533,-0.81539077,-0.8023944,-0.7974099,-0.79643136,-0.79043776,-0.77646285,-0.76447564,-0.75848204,-0.75548524,-0.7495222,-0.7365259,-0.7255478,-0.7255478,-0.7265569,-0.7255478,-0.71658796,-0.7075975,-0.7046007,-0.7046007,-0.7016039,-0.6896167,-0.67964774,-0.67665094,-0.6756724,-0.6696788,-0.6566825,-0.6437167,-0.6387322,-0.6377231,-0.6327386,-0.62078196,-0.6077856,-0.5978166,-0.5878477,-0.5738728,-0.5539043,-0.5359235,-0.5269636,-0.51598555,-0.50002295,-0.47604853,-0.45409232,-0.4421357,-0.43812978,-0.43412387,-0.42017955,-0.40620464,-0.39920187,-0.3952266,-0.39222974,-0.3872453,-0.38522702,-0.39421737,-0.41018003,-0.42816085,-0.4471202,-0.47305173,-0.5129887,-0.5588888,-0.59882575,-0.63176,-0.6656729,-0.70560986,-0.7445072,-0.77545375,-0.7914163,-0.80141586,-0.8133725,-0.8253597,-0.8263688,-0.8173784,-0.8064003,-0.8004067,-0.80141586,-0.8004067,-0.7914163,-0.78444415,-0.78245646,-0.78043824,-0.7744752,-0.7614789,-0.7495222,-0.7455163,-0.7455163,-0.7435286,-0.7365259,-0.7285446,-0.7245692,-0.7185756,-0.70860666,-0.6956103,-0.68863815,-0.69062585,-0.69661945,-0.69762856,-0.6926135,-0.6866505,-0.6836537,-0.6806569,-0.6726756,-0.6596793,-0.6537162,-0.6566825,-0.6646943,-0.6686697,-0.6656729,-0.6616975,-0.6626761,-0.666682,-0.6696788,-0.6656729,-0.6656729,-0.6716665,-0.6806569,-0.68264455,-0.6756724,-0.6686697,-0.67065734,-0.67964774,-0.68564135,-0.68264455,-0.67665094,-0.67665094,-0.6816354,-0.6846322,-0.6836537,-0.6806569,-0.6816354,-0.6836537,-0.68264455,-0.6776601,-0.6746633,-0.6756724,-0.67365414,-0.6626761,-0.6457044,-0.6337477,-0.63176,-0.6397413,-0.64870113,-0.6497103,-0.6507194,-0.6497103,-0.6427381,-0.6277541,-0.60081345,-0.5738728,-0.5569011,-0.5498983,-0.5498983,-0.5528952,-0.5598979,-0.57485133,-0.59582895,-0.6227696,-0.6557039,-0.69062585,-0.7235601,-0.7435286,-0.7455163,-0.7345382,-0.7255478,-0.7265569,-0.7335291,-0.7335291,-0.7235601,-0.7145697,-0.7115729,-0.712582,-0.712582,-0.7065884,-0.70261306,-0.70860666,-0.7325505,-0.7714784,-0.8143816,-0.8503127,-0.8383255,-0.737535,-0.5029892,-0.14172143,0.27844274,0.6736542,0.9141629,0.9181689,0.6786386,0.25248063,-0.22456157,-0.60280114,-0.8143816,-0.87226886,-0.8533095,-0.8343501,-0.84330994,-0.86627525,-0.88025016,-0.88125926,-0.87826246,-0.87425655,-0.8672844,-0.8552972,-0.8453282,-0.8393346,-0.8353287,-0.8273474,-0.81239396,-0.7993976,-0.7944131,-0.7914163,-0.7854533,-0.77545375,-0.7654848,-0.7614789,-0.7614789,-0.7545067,-0.7415409,-0.7295537,-0.7285446,-0.7315414,-0.7305628,-0.7195847,-0.7075975,-0.7005948,-0.69961625,-0.69661945,-0.68564135,-0.6746633,-0.66766053,-0.6656729,-0.6596793,-0.6467135,-0.6307509,-0.6187637,-0.6107824,-0.60081345,-0.58283263,-0.5618856,-0.5439353,-0.5289513,-0.5129887,-0.49103254,-0.47106403,-0.45608002,-0.44611108,-0.4361421,-0.42216724,-0.41216773,-0.41018003,-0.41317677,-0.41418594,-0.41018003,-0.40718317,-0.41418594,-0.43213618,-0.45708913,-0.48503894,-0.51898235,-0.5628947,-0.6107824,-0.6546948,-0.687629,-0.7155788,-0.7445072,-0.77245694,-0.79343456,-0.8034035,-0.80939716,-0.81539077,-0.8223629,-0.823372,-0.8163693,-0.80740947,-0.8023944,-0.8034035,-0.7993976,-0.7884195,-0.77744144,-0.7734661,-0.7734661,-0.76946014,-0.7564944,-0.7435286,-0.7395227,-0.7405318,-0.7385441,-0.7305628,-0.7205633,-0.7175665,-0.7195847,-0.7175665,-0.7075975,-0.6986071,-0.69661945,-0.69961625,-0.6986071,-0.69062585,-0.68264455,-0.6816354,-0.687629,-0.69163495,-0.6926135,-0.69062585,-0.69163495,-0.69362265,-0.69062585,-0.68264455,-0.6786386,-0.6836537,-0.69163495,-0.69362265,-0.687629,-0.6816354,-0.6806569,-0.68564135,-0.68863815,-0.6866505,-0.68564135,-0.68863815,-0.69463176,-0.6956103,-0.6896167,-0.68564135,-0.68564135,-0.6896167,-0.6896167,-0.6836537,-0.6806569,-0.68564135,-0.6956103,-0.7016039,-0.69463176,-0.68564135,-0.6806569,-0.6806569,-0.68264455,-0.6776601,-0.67065734,-0.6686697,-0.6756724,-0.6806569,-0.6806569,-0.6776601,-0.67665094,-0.6786386,-0.6786386,-0.6716665,-0.6636852,-0.6566825,-0.6527071,-0.6477226,-0.6377231,-0.6297418,-0.6307509,-0.6387322,-0.6457044,-0.6427381,-0.63176,-0.6197728,-0.60879475,-0.591823,-0.5688577,-0.5469016,-0.5319481,-0.53295726,-0.5439353,-0.55589193,-0.57485133,-0.6038102,-0.6427381,-0.68264455,-0.712582,-0.7315414,-0.7435286,-0.75050074,-0.75050074,-0.7415409,-0.7345382,-0.7355473,-0.7395227,-0.7405318,-0.7315414,-0.7195847,-0.7115729,-0.71059436,-0.7115729,-0.7095852,-0.7155788,-0.7445072,-0.79643136,-0.8493036,-0.8672844,-0.8064003,-0.6327386,-0.32636118,0.07585275,0.5089828,0.854288,0.9770347,0.83731616,0.47305167,-0.0030121207,-0.4361421,-0.7255478,-0.8563063,-0.873278,-0.8463068,-0.8353287,-0.8533095,-0.88425606,-0.904194,-0.90520316,-0.89621276,-0.88722235,-0.879241,-0.87125975,-0.8563063,-0.8413223,-0.8313533,-0.8253597,-0.8193661,-0.808388,-0.79841906,-0.79242545,-0.7914163,-0.78643185,-0.7714784,-0.75848204,-0.75050074,-0.7495222,-0.7485131,-0.7405318,-0.7335291,-0.7335291,-0.7355473,-0.7325505,-0.7205633,-0.7046007,-0.6956103,-0.69362265,-0.68863815,-0.6756724,-0.6626761,-0.6546948,-0.6507194,-0.6437167,-0.6287632,-0.61179155,-0.5998043,-0.5908139,-0.5768696,-0.5519166,-0.5279422,-0.5119796,-0.5029892,-0.49201113,-0.4740609,-0.4551015,-0.44311428,-0.44011742,-0.4361421,-0.42415494,-0.41118908,-0.40320784,-0.40418637,-0.40819234,-0.41118908,-0.42017955,-0.44011742,-0.47005492,-0.50399834,-0.5359235,-0.56986684,-0.6107824,-0.6566825,-0.6986071,-0.7285446,-0.75349754,-0.77545375,-0.7974099,-0.8103757,-0.8113848,-0.808388,-0.8103757,-0.8173784,-0.8193661,-0.81239396,-0.80141586,-0.7944131,-0.79343456,-0.79043776,-0.7794597,-0.7654848,-0.7575035,-0.75548524,-0.7515099,-0.7435286,-0.7355473,-0.7315414,-0.7335291,-0.7305628,-0.7175665,-0.7046007,-0.6986071,-0.7035916,-0.7065884,-0.7016039,-0.69463176,-0.6926135,-0.69762856,-0.70261306,-0.6986071,-0.6896167,-0.6846322,-0.687629,-0.69163495,-0.69062585,-0.6866505,-0.6846322,-0.687629,-0.68863815,-0.68564135,-0.6806569,-0.6816354,-0.6866505,-0.68863815,-0.68264455,-0.6746633,-0.6726756,-0.67964774,-0.6866505,-0.6866505,-0.6846322,-0.6866505,-0.69362265,-0.7005948,-0.69961625,-0.69463176,-0.69163495,-0.69362265,-0.69463176,-0.6896167,-0.6846322,-0.68264455,-0.6866505,-0.6896167,-0.6866505,-0.68264455,-0.6816354,-0.68564135,-0.687629,-0.68564135,-0.6816354,-0.6836537,-0.68863815,-0.6896167,-0.6836537,-0.6776601,-0.6756724,-0.67964774,-0.6816354,-0.6786386,-0.6746633,-0.6746633,-0.6756724,-0.6726756,-0.6656729,-0.6626761,-0.666682,-0.6756724,-0.6806569,-0.6776601,-0.6716665,-0.6726756,-0.6786386,-0.67964774,-0.6716665,-0.6606884,-0.6537162,-0.6507194,-0.6457044,-0.6367445,-0.6287632,-0.6327386,-0.6477226,-0.6566825,-0.651698,-0.6377231,-0.6227696,-0.6157669,-0.6047888,-0.5818541,-0.5578796,-0.5399294,-0.5379417,-0.545923,-0.5539043,-0.5658915,-0.58882624,-0.6287632,-0.67365414,-0.7115729,-0.7355473,-0.7485131,-0.75548524,-0.752519,-0.7435286,-0.7335291,-0.7305628,-0.7335291,-0.7345382,-0.727566,-0.7205633,-0.71658796,-0.7195847,-0.722551,-0.7215724,-0.7295537,-0.7605003,-0.8143816,-0.8642876,-0.8702812,-0.79242545,-0.59882575,-0.28244883,0.11178374,0.52194846,0.8243505,0.8972217,0.712582,0.31437385,-0.16967112,-0.5838418,-0.8353287,-0.9221748,-0.90220636,-0.8503127,-0.8253597,-0.8393346,-0.87125975,-0.89422506,-0.8982004,-0.89223737,-0.88324696,-0.8762442,-0.8672844,-0.8503127,-0.8353287,-0.8283565,-0.8303442,-0.8293656,-0.8163693,-0.8004067,-0.7884195,-0.78744096,-0.7884195,-0.78144735,-0.7714784,-0.7634971,-0.7614789,-0.75848204,-0.7495222,-0.7385441,-0.7305628,-0.7305628,-0.7285446,-0.7195847,-0.70860666,-0.69961625,-0.69661945,-0.69463176,-0.68564135,-0.6746633,-0.66766053,-0.6656729,-0.6606884,-0.6467135,-0.6287632,-0.61478835,-0.60579795,-0.59481984,-0.5758605,-0.5549134,-0.5349449,-0.5239668,-0.5119796,-0.49601704,-0.47904533,-0.46507043,-0.46207362,-0.4580983,-0.45109558,-0.44311428,-0.4391389,-0.44311428,-0.4471202,-0.450117,-0.4551015,-0.47005492,-0.49800467,-0.5299604,-0.5578796,-0.5878477,-0.6257664,-0.6696788,-0.71059436,-0.7395227,-0.762488,-0.78744096,-0.81539077,-0.8363378,-0.8423314,-0.8403437,-0.8393346,-0.84330994,-0.8453282,-0.8393346,-0.8293656,-0.823372,-0.8213538,-0.8173784,-0.8113848,-0.8034035,-0.8034035,-0.80740947,-0.8053912,-0.79242545,-0.7744752,-0.762488,-0.762488,-0.762488,-0.7564944,-0.7445072,-0.7345382,-0.7295537,-0.7265569,-0.7215724,-0.7145697,-0.7145697,-0.7205633,-0.7265569,-0.7235601,-0.71658796,-0.7115729,-0.7135911,-0.7145697,-0.71059436,-0.7075975,-0.7065884,-0.7115729,-0.7155788,-0.712582,-0.70860666,-0.70860666,-0.7145697,-0.7155788,-0.7075975,-0.69961625,-0.7005948,-0.71059436,-0.7215724,-0.7205633,-0.7135911,-0.7075975,-0.70860666,-0.71059436,-0.7075975,-0.7005948,-0.7005948,-0.71059436,-0.7215724,-0.7255478,-0.7235601,-0.7185756,-0.71658796,-0.7145697,-0.7065884,-0.69762856,-0.69961625,-0.70860666,-0.7175665,-0.71658796,-0.70860666,-0.7016039,-0.7005948,-0.7005948,-0.69961625,-0.69661945,-0.69762856,-0.7035916,-0.7065884,-0.70261306,-0.6956103,-0.69362265,-0.69961625,-0.70261306,-0.69961625,-0.6896167,-0.67964774,-0.6756724,-0.67065734,-0.6656729,-0.6616975,-0.6626761,-0.6716665,-0.6756724,-0.6696788,-0.6546948,-0.6407199,-0.63176,-0.6217605,-0.60280114,-0.5848509,-0.570876,-0.5718546,-0.5798358,-0.5858294,-0.59481984,-0.61778516,-0.6576916,-0.7046007,-0.7415409,-0.7614789,-0.7674725,-0.76447564,-0.75848204,-0.7465254,-0.7365259,-0.7335291,-0.737535,-0.7395227,-0.7345382,-0.727566,-0.7265569,-0.7345382,-0.7435286,-0.7445072,-0.75050074,-0.7744752,-0.8193661,-0.86028165,-0.8493036,-0.7495222,-0.5389203,-0.23453057,0.11875594,0.46207356,0.6816354,0.687629,0.45708907,0.041909337,-0.41617358,-0.76946014,-0.9431219,-0.9581059,-0.89021915,-0.8223629,-0.7974099,-0.8113848,-0.8403437,-0.86028165,-0.8612908,-0.8552972,-0.8493036,-0.8473159,-0.84330994,-0.8283565,-0.808388,-0.79343456,-0.7884195,-0.78643185,-0.7794597,-0.76946014,-0.7614789,-0.7605003,-0.75848204,-0.752519,-0.7415409,-0.7345382,-0.7355473,-0.7345382,-0.727566,-0.71658796,-0.7075975,-0.7046007,-0.70261306,-0.69661945,-0.687629,-0.6816354,-0.6806569,-0.6746633,-0.6596793,-0.6427381,-0.6307509,-0.6287632,-0.6277541,-0.6197728,-0.6038102,-0.58882624,-0.5788573,-0.5668701,-0.5489198,-0.5229577,-0.49901384,-0.48305124,-0.47106403,-0.4580983,-0.4441234,-0.43213618,-0.42715168,-0.42115808,-0.41317677,-0.40718317,-0.40718317,-0.41718274,-0.42715168,-0.43213618,-0.43812978,-0.45109558,-0.4800545,-0.5149764,-0.5489198,-0.58283263,-0.62078196,-0.666682,-0.70860666,-0.7405318,-0.762488,-0.78043824,-0.8023944,-0.8213538,-0.8293656,-0.8283565,-0.8263688,-0.8253597,-0.823372,-0.81539077,-0.80441266,-0.79643136,-0.79643136,-0.79643136,-0.79043776,-0.7794597,-0.77046925,-0.7674725,-0.7654848,-0.75848204,-0.747504,-0.7395227,-0.7365259,-0.7315414,-0.7215724,-0.7095852,-0.7016039,-0.70261306,-0.70560986,-0.7035916,-0.6956103,-0.6896167,-0.6896167,-0.687629,-0.6806569,-0.67065734,-0.6656729,-0.6696788,-0.6756724,-0.6756724,-0.6696788,-0.666682,-0.67065734,-0.6746633,-0.6746633,-0.6716665,-0.67065734,-0.6756724,-0.6806569,-0.67964774,-0.6746633,-0.6756724,-0.6836537,-0.69062585,-0.69163495,-0.6836537,-0.6776601,-0.67964774,-0.6816354,-0.6806569,-0.6756724,-0.67665094,-0.6836537,-0.69062585,-0.69062585,-0.68264455,-0.6756724,-0.6786386,-0.6816354,-0.6806569,-0.6746633,-0.6696788,-0.6726756,-0.67665094,-0.6756724,-0.6646943,-0.651698,-0.6437167,-0.6407199,-0.6367445,-0.6367445,-0.6437167,-0.6546948,-0.6587007,-0.64870113,-0.626745,-0.6077856,-0.5938107,-0.58084494,-0.56387323,-0.545923,-0.5389203,-0.5479107,-0.5628947,-0.5778482,-0.59283215,-0.616776,-0.6537162,-0.69463176,-0.7235601,-0.7355473,-0.737535,-0.7365259,-0.7335291,-0.7265569,-0.7185756,-0.7145697,-0.7185756,-0.7215724,-0.7195847,-0.7095852,-0.7046007,-0.7035916,-0.7035916,-0.7065884,-0.722551,-0.7614789,-0.8173784,-0.8523004,-0.8103757,-0.6576916,-0.3762672,-0.007996559,0.39421725,0.7435286,0.9151721,0.8423313,0.52595437,0.06086874,-0.39320832,-0.7065884,-0.8493036,-0.86927205,-0.8393346,-0.8203752,-0.8263688,-0.848325,-0.8702812,-0.879241,-0.87125975,-0.8533095,-0.8383255,-0.8303442,-0.8263688,-0.8193661,-0.808388,-0.79841906,-0.7944131,-0.78942865,-0.78043824,-0.7674725,-0.7564944,-0.75349754,-0.75050074,-0.7425195,-0.7315414,-0.7245692,-0.7245692,-0.7245692,-0.7185756,-0.7075975,-0.7005948,-0.7005948,-0.7016039,-0.69463176,-0.67964774,-0.66766053,-0.6626761,-0.6596793,-0.6527071,-0.6397413,-0.626745,-0.6187637,-0.6107824,-0.5978166,-0.5788573,-0.5628947,-0.5519166,-0.5419171,-0.5259545,-0.5050074,-0.48503894,-0.47005492,-0.45608002,-0.4391389,-0.42115808,-0.40819234,-0.40620464,-0.40519553,-0.40021104,-0.39021146,-0.38424844,-0.3872453,-0.39721423,-0.41118908,-0.42715168,-0.45311385,-0.48901433,-0.5289513,-0.5658915,-0.59882575,-0.6347263,-0.67365414,-0.71059436,-0.7395227,-0.7575035,-0.7734661,-0.79343456,-0.808388,-0.81239396,-0.8064003,-0.79841906,-0.79643136,-0.79542226,-0.79343456,-0.7854533,-0.7794597,-0.7794597,-0.77845055,-0.76946014,-0.7545067,-0.7425195,-0.7395227,-0.7395227,-0.737535,-0.7285446,-0.7195847,-0.71658796,-0.7155788,-0.71059436,-0.69961625,-0.69163495,-0.6926135,-0.6926135,-0.6896167,-0.67964774,-0.67065734,-0.6696788,-0.6746633,-0.6786386,-0.6786386,-0.6806569,-0.6866505,-0.68863815,-0.6836537,-0.67065734,-0.6626761,-0.6626761,-0.666682,-0.6696788,-0.666682,-0.666682,-0.6716665,-0.6746633,-0.6726756,-0.6646943,-0.6606884,-0.6656729,-0.6746633,-0.6776601,-0.6746633,-0.6716665,-0.67365414,-0.67665094,-0.67665094,-0.6716665,-0.67065734,-0.67665094,-0.68264455,-0.6836537,-0.6776601,-0.6726756,-0.67365414,-0.67665094,-0.6756724,-0.6696788,-0.666682,-0.66766053,-0.6696788,-0.666682,-0.6566825,-0.651698,-0.6546948,-0.6606884,-0.6616975,-0.6557039,-0.651698,-0.6497103,-0.6467135,-0.6377231,-0.6237482,-0.61478835,-0.61778516,-0.626745,-0.6307509,-0.6277541,-0.62078196,-0.6127701,-0.6038102,-0.5858294,-0.5588888,-0.5369326,-0.5269636,-0.5289513,-0.5389203,-0.5469016,-0.5618856,-0.5898354,-0.626745,-0.666682,-0.7016039,-0.7285446,-0.7465254,-0.752519,-0.7435286,-0.7295537,-0.722551,-0.7265569,-0.7325505,-0.7335291,-0.7255478,-0.7175665,-0.7175665,-0.7175665,-0.7135911,-0.7035916,-0.7065884,-0.7395227,-0.79542226,-0.8513218,-0.8672844,-0.80441266,-0.6277541,-0.31837994,0.087809324,0.52396667,0.8722688,1.0,0.8642876,0.49901366,0.01695633,-0.42614257,-0.7245692,-0.8563063,-0.87125975,-0.8443191,-0.8363378,-0.858294,-0.88624376,-0.9011972,-0.89722186,-0.88624376,-0.87725335,-0.8702812,-0.8612908,-0.8473159,-0.8363378,-0.8303442,-0.8243506,-0.81239396,-0.7974099,-0.7854533,-0.78144735,-0.78245646,-0.77744144,-0.76646334,-0.75848204,-0.7575035,-0.75848204,-0.7545067,-0.7415409,-0.7305628,-0.727566,-0.7265569,-0.7205633,-0.70860666,-0.69661945,-0.69062585,-0.6866505,-0.6776601,-0.6626761,-0.64870113,-0.6427381,-0.6397413,-0.63176,-0.61778516,-0.6038102,-0.5938107,-0.58683854,-0.57286364,-0.5519166,-0.5299604,-0.5119796,-0.49500793,-0.47305173,-0.44809872,-0.43014848,-0.42314577,-0.41917044,-0.41118908,-0.39620507,-0.38522702,-0.38223016,-0.38522702,-0.38923293,-0.39021146,-0.39920187,-0.42314577,-0.45708913,-0.49103254,-0.5219791,-0.5549134,-0.59582895,-0.6397413,-0.67964774,-0.7115729,-0.7385441,-0.76646334,-0.79043776,-0.8034035,-0.8053912,-0.8053912,-0.80939716,-0.8143816,-0.8113848,-0.8004067,-0.79043776,-0.78643185,-0.78643185,-0.78245646,-0.77245694,-0.7634971,-0.7594912,-0.7564944,-0.7495222,-0.7365259,-0.7255478,-0.722551,-0.7215724,-0.7185756,-0.7095852,-0.7005948,-0.69661945,-0.69362265,-0.687629,-0.6776601,-0.6746633,-0.6816354,-0.6896167,-0.69163495,-0.6866505,-0.6806569,-0.6836537,-0.69163495,-0.69463176,-0.6896167,-0.6846322,-0.6836537,-0.68564135,-0.6836537,-0.67665094,-0.6746633,-0.6816354,-0.69062585,-0.6926135,-0.6836537,-0.67365414,-0.6716665,-0.6776601,-0.6836537,-0.6816354,-0.6786386,-0.6786386,-0.67964774,-0.6776601,-0.6726756,-0.67065734,-0.6746633,-0.6806569,-0.6836537,-0.6786386,-0.6746633,-0.67665094,-0.6806569,-0.6816354,-0.6786386,-0.6776601,-0.6806569,-0.6836537,-0.68264455,-0.6746633,-0.67065734,-0.67365414,-0.6806569,-0.6836537,-0.67964774,-0.67665094,-0.67964774,-0.6836537,-0.6806569,-0.6686697,-0.6587007,-0.6596793,-0.6686697,-0.67665094,-0.6746633,-0.67065734,-0.66766053,-0.66766053,-0.6636852,-0.651698,-0.6387322,-0.6347263,-0.63176,-0.6277541,-0.6237482,-0.6247573,-0.6327386,-0.6437167,-0.6447258,-0.6297418,-0.60980386,-0.58683854,-0.5668701,-0.5469016,-0.5269636,-0.52097005,-0.53295726,-0.55589193,-0.5798358,-0.60280114,-0.63176,-0.67065734,-0.71059436,-0.7355473,-0.7425195,-0.7385441,-0.7355473,-0.7355473,-0.7335291,-0.7255478,-0.7195847,-0.7215724,-0.727566,-0.7295537,-0.7235601,-0.71658796,-0.71658796,-0.7245692,-0.7425195,-0.7734661,-0.8193661,-0.8642876,-0.8612908,-0.75848204,-0.5169641,-0.15569633,0.25847435,0.65368557,0.9041939,0.919178,0.67766,0.23651814,-0.25948358,-0.6467135,-0.8513218,-0.90220636,-0.87725335,-0.8503127,-0.8513218,-0.8672844,-0.88624376,-0.89920956,-0.90520316,-0.90220636,-0.88924056,-0.87526566,-0.86327845,-0.8533095,-0.8413223,-0.8243506,-0.8103757,-0.80441266,-0.8023944,-0.80141586,-0.7944131,-0.78744096,-0.7854533,-0.78245646,-0.77646285,-0.7634971,-0.75349754,-0.75050074,-0.7515099,-0.7485131,-0.7385441,-0.7305628,-0.727566,-0.7255478,-0.7185756,-0.7035916,-0.69062585,-0.687629,-0.6896167,-0.6866505,-0.6746633,-0.6616975,-0.651698,-0.6437167,-0.6337477,-0.6157669,-0.59882575,-0.5858294,-0.5768696,-0.5598979,-0.5369326,-0.5119796,-0.49302024,-0.48305124,-0.47507,-0.4630828,-0.45210463,-0.4441234,-0.4391389,-0.43412387,-0.42516398,-0.42115808,-0.42614257,-0.43812978,-0.45210463,-0.46607953,-0.48901433,-0.5229577,-0.5628947,-0.601792,-0.6347263,-0.6696788,-0.71059436,-0.7545067,-0.78942865,-0.8103757,-0.8243506,-0.8383255,-0.8513218,-0.85728484,-0.8513218,-0.8423314,-0.8363378,-0.8343501,-0.8273474,-0.8173784,-0.80740947,-0.80441266,-0.80740947,-0.80740947,-0.79841906,-0.78643185,-0.7794597,-0.77545375,-0.76946014,-0.75848204,-0.7495222,-0.7465254,-0.7465254,-0.7445072,-0.737535,-0.7315414,-0.7285446,-0.7285446,-0.7245692,-0.7155788,-0.7115729,-0.7135911,-0.7185756,-0.71658796,-0.7075975,-0.7016039,-0.7035916,-0.7115729,-0.7155788,-0.71059436,-0.7035916,-0.70261306,-0.7075975,-0.71059436,-0.7075975,-0.7065884,-0.70860666,-0.7155788,-0.7185756,-0.7135911,-0.7095852,-0.7135911,-0.7215724,-0.7245692,-0.7185756,-0.71059436,-0.7075975,-0.7135911,-0.7175665,-0.71658796,-0.7145697,-0.71658796,-0.7205633,-0.722551,-0.7185756,-0.7155788,-0.7185756,-0.7235601,-0.7245692,-0.7175665,-0.7095852,-0.7095852,-0.7135911,-0.7155788,-0.71059436,-0.7035916,-0.70261306,-0.7046007,-0.7016039,-0.69362265,-0.6896167,-0.6926135,-0.70261306,-0.70860666,-0.7035916,-0.69362265,-0.6846322,-0.6816354,-0.67964774,-0.67065734,-0.6636852,-0.6656729,-0.67065734,-0.6726756,-0.6656729,-0.6546948,-0.6457044,-0.6387322,-0.6247573,-0.6047888,-0.5848509,-0.5738728,-0.57485133,-0.5798358,-0.5858294,-0.60081345,-0.6327386,-0.67665094,-0.7185756,-0.7445072,-0.7575035,-0.7634971,-0.7684816,-0.7684816,-0.7614789,-0.7545067,-0.7545067,-0.75848204,-0.7594912,-0.752519,-0.7415409,-0.7345382,-0.7365259,-0.737535,-0.7365259,-0.7495222,-0.78444415,-0.8353287,-0.86927205,-0.8343501,-0.6986071,-0.44611108,-0.110774815,0.25648665,0.5788572,0.7375349,0.66466355,0.36027396,-0.09083688,-0.5339358,-0.8393346,-0.96406895,-0.9511032,-0.88025016,-0.8223629,-0.8103757,-0.8323319,-0.8612908,-0.87526566,-0.86826295,-0.8513218,-0.8403437,-0.8373469,-0.8353287,-0.8253597,-0.8143816,-0.8064003,-0.8034035,-0.7993976,-0.78942865,-0.7794597,-0.77545375,-0.7734661,-0.76946014,-0.7575035,-0.7445072,-0.7395227,-0.7395227,-0.737535,-0.727566,-0.7185756,-0.7145697,-0.7175665,-0.7185756,-0.70860666,-0.69463176,-0.68264455,-0.67665094,-0.6716665,-0.6636852,-0.6546948,-0.6507194,-0.6467135,-0.6387322,-0.6247573,-0.60879475,-0.5978166,-0.5878477,-0.5718546,-0.5469016,-0.5219791,-0.50399834,-0.49103254,-0.47705764,-0.4580983,-0.44311428,-0.4361421,-0.43712068,-0.43513298,-0.42516398,-0.41617358,-0.41418594,-0.42017955,-0.42614257,-0.42913938,-0.4361421,-0.45608002,-0.49103254,-0.530939,-0.5688577,-0.6077856,-0.64870113,-0.6926135,-0.7305628,-0.7575035,-0.7794597,-0.8023944,-0.823372,-0.8373469,-0.8373469,-0.8323319,-0.8313533,-0.8343501,-0.8343501,-0.8243506,-0.81239396,-0.80740947,-0.80939716,-0.808388,-0.8004067,-0.78744096,-0.78043824,-0.78043824,-0.7794597,-0.76946014,-0.75548524,-0.7455163,-0.7415409,-0.737535,-0.7285446,-0.7205633,-0.7175665,-0.7185756,-0.7155788,-0.70560986,-0.69362265,-0.6896167,-0.69362265,-0.6956103,-0.69163495,-0.6836537,-0.67964774,-0.67964774,-0.67964774,-0.67665094,-0.6746633,-0.6776601,-0.68564135,-0.68863815,-0.6846322,-0.6806569,-0.6816354,-0.687629,-0.6896167,-0.6846322,-0.6776601,-0.67665094,-0.6836537,-0.68863815,-0.6866505,-0.6816354,-0.6816354,-0.6896167,-0.69463176,-0.6926135,-0.687629,-0.68564135,-0.68863815,-0.69062585,-0.687629,-0.68264455,-0.6816354,-0.68564135,-0.68564135,-0.6816354,-0.6776601,-0.67964774,-0.68863815,-0.69362265,-0.6866505,-0.6756724,-0.666682,-0.6626761,-0.6587007,-0.6537162,-0.6477226,-0.6497103,-0.6596793,-0.6656729,-0.6606884,-0.64870113,-0.6337477,-0.6227696,-0.60980386,-0.58882624,-0.5658915,-0.5469016,-0.5419171,-0.5479107,-0.5578796,-0.57485133,-0.60081345,-0.6357354,-0.6726756,-0.7046007,-0.7265569,-0.7395227,-0.7465254,-0.7445072,-0.7325505,-0.722551,-0.7205633,-0.7245692,-0.7265569,-0.7215724,-0.7145697,-0.7135911,-0.71658796,-0.71658796,-0.7095852,-0.7035916,-0.7205633,-0.76646334,-0.8213538,-0.8523004,-0.8133725,-0.6726756,-0.40620464,-0.040930867,0.36727667,0.7215724,0.8912281,0.8143815,0.50497675,0.051878214,-0.39721423,-0.7205633,-0.87526566,-0.89523417,-0.8533095,-0.8203752,-0.8243506,-0.8503127,-0.87226886,-0.87425655,-0.86526614,-0.858294,-0.8552972,-0.8513218,-0.8393346,-0.8253597,-0.8173784,-0.81539077,-0.8113848,-0.79841906,-0.78245646,-0.77046925,-0.7684816,-0.76646334,-0.75848204,-0.7495222,-0.7425195,-0.7405318,-0.7385441,-0.7305628,-0.722551,-0.7185756,-0.7185756,-0.7155788,-0.70560986,-0.69362265,-0.68564135,-0.6846322,-0.6806569,-0.6696788,-0.6566825,-0.6477226,-0.6457044,-0.641729,-0.6297418,-0.61478835,-0.59882575,-0.5858294,-0.56986684,-0.5479107,-0.5259545,-0.5089828,-0.49702615,-0.48305124,-0.4610951,-0.4391389,-0.42415494,-0.41917044,-0.41816127,-0.41118908,-0.40118957,-0.39721423,-0.39822334,-0.40021104,-0.40118957,-0.40920144,-0.43014848,-0.46409184,-0.50002295,-0.5319481,-0.5628947,-0.601792,-0.6497103,-0.69463176,-0.7265569,-0.7485131,-0.7714784,-0.7944131,-0.81239396,-0.8173784,-0.8143816,-0.81239396,-0.8163693,-0.81838757,-0.81239396,-0.8023944,-0.79643136,-0.79841906,-0.8004067,-0.79343456,-0.78144735,-0.7714784,-0.7684816,-0.7674725,-0.7634971,-0.7564944,-0.75050074,-0.7495222,-0.7445072,-0.7345382,-0.722551,-0.7155788,-0.71658796,-0.7175665,-0.7115729,-0.7016039,-0.69463176,-0.69762856,-0.7005948,-0.6986071,-0.69163495,-0.6866505,-0.6866505,-0.687629,-0.687629,-0.68564135,-0.6866505,-0.6896167,-0.687629,-0.6806569,-0.6756724,-0.6786386,-0.687629,-0.6926135,-0.687629,-0.67964774,-0.6746633,-0.67964774,-0.6866505,-0.68564135,-0.6816354,-0.6786386,-0.68264455,-0.6846322,-0.68264455,-0.67964774,-0.68264455,-0.69163495,-0.6986071,-0.69762856,-0.69062585,-0.687629,-0.69163495,-0.69463176,-0.6896167,-0.6806569,-0.6756724,-0.6756724,-0.67665094,-0.6756724,-0.6716665,-0.67365414,-0.67964774,-0.6836537,-0.6816354,-0.6756724,-0.67365414,-0.6776601,-0.6776601,-0.67365414,-0.67065734,-0.6716665,-0.6756724,-0.6746633,-0.6616975,-0.6437167,-0.6327386,-0.6327386,-0.6327386,-0.63176,-0.6307509,-0.6347263,-0.6427381,-0.641729,-0.6277541,-0.6047888,-0.5798358,-0.56387323,-0.5498983,-0.5349449,-0.5259545,-0.5299604,-0.5469016,-0.56986684,-0.5938107,-0.6247573,-0.6656729,-0.7095852,-0.737535,-0.7455163,-0.737535,-0.7285446,-0.7255478,-0.7255478,-0.7215724,-0.7175665,-0.71658796,-0.722551,-0.722551,-0.7145697,-0.70261306,-0.6986071,-0.70560986,-0.7235601,-0.75349754,-0.79643136,-0.84330994,-0.858294,-0.79043776,-0.5938107,-0.26348948,0.14670575,0.56286407,0.8752656,0.9720502,0.81536007,0.43213606,-0.05989027,-0.49302024,-0.7614789,-0.86327845,-0.8622999,-0.8403437,-0.8383255,-0.8552972,-0.87425655,-0.89122826,-0.9011972,-0.90021867,-0.88624376,-0.8642876,-0.8473159,-0.8403437,-0.8353287,-0.8273474,-0.81838757,-0.8113848,-0.80740947,-0.8004067,-0.78744096,-0.7734661,-0.7674725,-0.77046925,-0.7744752,-0.76946014,-0.7575035,-0.7455163,-0.7395227,-0.7335291,-0.7245692,-0.7145697,-0.70860666,-0.70860666,-0.70860666,-0.70261306,-0.69163495,-0.6806569,-0.67665094,-0.67065734,-0.6587007,-0.641729,-0.6277541,-0.6217605,-0.6157669,-0.601792,-0.58084494,-0.5628947,-0.5509075,-0.5399294,-0.5229577,-0.50002295,-0.47803622,-0.4630828,-0.450117,-0.4361421,-0.42216724,-0.41317677,-0.41118908,-0.40920144,-0.40320784,-0.3952266,-0.39620507,-0.41018003,-0.42715168,-0.44311428,-0.46207362,-0.49002343,-0.53295726,-0.5788573,-0.6187637,-0.6527071,-0.6866505,-0.7245692,-0.7594912,-0.78245646,-0.79643136,-0.80740947,-0.8213538,-0.8303442,-0.8293656,-0.8203752,-0.8133725,-0.8133725,-0.8143816,-0.808388,-0.7974099,-0.79043776,-0.78942865,-0.78744096,-0.7794597,-0.7684816,-0.7594912,-0.7564944,-0.75349754,-0.7425195,-0.7295537,-0.7235601,-0.7255478,-0.7265569,-0.7215724,-0.7115729,-0.7065884,-0.71059436,-0.7145697,-0.71059436,-0.7035916,-0.69961625,-0.7035916,-0.70560986,-0.69961625,-0.687629,-0.6806569,-0.6836537,-0.6896167,-0.6896167,-0.68564135,-0.6816354,-0.68564135,-0.69062585,-0.69163495,-0.68564135,-0.6816354,-0.6846322,-0.6896167,-0.6926135,-0.6926135,-0.6926135,-0.69661945,-0.69762856,-0.6926135,-0.6846322,-0.6816354,-0.687629,-0.69362265,-0.69362265,-0.687629,-0.68564135,-0.6926135,-0.69961625,-0.6986071,-0.6896167,-0.6816354,-0.68264455,-0.6866505,-0.687629,-0.6836537,-0.6806569,-0.68264455,-0.6836537,-0.6806569,-0.6746633,-0.6716665,-0.6746633,-0.6776601,-0.6776601,-0.6746633,-0.6746633,-0.67964774,-0.6816354,-0.6776601,-0.6686697,-0.6646943,-0.6686697,-0.67365414,-0.67365414,-0.6686697,-0.6656729,-0.6696788,-0.67365414,-0.67365414,-0.67065734,-0.66766053,-0.6696788,-0.67065734,-0.6656729,-0.6566825,-0.6507194,-0.6497103,-0.6447258,-0.6357354,-0.6237482,-0.61778516,-0.6227696,-0.6297418,-0.6297418,-0.6227696,-0.6157669,-0.61179155,-0.60579795,-0.58882624,-0.5648824,-0.5439353,-0.5349449,-0.5369326,-0.5439353,-0.5549134,-0.57485133,-0.60879475,-0.651698,-0.69362265,-0.7205633,-0.737535,-0.7465254,-0.7455163,-0.737535,-0.727566,-0.722551,-0.7265569,-0.7325505,-0.7325505,-0.727566,-0.7215724,-0.722551,-0.722551,-0.7205633,-0.7205633,-0.7405318,-0.7884195,-0.8463068,-0.88324696,-0.8463068,-0.70261306,-0.43014848,-0.05490583,0.36525834,0.7405318,0.9281378,0.8582939,0.5429261,0.074843645,-0.39122063,-0.7235601,-0.88425606,-0.9091785,-0.87125975,-0.8383255,-0.8413223,-0.86927205,-0.89722186,