-0.4997602,-0.49385065,-0.49187046,-0.49679,-0.49778003,-0.48890024,-0.4790303,-0.47510093,-0.4800204,-0.48890024,-0.49480975,-0.49679,-0.49579984,-0.48989034,-0.4810105,-0.47114056,-0.46622115,-0.47213066,-0.47804022,-0.4800204,-0.47804022,-0.47411084,-0.47609103,-0.47411084,-0.46916044,-0.46028066,-0.45929056,-0.46622115,-0.47213066,-0.47114056,-0.46325088,-0.45635122,-0.45929056,-0.46523106,-0.46325088,-0.45437104,-0.44747138,-0.44846147,-0.453381,-0.4523909,-0.44252098,-0.42971176,-0.42278123,-0.4198419,-0.41294223,-0.4050216,-0.399112,-0.4050216,-0.4109621,-0.40109217,-0.3754428,-0.3418728,-0.31721348,-0.3073436,-0.3083337,-0.31919372,-0.3448431,-0.3892421,-0.44153088,-0.4820006,-0.5007503,-0.5007503,-0.49579984,-0.48989034,-0.48398072,-0.4790303,-0.47609103,-0.4820006,-0.48692006,-0.48890024,-0.48692006,-0.48692006,-0.49480975,-0.50368965,-0.5056698,-0.49480975,-0.47804022,-0.46916044,-0.47015053,-0.47213066,-0.4376015,-0.3280735,-0.08831859,0.27182448,0.638867,0.8608624,0.80758345,0.4681703,-0.017280042,-0.46523106,-0.7552946,-0.8766727,-0.8914621,-0.85495275,-0.79774445,-0.7197754,-0.6289971,-0.5510589,-0.4997602,-0.4800204,-0.47804022,-0.4810105,-0.4820006,-0.47114056,-0.44549125,-0.42773163,-0.4178617,-0.42575145,-0.4366114,-0.4366114,-0.42278123,-0.40700173,-0.4060117,-0.4119522,-0.41294223,-0.4050216,-0.3912223,-0.38234246,-0.37937218,-0.3754428,-0.3695023,-0.36458284,-0.36458284,-0.36458284,-0.35963243,-0.35273278,-0.343853,-0.3497935,-0.35471296,-0.3507526,-0.3428629,-0.33104372,-0.32609332,-0.32411313,-0.31721348,-0.30341423,-0.28958404,-0.2856546,-0.2846645,-0.2816943,-0.27578473,-0.26789498,-0.2649247,-0.2619545,-0.25505483,-0.2451849,-0.23729521,-0.23138559,-0.23237574,-0.23039556,-0.23138559,-0.24125552,-0.25505483,-0.2639346,-0.26591486,-0.2669049,-0.27578473,-0.29552454,-0.31919372,-0.33794343,-0.35372287,-0.37445277,-0.40208226,-0.42872173,-0.44846147,-0.46424097,-0.4731208,-0.48989034,-0.5027305,-0.51062024,-0.51553965,-0.5224393,-0.53428936,-0.5441593,-0.5461394,-0.5441593,-0.5461394,-0.5530391,-0.5579586,-0.55696845,-0.5461394,-0.53824973,-0.5411891,-0.5510589,-0.5560093,-0.55501926,-0.5461394,-0.5411891,-0.5392089,-0.53626955,-0.53725964,-0.53824973,-0.5411891,-0.5421791,-0.5352795,-0.5244195,-0.5145496,-0.51062024,-0.5096301,-0.50174034,-0.49480975,-0.49088037,-0.49679,-0.5027305,-0.5007503,-0.49286056,-0.48299068,-0.4790303,-0.47510093,-0.46622115,-0.45536113,-0.45041072,-0.4573413,-0.47411084,-0.48299068,-0.48592997,-0.48592997,-0.49187046,-0.49778003,-0.49877012,-0.49579984,-0.49286056,-0.49385065,-0.49385065,-0.49187046,-0.4820006,-0.4820006,-0.48989034,-0.49877012,-0.5007503,-0.49385065,-0.48299068,-0.48398072,-0.49286056,-0.49679,-0.49480975,-0.49088037,-0.48890024,-0.49088037,-0.49088037,-0.48592997,-0.4810105,-0.4820006,-0.48692006,-0.48592997,-0.4800204,-0.47411084,-0.4731208,-0.47804022,-0.4820006,-0.48299068,-0.48398072,-0.48890024,-0.48791015,-0.4790303,-0.46817034,-0.45536113,-0.4573413,-0.46424097,-0.47015053,-0.4731208,-0.47510093,-0.4810105,-0.4849708,-0.4820006,-0.47411084,-0.46622115,-0.46817034,-0.47411084,-0.4731208,-0.46523106,-0.4573413,-0.45929056,-0.46226078,-0.46226078,-0.45830047,-0.453381,-0.44942063,-0.4405408,-0.42278123,-0.40406245,-0.39614177,-0.40010208,-0.4050216,-0.40010208,-0.38630283,-0.37346268,-0.36557293,-0.355703,-0.33596325,-0.31229407,-0.29846382,-0.3053944,-0.3270834,-0.36062253,-0.3951826,-0.43070185,-0.46325088,-0.4820006,-0.4810105,-0.47114056,-0.46424097,-0.46817034,-0.47411084,-0.47213066,-0.46817034,-0.4671803,-0.47609103,-0.49088037,-0.49679,-0.49385065,-0.48989034,-0.49088037,-0.49187046,-0.4810105,-0.46916044,-0.4671803,-0.47609103,-0.46424097,-0.3695023,-0.14357764,0.19880581,0.5559784,0.7927941,0.7957643,0.54019904,0.12383783,-0.31523335,-0.6467567,-0.8184434,-0.8658128,-0.83719313,-0.77899474,-0.704986,-0.618168,-0.5411891,-0.4997602,-0.49579984,-0.5125694,-0.5214492,-0.5125694,-0.4997602,-0.49286056,-0.49088037,-0.48299068,-0.47213066,-0.46523106,-0.46523106,-0.46622115,-0.4612707,-0.45041072,-0.4405408,-0.4405408,-0.44450116,-0.44153088,-0.42872173,-0.42476135,-0.42773163,-0.4346313,-0.43364114,-0.42377126,-0.40997195,-0.40109217,-0.39812195,-0.3951826,-0.39320242,-0.39320242,-0.399112,-0.40010208,-0.3902322,-0.37346268,-0.36359274,-0.36359274,-0.36458284,-0.35867327,-0.34583312,-0.33497316,-0.3320338,-0.33299297,-0.32609332,-0.31523335,-0.3053944,-0.30341423,-0.30143404,-0.2935443,-0.28367442,-0.2797141,-0.2876348,-0.29846382,-0.30341423,-0.30341423,-0.3083337,-0.32117385,-0.33794343,-0.3488034,-0.35471296,-0.36458284,-0.38630283,-0.40997195,-0.42674154,-0.4385916,-0.4523909,-0.47015053,-0.48989034,-0.5056698,-0.5145496,-0.5234294,-0.53725964,-0.54907876,-0.55204904,-0.5560093,-0.5668384,-0.584598,-0.59941834,-0.6023576,-0.5934778,-0.5855881,-0.584598,-0.584598,-0.57967854,-0.57079875,-0.56881857,-0.57475907,-0.58363885,-0.58363885,-0.57571816,-0.5648892,-0.5609288,-0.5579586,-0.5510589,-0.5461394,-0.5451494,-0.5510589,-0.5560093,-0.5471295,-0.5352795,-0.5293699,-0.5332993,-0.5411891,-0.53824973,-0.5293699,-0.5214492,-0.5204901,-0.5244195,-0.5244195,-0.5224393,-0.5224393,-0.5283798,-0.53230923,-0.5263996,-0.5195,-0.51652974,-0.5214492,-0.52738976,-0.5254096,-0.51751983,-0.51161027,-0.5145496,-0.5204901,-0.5195,-0.51553965,-0.51652974,-0.5244195,-0.53230923,-0.53131914,-0.5254096,-0.5214492,-0.5244195,-0.5293699,-0.5254096,-0.51751983,-0.51553965,-0.5214492,-0.53032905,-0.53131914,-0.5224393,-0.51161027,-0.51161027,-0.51355946,-0.51355946,-0.51355946,-0.51355946,-0.51652974,-0.51652974,-0.50864005,-0.49778003,-0.49385065,-0.4997602,-0.50764996,-0.50764996,-0.5027305,-0.50174034,-0.50174034,-0.50368965,-0.5007503,-0.49579984,-0.5007503,-0.5145496,-0.5234294,-0.5214492,-0.5125694,-0.50764996,-0.5125694,-0.51652974,-0.5125694,-0.5027305,-0.49385065,-0.49286056,-0.49679,-0.49286056,-0.48299068,-0.47804022,-0.4800204,-0.47804022,-0.4671803,-0.45041072,-0.4376015,-0.4346313,-0.4376015,-0.4376015,-0.4326511,-0.42674154,-0.42182207,-0.4109621,-0.38531268,-0.35867327,-0.34583312,-0.35372287,-0.37247258,-0.39713186,-0.42575145,-0.45536113,-0.49088037,-0.51751983,-0.5244195,-0.5214492,-0.5195,-0.5234294,-0.5263996,-0.5254096,-0.5234294,-0.5263996,-0.5352795,-0.5411891,-0.53725964,-0.5244195,-0.51652974,-0.51652974,-0.5204901,-0.51751983,-0.5096301,-0.50864005,-0.51850986,-0.51652974,-0.44942063,-0.26789498,0.049829006,0.431661,0.7493851,0.8638326,0.7030059,0.31523335,-0.15836698,-0.5619189,-0.8095636,-0.9062824,-0.90232205,-0.85297257,-0.7760245,-0.6823069,-0.60040843,-0.5461394,-0.53032905,-0.5401989,-0.54907876,-0.54808867,-0.5411891,-0.53131914,-0.51751983,-0.50174034,-0.48791015,-0.48299068,-0.48398072,-0.48890024,-0.4849708,-0.4820006,-0.4800204,-0.4820006,-0.4810105,-0.46817034,-0.45536113,-0.44747138,-0.44942063,-0.45635122,-0.45929056,-0.45437104,-0.45140082,-0.44747138,-0.4405408,-0.42872173,-0.41588157,-0.40997195,-0.4119522,-0.4168716,-0.40997195,-0.39713186,-0.38825202,-0.38531268,-0.38333255,-0.37346268,-0.355703,-0.3428629,-0.33992356,-0.33992356,-0.33398306,-0.32216394,-0.3132841,-0.31130397,-0.3083337,-0.30242413,-0.2935443,-0.29156417,-0.2994539,-0.3083337,-0.31229407,-0.31622344,-0.3270834,-0.34682322,-0.36161262,-0.3704924,-0.37346268,-0.38531268,-0.4060117,-0.42872173,-0.44252098,-0.4523909,-0.46523106,-0.48592997,-0.50665987,-0.5214492,-0.5293699,-0.5451494,-0.562909,-0.57769835,-0.58363885,-0.58264875,-0.58657813,-0.5934778,-0.6023576,-0.6033478,-0.59842825,-0.59842825,-0.60532784,-0.6082981,-0.6033478,-0.59644806,-0.5925187,-0.5944679,-0.59842825,-0.5925187,-0.57769835,-0.57079875,-0.57079875,-0.5727788,-0.5717888,-0.5678285,-0.56584835,-0.56881857,-0.5717888,-0.56584835,-0.5560093,-0.55006886,-0.55204904,-0.5530391,-0.5461394,-0.5352795,-0.53131914,-0.5352795,-0.5411891,-0.53824973,-0.53032905,-0.5244195,-0.5244195,-0.5293699,-0.53032905,-0.5293699,-0.53032905,-0.53725964,-0.5421791,-0.5392089,-0.5332993,-0.5332993,-0.53824973,-0.5421791,-0.5401989,-0.53428936,-0.53428936,-0.5392089,-0.5451494,-0.5401989,-0.53131914,-0.5293699,-0.53626955,-0.5471295,-0.54907876,-0.5451494,-0.5401989,-0.5401989,-0.5411891,-0.53428936,-0.5254096,-0.5234294,-0.5293699,-0.53725964,-0.53725964,-0.53032905,-0.52738976,-0.5332993,-0.53725964,-0.5332993,-0.5244195,-0.51652974,-0.51652974,-0.5214492,-0.5224393,-0.51850986,-0.5214492,-0.52738976,-0.5332993,-0.5352795,-0.53131914,-0.5283798,-0.5293699,-0.53230923,-0.53131914,-0.5283798,-0.5283798,-0.52738976,-0.5224393,-0.51161027,-0.5027305,-0.5027305,-0.51062024,-0.51751983,-0.51751983,-0.51355946,-0.50864005,-0.5096301,-0.51062024,-0.5007503,-0.49286056,-0.49187046,-0.49286056,-0.48791015,-0.47213066,-0.4523909,-0.44153088,-0.44549125,-0.453381,-0.4523909,-0.44351113,-0.4346313,-0.42575145,-0.40898192,-0.38333255,-0.36062253,-0.35174274,-0.36062253,-0.38036227,-0.40997195,-0.44351113,-0.48592997,-0.52738976,-0.55006886,-0.54808867,-0.53626955,-0.5283798,-0.52738976,-0.53230923,-0.5332993,-0.53032905,-0.5332993,-0.53725964,-0.5441593,-0.5441593,-0.5441593,-0.54316914,-0.5441593,-0.5411891,-0.5283798,-0.51652974,-0.5204901,-0.5254096,-0.49579984,-0.36851227,-0.10013765,0.28367448,0.66256714,0.8865427,0.845083,0.52243936,0.04292941,-0.42971176,-0.7602451,-0.91711146,-0.9408115,-0.89542246,-0.8273232,-0.7424854,-0.650717,-0.57475907,-0.5332993,-0.5234294,-0.53032905,-0.53131914,-0.52738976,-0.5214492,-0.5214492,-0.51652974,-0.50368965,-0.48791015,-0.4800204,-0.4810105,-0.4790303,-0.47015053,-0.46325088,-0.46028066,-0.4671803,-0.4731208,-0.47114056,-0.46424097,-0.46028066,-0.46226078,-0.45830047,-0.44252098,-0.42872173,-0.42575145,-0.4326511,-0.43958163,-0.43562138,-0.4198419,-0.4060117,-0.40109217,-0.40010208,-0.39320242,-0.38432264,-0.37937218,-0.3754428,-0.3704924,-0.36062253,-0.3497935,-0.343853,-0.343853,-0.33794343,-0.3290636,-0.31622344,-0.31031388,-0.31031388,-0.3083337,-0.30143404,-0.29651457,-0.2994539,-0.30635357,-0.31130397,-0.3093238,-0.31031388,-0.31919372,-0.3418728,-0.36458284,-0.38036227,-0.39320242,-0.40307236,-0.41588157,-0.42773163,-0.4376015,-0.4573413,-0.48791015,-0.5234294,-0.5510589,-0.5609288,-0.5579586,-0.55696845,-0.5648892,-0.57571816,-0.584598,-0.5934778,-0.60139847,-0.6092882,-0.6132176,-0.606318,-0.59743816,-0.60139847,-0.6082981,-0.61222756,-0.606318,-0.5944679,-0.5875683,-0.5885583,-0.5875683,-0.57769835,-0.5698086,-0.56881857,-0.57769835,-0.5855881,-0.58066857,-0.5727788,-0.5698086,-0.5717888,-0.57571816,-0.5678285,-0.5560093,-0.55006886,-0.5510589,-0.5530391,-0.54907876,-0.54316914,-0.5411891,-0.5401989,-0.5392089,-0.53230923,-0.5234294,-0.5254096,-0.5332993,-0.5421791,-0.5441593,-0.5411891,-0.5411891,-0.54316914,-0.5461394,-0.5451494,-0.5421791,-0.54316914,-0.54907876,-0.55402917,-0.55204904,-0.5510589,-0.55204904,-0.5560093,-0.5560093,-0.5451494,-0.5332993,-0.5293699,-0.5293699,-0.53626955,-0.53626955,-0.53626955,-0.5401989,-0.5471295,-0.54808867,-0.53824973,-0.53032905,-0.5254096,-0.5283798,-0.53230923,-0.53032905,-0.5283798,-0.53230923,-0.5421791,-0.54808867,-0.5411891,-0.53230923,-0.5283798,-0.5293699,-0.53131914,-0.5244195,-0.51553965,-0.5125694,-0.51850986,-0.52738976,-0.53032905,-0.5293699,-0.5283798,-0.5293699,-0.52738976,-0.5214492,-0.51553965,-0.5145496,-0.51751983,-0.51751983,-0.51161027,-0.50764996,-0.51062024,-0.51553965,-0.5125694,-0.49778003,-0.4800204,-0.47015053,-0.46523106,-0.45830047,-0.44153088,-0.42773163,-0.42773163,-0.44153088,-0.45041072,-0.44252098,-0.42674154,-0.40997195,-0.3951826,-0.3764329,-0.3507526,-0.3290636,-0.3270834,-0.34682322,-0.37937218,-0.41489148,-0.4523909,-0.48791015,-0.51751983,-0.53230923,-0.5293699,-0.51751983,-0.5056698,-0.50368965,-0.50864005,-0.51062024,-0.51355946,-0.5195,-0.5195,-0.51652974,-0.51161027,-0.50665987,-0.5096301,-0.51652974,-0.51553965,-0.5046797,-0.4997602,-0.50665987,-0.50174034,-0.431661,-0.22544509,0.1277672,0.53821874,0.8500333,0.91810155,0.68821645,0.24026549,-0.26294458,-0.66058695,-0.88357234,-0.9506815,-0.92500114,-0.8668028,-0.79378414,-0.70102566,-0.60532784,-0.5332993,-0.5027305,-0.50665987,-0.5224393,-0.52738976,-0.51652974,-0.50368965,-0.49385065,-0.4800204,-0.46028066,-0.44942063,-0.44846147,-0.453381,-0.45830047,-0.44942063,-0.43958163,-0.4376015,-0.44351113,-0.44747138,-0.4385916,-0.42575145,-0.41588157,-0.4168716,-0.42182207,-0.42083198,-0.4168716,-0.4119522,-0.40997195,-0.4060117,-0.3951826,-0.38333255,-0.37838215,-0.37445277,-0.37346268,-0.3675531,-0.36161262,-0.35963243,-0.35768324,-0.3507526,-0.33794343,-0.32315403,-0.31622344,-0.31523335,-0.3053944,-0.2885939,-0.27380455,-0.27281445,-0.27875495,-0.28367442,-0.27875495,-0.26984423,-0.26789498,-0.27182436,-0.2846645,-0.29057407,-0.29747373,-0.3093238,-0.32510322,-0.33794343,-0.3488034,-0.36161262,-0.38726193,-0.4139014,-0.4366114,-0.45041072,-0.45929056,-0.47510093,-0.50174034,-0.5254096,-0.5411891,-0.55006886,-0.55402917,-0.55204904,-0.54907876,-0.54316914,-0.5461394,-0.5678285,-0.5925187,-0.60730803,-0.6033478,-0.5915286,-0.58657813,-0.5855881,-0.5855881,-0.57967854,-0.57475907,-0.5816587,-0.5885583,-0.5875683,-0.57475907,-0.55696845,-0.54808867,-0.5441593,-0.5411891,-0.5293699,-0.5195,-0.5224393,-0.53032905,-0.53725964,-0.53131914,-0.5204901,-0.51553965,-0.51553965,-0.51652974,-0.5125694,-0.5046797,-0.49877012,-0.5007503,-0.5027305,-0.5056698,-0.5056698,-0.5096301,-0.51751983,-0.51751983,-0.5096301,-0.5007503,-0.50174034,-0.50665987,-0.51652974,-0.5195,-0.51652974,-0.5195,-0.5234294,-0.5224393,-0.5145496,-0.5046797,-0.50174034,-0.5046797,-0.51062024,-0.51062024,-0.50665987,-0.50174034,-0.4997602,-0.49088037,-0.4810105,-0.47411084,-0.47804022,-0.48592997,-0.49187046,-0.4849708,-0.47411084,-0.46622115,-0.46226078,-0.46226078,-0.45830047,-0.45635122,-0.4573413,-0.46028066,-0.45830047,-0.45041072,-0.44549125,-0.45140082,-0.46226078,-0.46523106,-0.45830047,-0.44846147,-0.44648135,-0.45041072,-0.45635122,-0.45437104,-0.45140082,-0.453381,-0.45830047,-0.45437104,-0.44153088,-0.43070185,-0.42872173,-0.43070185,-0.42773163,-0.41294223,-0.39713186,-0.39320242,-0.40109217,-0.4060117,-0.399112,-0.38432264,-0.37346268,-0.36260265,-0.3478133,-0.3270834,-0.3073436,-0.30440432,-0.31919372,-0.3497935,-0.38531268,-0.42083198,-0.4612707,-0.49187046,-0.5046797,-0.49385065,-0.4810105,-0.4770502,-0.4790303,-0.48299068,-0.4810105,-0.47411084,-0.47411084,-0.4790303,-0.4800204,-0.47510093,-0.47114056,-0.47609103,-0.48592997,-0.48592997,-0.46916044,-0.45437104,-0.45041072,-0.44747138,-0.399112,-0.2392754,0.061679125,0.43562138,0.74542475,0.84706306,0.6724061,0.27182448,-0.202766,-0.59545803,-0.8233938,-0.8934422,-0.8648226,-0.8016739,-0.7286552,-0.6477468,-0.5648892,-0.49778003,-0.46622115,-0.46424097,-0.47114056,-0.47411084,-0.47015053,-0.46325088,-0.4612707,-0.45830047,-0.4523909,-0.44648135,-0.44747138,-0.44747138,-0.44252098,-0.42575145,-0.41294223,-0.41294223,-0.4198419,-0.42476135,-0.42182207,-0.41294223,-0.40898192,-0.4119522,-0.40898192,-0.399112,-0.38726193,-0.38531268,-0.39320242,-0.399112,-0.39614177,-0.38630283,-0.37937218,-0.3764329,-0.3704924,-0.36062253,-0.35273278,-0.35273278,-0.35471296,-0.35273278,-0.33893347,-0.3270834,-0.32315403,-0.32510322,-0.32216394,-0.31130397,-0.29747373,-0.2935443,-0.29552454,-0.2945344,-0.2876348,-0.27776486,-0.27479464,-0.27875495,-0.28367442,-0.2866447,-0.2935443,-0.3093238,-0.32609332,-0.33794343,-0.34583312,-0.35471296,-0.37445277,-0.40406245,-0.42773163,-0.44153088,-0.45140082,-0.46325088,-0.48299068,-0.5007503,-0.51355946,-0.5244195,-0.5401989,-0.55402917,-0.562909,-0.5648892,-0.56584835,-0.573769,-0.58657813,-0.5934778,-0.5895484,-0.58066857,-0.57571816,-0.57475907,-0.57475907,-0.57079875,-0.56584835,-0.5668384,-0.5668384,-0.5648892,-0.55696845,-0.54907876,-0.55204904,-0.55894864,-0.5619189,-0.55402917,-0.5421791,-0.53626955,-0.53626955,-0.53626955,-0.5332993,-0.5293699,-0.53032905,-0.53428936,-0.53626955,-0.5293699,-0.5234294,-0.5234294,-0.52738976,-0.52738976,-0.5234294,-0.5214492,-0.5283798,-0.53725964,-0.5392089,-0.5332993,-0.52738976,-0.53131914,-0.5411891,-0.5441593,-0.53824973,-0.53131914,-0.53230923,-0.5392089,-0.5451494,-0.5461394,-0.54316914,-0.5471295,-0.55006886,-0.54907876,-0.54316914,-0.5352795,-0.53626955,-0.53824973,-0.53725964,-0.53428936,-0.53428936,-0.5401989,-0.5451494,-0.5421791,-0.53131914,-0.5224393,-0.5263996,-0.53725964,-0.5441593,-0.5451494,-0.5411891,-0.5411891,-0.5421791,-0.5411891,-0.53725964,-0.53428936,-0.53824973,-0.5401989,-0.53824973,-0.53131914,-0.5293699,-0.53626955,-0.5451494,-0.5421791,-0.53131914,-0.5244195,-0.52738976,-0.53725964,-0.53824973,-0.5254096,-0.51062024,-0.50764996,-0.50764996,-0.50174034,-0.4849708,-0.46523106,-0.45140082,-0.45437104,-0.45830047,-0.45635122,-0.453381,-0.44846147,-0.4405408,-0.4198419,-0.39221233,-0.3675531,-0.36062253,-0.3704924,-0.3912223,-0.42083198,-0.45437104,-0.49579984,-0.5293699,-0.5441593,-0.5411891,-0.53131914,-0.52738976,-0.5283798,-0.52738976,-0.5244195,-0.5244195,-0.5352795,-0.54907876,-0.55402917,-0.5471295,-0.5352795,-0.5283798,-0.53131914,-0.53428936,-0.53032905,-0.52738976,-0.53131914,-0.53428936,-0.5007503,-0.38036227,-0.1337077,0.22250581,0.58360803,0.8046442,0.7750344,0.48299074,0.03896904,-0.40406245,-0.7187853,-0.88060206,-0.92206186,-0.8914621,-0.81943345,-0.7257159,-0.63295746,-0.56881857,-0.5461394,-0.55402917,-0.5668384,-0.5668384,-0.5560093,-0.5451494,-0.53725964,-0.52738976,-0.5195,-0.5145496,-0.51553965,-0.51850986,-0.51355946,-0.5027305,-0.49480975,-0.49579984,-0.5007503,-0.5007503,-0.49187046,-0.4800204,-0.4810105,-0.48592997,-0.48989034,-0.48592997,-0.47804022,-0.47510093,-0.47213066,-0.4671803,-0.4573413,-0.44747138,-0.44549125,-0.44846147,-0.44351113,-0.43364114,-0.42575145,-0.42182207,-0.42278123,-0.4188518,-0.4050216,-0.3912223,-0.38630283,-0.38726193,-0.38432264,-0.38135242,-0.3764329,-0.3754428,-0.3764329,-0.37247258,-0.36260265,-0.35867327,-0.3675531,-0.38234246,-0.3892421,-0.38726193,-0.38135242,-0.38531268,-0.399112,-0.4139014,-0.43070185,-0.44648135,-0.46916044,-0.49088037,-0.5056698,-0.51062024,-0.51553965,-0.5263996,-0.5441593,-0.5609288,-0.5727788,-0.5855881,-0.60139847,-0.6151978,-0.62209743,-0.6230875,-0.62209743,-0.62704784,-0.6309773,-0.6319673,-0.6299872,-0.6309773,-0.64084715,-0.64873683,-0.64480746,-0.6319673,-0.62209743,-0.61915815,-0.62110734,-0.62110734,-0.6132176,-0.60532784,-0.6033478,-0.606318,-0.60730803,-0.606318,-0.60730803,-0.61027837,-0.606318,-0.5934778,-0.57769835,-0.5698086,-0.57670826,-0.5855881,-0.5885583,-0.5816587,-0.573769,-0.57670826,-0.5816587,-0.58264875,-0.5717888,-0.5619189,-0.5599387,-0.562909,-0.5648892,-0.5599387,-0.55402917,-0.55501926,-0.5619189,-0.5668384,-0.5668384,-0.5668384,-0.5727788,-0.57967854,-0.58066857,-0.5727788,-0.56584835,-0.5678285,-0.57475907,-0.57769835,-0.57079875,-0.5609288,-0.5579586,-0.562909,-0.5648892,-0.5599387,-0.5579586,-0.5609288,-0.5668384,-0.5678285,-0.5599387,-0.5510589,-0.54907876,-0.55204904,-0.55402917,-0.54907876,-0.54316914,-0.5471295,-0.55402917,-0.55696845,-0.5560093,-0.5510589,-0.55006886,-0.5510589,-0.54907876,-0.5421791,-0.5392089,-0.5441593,-0.5471295,-0.5461394,-0.53824973,-0.53131914,-0.5293699,-0.53230923,-0.5293699,-0.5234294,-0.5224393,-0.53032905,-0.53725964,-0.53428936,-0.5254096,-0.51355946,-0.50864005,-0.50764996,-0.49778003,-0.4810105,-0.46817034,-0.46226078,-0.46226078,-0.46226078,-0.46028066,-0.45830047,-0.45536113,-0.44648135,-0.42083198,-0.38333255,-0.3497935,-0.33299297,-0.33398306,-0.34682322,-0.36458284,-0.3951826,-0.4385916,-0.4820006,-0.51355946,-0.52738976,-0.5254096,-0.5234294,-0.5224393,-0.5145496,-0.50764996,-0.50368965,-0.5096301,-0.5204901,-0.52738976,-0.5244195,-0.51751983,-0.51062024,-0.50665987,-0.5007503,-0.49187046,-0.48592997,-0.48890024,-0.4997602,-0.5056698,-0.4731208,-0.35273278,-0.10310793,0.2659148,0.64873683,0.8894819,0.85792315,0.53821874,0.055738688,-0.4198419,-0.74839497,-0.9102118,-0.94180167,-0.89542246,-0.81352395,-0.71584594,-0.62605774,-0.56389904,-0.53428936,-0.5254096,-0.5244195,-0.52738976,-0.52738976,-0.51751983,-0.4997602,-0.47804022,-0.46325088,-0.46622115,-0.47411084,-0.47015053,-0.45830047,-0.44450116,-0.44351113,-0.45041072,-0.45437104,-0.44846147,-0.4385916,-0.4326511,-0.42971176,-0.42182207,-0.41489148,-0.40997195,-0.4119522,-0.4168716,-0.4139014,-0.40208226,-0.39320242,-0.39419252,-0.39614177,-0.3892421,-0.377423,-0.36458284,-0.36359274,-0.3695023,-0.3704924,-0.36062253,-0.3478133,-0.33695334,-0.33104372,-0.3270834,-0.32315403,-0.32216394,-0.3270834,-0.3280735,-0.32117385,-0.31130397,-0.30341423,-0.30635357,-0.3142742,-0.31721348,-0.31523335,-0.31919372,-0.3320338,-0.3507526,-0.36458284,-0.37445277,-0.38234246,-0.39713186,-0.41588157,-0.43070185,-0.44351113,-0.45536113,-0.47213066,-0.49088037,-0.50174034,-0.5096301,-0.5234294,-0.54316914,-0.55894864,-0.56584835,-0.562909,-0.562909,-0.573769,-0.5875683,-0.5934778,-0.5895484,-0.58264875,-0.5885583,-0.59743816,-0.59941834,-0.59545803,-0.58657813,-0.58363885,-0.58657813,-0.584598,-0.57967854,-0.57475907,-0.573769,-0.573769,-0.56881857,-0.55894864,-0.5510589,-0.55204904,-0.5609288,-0.56389904,-0.5609288,-0.55696845,-0.55501926,-0.5510589,-0.5421791,-0.53230923,-0.5283798,-0.5352795,-0.5421791,-0.5392089,-0.5293699,-0.5263996,-0.53428936,-0.5461394,-0.5461394,-0.53626955,-0.5283798,-0.53032905,-0.5411891,-0.5471295,-0.5441593,-0.5401989,-0.5411891,-0.54316914,-0.5411891,-0.53626955,-0.53230923,-0.53725964,-0.5461394,-0.55006886,-0.54907876,-0.55006886,-0.5560093,-0.5599387,-0.54907876,-0.53725964,-0.5293699,-0.53428936,-0.54808867,-0.5530391,-0.54808867,-0.53824973,-0.5352795,-0.53626955,-0.5332993,-0.5283798,-0.52738976,-0.53032905,-0.53428936,-0.53428936,-0.5293699,-0.5263996,-0.53131914,-0.5352795,-0.53032905,-0.5204901,-0.5145496,-0.51850986,-0.5244195,-0.5254096,-0.5204901,-0.5204901,-0.5263996,-0.53230923,-0.5224393,-0.5027305,-0.48692006,-0.48299068,-0.4820006,-0.47510093,-0.4573413,-0.44252098,-0.44153088,-0.45536113,-0.4612707,-0.45929056,-0.44846147,-0.42971176,-0.40307236,-0.3695023,-0.3428629,-0.33497316,-0.35174274,-0.38630283,-0.42377126,-0.4612707,-0.49679,-0.53032905,-0.55204904,-0.55204904,-0.5411891,-0.53230923,-0.53230923,-0.5352795,-0.53131914,-0.53230923,-0.5332993,-0.5421791,-0.5510589,-0.54808867,-0.5392089,-0.53428936,-0.53725964,-0.5401989,-0.5352795,-0.5244195,-0.5204901,-0.52738976,-0.50864005,-0.40406245,-0.16427654,0.20966578,0.60928833,0.87862206,0.88753283,0.59545803,0.10802746,-0.40307236,-0.77305424,-0.94672114,-0.97336054,-0.92008173,-0.8500333,-0.7720951,-0.6783465,-0.5885583,-0.5293699,-0.51355946,-0.5224393,-0.5293699,-0.5224393,-0.51062024,-0.50368965,-0.49778003,-0.48692006,-0.47411084,-0.46523106,-0.46622115,-0.47114056,-0.46622115,-0.45140082,-0.44252098,-0.44252098,-0.44648135,-0.44153088,-0.4366114,-0.4346313,-0.44153088,-0.44846147,-0.4405408,-0.42278123,-0.40799183,-0.40307236,-0.4050216,-0.399112,-0.3892421,-0.38333255,-0.38432264,-0.38531268,-0.3764329,-0.36260265,-0.3488034,-0.34091365,-0.33695334,-0.3270834,-0.3142742,-0.3083337,-0.31229407,-0.31622344,-0.3093238,-0.30044395,-0.28958404,-0.2876348,-0.2885939,-0.28367442,-0.27875495,-0.2797141,-0.2866447,-0.29651457,-0.29846382,-0.29846382,-0.3053944,-0.32411313,-0.3478133,-0.3675531,-0.38432264,-0.39812195,-0.4139014,-0.42575145,-0.431661,-0.4385916,-0.45635122,-0.48398072,-0.51062024,-0.5244195,-0.53131914,-0.5392089,-0.55204904,-0.56584835,-0.5698086,-0.5678285,-0.5717888,-0.58264875,-0.59644806,-0.59941834,-0.59545803,-0.5905385,-0.58657813,-0.5816587,-0.57571816,-0.56584835,-0.562909,-0.5698086,-0.573769,-0.5668384,-0.55696845,-0.54907876,-0.55204904,-0.55501926,-0.55402917,-0.54907876,-0.5461394,-0.54808867,-0.5471295,-0.53725964,-0.5254096,-0.5195,-0.5244195,-0.53032905,-0.5224393,-0.5145496,-0.51062024,-0.51553965,-0.5204901,-0.51062024,-0.49286056,-0.48299068,-0.48592997,-0.49877012,-0.4997602,-0.49385065,-0.48592997,-0.48299068,-0.48299068,-0.4820006,-0.4770502,-0.4770502,-0.48592997,-0.49385065,-0.49187046,-0.4849708,-0.4800204,-0.4820006,-0.48791015,-0.49088037,-0.49088037,-0.48989034,-0.49579984,-0.49679,-0.49088037,-0.4849708,-0.48791015,-0.49480975,-0.4997602,-0.49579984,-0.48592997,-0.4810105,-0.48398072,-0.48989034,-0.48692006,-0.4770502,-0.46622115,-0.46226078,-0.4612707,-0.45140082,-0.4376015,-0.42476135,-0.4188518,-0.4198419,-0.42083198,-0.4139014,-0.4050216,-0.40010208,-0.3912223,-0.3714825,-0.34583312,-0.31919372,-0.30440432,-0.30143404,-0.30635357,-0.32609332,-0.36557293,-0.41489148,-0.46424097,-0.49385065,-0.49877012,-0.49579984,-0.49579984,-0.49579984,-0.49385065,-0.49579984,-0.5007503,-0.50864005,-0.51062024,-0.5027305,-0.49286056,-0.49385065,-0.5007503,-0.5027305,-0.49286056,-0.47609103,-0.46424097,-0.46325088,-0.4770502,-0.4849708,-0.4671803,-0.37838215,-0.16526663,0.1919061,0.60532784,0.91120195,0.95263064,0.6743864,0.18698657,-0.32216394,-0.693136,-0.87964296,-0.92500114,-0.8894819,-0.8184434,-0.73261553,-0.63985705,-0.55894864,-0.5046797,-0.4731208,-0.45929056,-0.45830047,-0.46325088,-0.4671803,-0.46226078,-0.45140082,-0.43958163,-0.43070185,-0.42575145,-0.4178617,-0.40997195,-0.40700173,-0.40799183,-0.40799183,-0.40109217,-0.3912223,-0.38531268,-0.38726193,-0.3892421,-0.38333255,-0.37445277,-0.36851227,-0.36260265,-0.36161262,-0.35471296,-0.3497935,-0.3507526,-0.35471296,-0.35471296,-0.34583312,-0.33299297,-0.32510322,-0.32216394,-0.32117385,-0.3093238,-0.29156417,-0.27875495,-0.27479464,-0.27578473,-0.27083427,-0.2609644,-0.2520846,-0.24815524,-0.24914527,-0.24419487,-0.2392754,-0.23336583,-0.23237574,-0.23237574,-0.23138559,-0.23630518,-0.25013536,-0.26888508,-0.2846645,-0.2945344,-0.30341423,-0.32018375,-0.3428629,-0.36656302,-0.38135242,-0.39320242,-0.40997195,-0.4326511,-0.45437104,-0.46916044,-0.4810105,-0.49579984,-0.5145496,-0.5293699,-0.53131914,-0.5293699,-0.53824973,-0.5560093,-0.57571816,-0.584598,-0.58264875,-0.57868844,-0.58066857,-0.584598,-0.5816587,-0.5717888,-0.5668384,-0.56881857,-0.5727788,-0.56881857,-0.55894864,-0.54907876,-0.5441593,-0.54316914,-0.53626955,-0.5293699,-0.5293699,-0.53626955,-0.5441593,-0.5411891,-0.5293699,-0.5195,-0.5145496,-0.51161027,-0.50864005,-0.5056698,-0.50764996,-0.51161027,-0.51161027,-0.4997602,-0.48890024,-0.48692006,-0.49679,-0.50764996,-0.5096301,-0.5056698,-0.5027305,-0.50864005,-0.5125694,-0.50764996,-0.4997602,-0.49679,-0.49877012,-0.50174034,-0.50174034,-0.5007503,-0.50174034,-0.50665987,-0.5125694,-0.5046797,-0.49579984,-0.49778003,-0.5056698,-0.50864005,-0.5027305,-0.48989034,-0.4770502,-0.46817034,-0.46226078,-0.4523909,-0.4405408,-0.4366114,-0.43958163,-0.44450116,-0.4405408,-0.4346313,-0.42476135,-0.4109621,-0.38825202,-0.35768324,-0.33299297,-0.32510322,-0.34091365,-0.3764329,-0.4198419,-0.46424097,-0.5056698,-0.5401989,-0.5510589,-0.54316914,-0.5293699,-0.51850986,-0.51751983,-0.5224393,-0.5234294,-0.52738976,-0.53626955,-0.5461394,-0.5510589,-0.5471295,-0.53824973,-0.53824973,-0.5451494,-0.5510589,-0.5461394,-0.53824973,-0.53626955,-0.54808867,-0.5461394,-0.4820006,-0.30440432,0.017280102,0.42575157,0.7858944,0.9417708,0.7957643,0.37640202,-0.15341651,-0.6132176,-0.8894819,-0.98914003,-0.97237045,-0.9062824,-0.82831335,-0.73063534,-0.6339475,-0.5678285,-0.5352795,-0.53428936,-0.5411891,-0.54316914,-0.5392089,-0.53032905,-0.5214492,-0.50764996,-0.49778003,-0.49480975,-0.49679,-0.49480975,-0.4810105,-0.4671803,-0.4612707,-0.46424097,-0.47015053,-0.46916044,-0.46325088,-0.46226078,-0.46325088,-0.45929056,-0.44549125,-0.42773163,-0.42083198,-0.42674154,-0.43070185,-0.42377126,-0.4119522,-0.40010208,-0.39614177,-0.39221233,-0.38531268,-0.377423,-0.3754428,-0.37937218,-0.3764329,-0.36161262,-0.3428629,-0.3300537,-0.3270834,-0.3270834,-0.32018375,-0.31130397,-0.3053944,-0.30635357,-0.3093238,-0.30242413,-0.2935443,-0.29156417,-0.2994539,-0.31031388,-0.31919372,-0.3290636,-0.3428629,-0.36359274,-0.38333255,-0.3951826,-0.399112,-0.4119522,-0.42773163,-0.44942063,-0.4671803,-0.4810105,-0.5007503,-0.5214492,-0.5421791,-0.5579586,-0.5717888,-0.5885583,-0.60730803,-0.6201173,-0.6230875,-0.618168,-0.61915815,-0.6240776,-0.6319673,-0.6309773,-0.6240776,-0.61915815,-0.618168,-0.61222756,-0.6033478,-0.5934778,-0.5905385,-0.5934778,-0.5944679,-0.5816587,-0.5668384,-0.5599387,-0.5609288,-0.56389904,-0.5599387,-0.5510589,-0.5461394,-0.5461394,-0.5451494,-0.5401989,-0.53824973,-0.5421791,-0.54907876,-0.5510589,-0.5411891,-0.53131914,-0.5293699,-0.53626955,-0.54316914,-0.53725964,-0.5254096,-0.5204901,-0.5195,-0.52738976,-0.5293699,-0.5263996,-0.5283798,-0.5332993,-0.53626955,-0.53230923,-0.5234294,-0.51850986,-0.5204901,-0.5244195,-0.5195,-0.5046797,-0.49088037,-0.4810105,-0.47609103,-0.47411084,-0.47114056,-0.47411084,-0.47609103,-0.46916044,-0.45041072,-0.4188518,-0.38825202,-0.36458284,-0.35174274,-0.3478133,-0.36161262,-0.40010208,-0.45140082,-0.50174034,-0.53626955,-0.55006886,-0.55402917,-0.5560093,-0.5560093,-0.5510589,-0.5451494,-0.5441593,-0.5461394,-0.5471295,-0.5441593,-0.53626955,-0.53725964,-0.5441593,-0.54808867,-0.54808867,-0.5451494,-0.5421791,-0.53824973,-0.53626955,-0.52738976,-0.5244195,-0.5234294,-0.48398072,-0.3418728,-0.044909477,0.36851227,0.7651645,0.98224044,0.91120195,0.56389904,0.066598535,-0.41294223,-0.75136524,-0.9181015,-0.9398215,-0.88456243,-0.8036541,-0.7138658,-0.62704784,-0.55402917,-0.5096301,-0.5007503,-0.51161027,-0.5234294,-0.5214492,-0.51161027,-0.50174034,-0.49385065,-0.48398072,-0.46817034,-0.4573413,-0.45635122,-0.46226078,-0.46817034,-0.4573413,-0.44450116,-0.44450116,-0.45041072,-0.45536113,-0.44846147,-0.431661,-0.4178617,-0.4109621,-0.40799183,-0.40010208,-0.3902322,-0.38432264,-0.38825202,-0.39419252,-0.38630283,-0.37346268,-0.36161262,-0.35372287,-0.3497935,-0.3448431,-0.33398306,-0.3290636,-0.32510322,-0.31721348,-0.30440432,-0.29156417,-0.2885939,-0.29747373,-0.30635357,-0.30242413,-0.2885939,-0.27479464,-0.2669049,-0.2639346,-0.2619545,-0.2590152,-0.2619545,-0.27182436,-0.28367442,-0.2945344,-0.30044395,-0.31229407,-0.3290636,-0.3428629,-0.35768324,-0.37247258,-0.39320242,-0.41294223,-0.42971176,-0.44450116,-0.4573413,-0.4790303,-0.50368965,-0.5224393,-0.52738976,-0.5293699,-0.53626955,-0.5461394,-0.55402917,-0.55402917,-0.55204904,-0.5599387,-0.562909,-0.56389904,-0.55204904,-0.5461394,-0.54907876,-0.55894864,-0.5619189,-0.54808867,-0.5293699,-0.5204901,-0.5224393,-0.5293699,-0.5254096,-0.5195,-0.51652974,-0.51652974,-0.51850986,-0.5145496,-0.5096301,-0.50665987,-0.5027305,-0.49480975,-0.4820006,-0.46916044,-0.46916044,-0.47804022,-0.48398072,-0.48299068,-0.4810105,-0.48592997,-0.49088037,-0.48989034,-0.4820006,-0.47411084,-0.47411084,-0.4849708,-0.49088037,-0.48692006,-0.47510093,-0.47213066,-0.4770502,-0.4849708,-0.48692006,-0.48692006,-0.48692006,-0.48592997,-0.4810105,-0.4671803,-0.44942063,-0.4405408,-0.44252098,-0.44450116,-0.4385916,-0.42674154,-0.41489148,-0.4050216,-0.399112,-0.39320242,-0.3912223,-0.39812195,-0.4060117,-0.40307236,-0.38135242,-0.3448431,-0.31622344,-0.3053944,-0.31031388,-0.3300537,-0.36161262,-0.40307236,-0.44450116,-0.4790303,-0.49385065,-0.49877012,-0.50368965,-0.50764996,-0.5056698,-0.49679,-0.48890024,-0.49088037,-0.5007503,-0.50665987,-0.50174034,-0.49187046,-0.48592997,-0.48692006,-0.48592997,-0.4790303,-0.47411084,-0.47114056,-0.47015053,-0.46325088,-0.453381,-0.44648135,-0.4168716,-0.31130397,-0.07448834,0.28760386,0.65860677,0.87862206,0.836203,0.5323093,0.09125793,-0.34583312,-0.66256714,-0.8293034,-0.8668028,-0.81352395,-0.7237357,-0.62605774,-0.53824973,-0.4770502,-0.4366114,-0.42773163,-0.4366114,-0.4523909,-0.45536113,-0.44549125,-0.42971176,-0.42575145,-0.42674154,-0.42575145,-0.4119522,-0.39713186,-0.38825202,-0.3902322,-0.39614177,-0.3951826,-0.39221233,-0.3951826,-0.399112,-0.39812195,-0.38531268,-0.37445277,-0.36851227,-0.3695023,-0.36851227,-0.36062253,-0.3497935,-0.3488034,-0.35372287,-0.35471296,-0.3488034,-0.34091365,-0.33695334,-0.33794343,-0.33596325,-0.32315403,-0.31031388,-0.30440432,-0.30242413,-0.29651457,-0.28367442,-0.26984423,-0.26294458,-0.26789498,-0.27182436,-0.27083427,-0.27182436,-0.27578473,-0.2807042,-0.27875495,-0.26888508,-0.2639346,-0.27281445,-0.2945344,-0.3142742,-0.32018375,-0.32216394,-0.3300537,-0.34682322,-0.36161262,-0.3695023,-0.377423,-0.3902322,-0.40898192,-0.42872173,-0.44153088,-0.4523909,-0.46523106,-0.47804022,-0.48890024,-0.49385065,-0.4997602,-0.51062024,-0.51553965,-0.51652974,-0.51161027,-0.51062024,-0.51850986,-0.53032905,-0.5332993,-0.53032905,-0.5224393,-0.5263996,-0.5352795,-0.5401989,-0.5352795,-0.5244195,-0.51751983,-0.5195,-0.5204901,-0.51652974,-0.5125694,-0.51553965,-0.5204901,-0.51652974,-0.50764996,-0.49679,-0.49480975,-0.5007503,-0.5027305,-0.49385065,-0.4820006,-0.47804022,-0.48592997,-0.49286056,-0.49187046,-0.48890024,-0.48398072,-0.48692006,-0.49480975,-0.49877012,-0.5007503,-0.5027305,-0.5027305,-0.4997602,-0.49385065,-0.48890024,-0.49385065,-0.50368965,-0.50764996,-0.5027305,-0.49286056,-0.48989034,-0.49480975,-0.49877012,-0.49877012,-0.49187046,-0.49480975,-0.5027305,-0.50864005,-0.50665987,-0.49778003,-0.49187046,-0.49480975,-0.49877012,-0.49480975,-0.49088037,-0.48791015,-0.48989034,-0.49286056,-0.49088037,-0.48592997,-0.48592997,-0.48989034,-0.49480975,-0.49286056,-0.49187046,-0.49385065,-0.49579984,-0.49877012,-0.49286056,-0.48592997,-0.48890024,-0.49286056,-0.49088037,-0.48692006,-0.4800204,-0.4790303,-0.4810105,-0.4800204,-0.4731208,-0.46523106,-0.45929056,-0.453381,-0.44252098,-0.42278123,-0.4109621,-0.4139014,-0.42182207,-0.42377126,-0.41294223,-0.3912223,-0.37247258,-0.355703,-0.33992356,-0.32411313,-0.31721348,-0.32411313,-0.35867327,-0.40208226,-0.44450116,-0.48299068,-0.51062024,-0.51850986,-0.5125694,-0.49778003,-0.48592997,-0.48989034,-0.50368965,-0.51553965,-0.51751983,-0.51553965,-0.51751983,-0.5244195,-0.5283798,-0.5244195,-0.5214492,-0.5214492,-0.5214492,-0.51553965,-0.49679,-0.48890024,-0.48890024,-0.47510093,-0.38825202,-0.16922688,0.1800561,0.5579585,0.81844354,0.83521307,0.5786885,0.14159751,-0.3280735,-0.6852462,-0.88060206,-0.92698133,-0.88159215,-0.8016739,-0.70696616,-0.61717796,-0.5461394,-0.5096301,-0.51062024,-0.52738976,-0.5352795,-0.5224393,-0.5056698,-0.49480975,-0.48890024,-0.48299068,-0.46817034,-0.45830047,-0.46226078,-0.47213066,-0.47510093,-0.46424097,-0.45140082,-0.44450116,-0.44747138,-0.45140082,-0.44747138,-0.44252098,-0.44351113,-0.44450116,-0.44351113,-0.43364114,-0.42083198,-0.4168716,-0.4178617,-0.41588157,-0.40997195,-0.40208226,-0.39713186,-0.3951826,-0.38726193,-0.37247258,-0.36062253,-0.35963243,-0.36851227,-0.37346268,-0.3695023,-0.35963243,-0.35273278,-0.35372287,-0.35471296,-0.35174274,-0.3488034,-0.3488034,-0.35174274,-0.35273278,-0.3507526,-0.35273278,-0.36458284,-0.37838215,-0.38726193,-0.38726193,-0.3892421,-0.4050216,-0.42674154,-0.44549125,-0.45437104,-0.45635122,-0.4612707,-0.4671803,-0.47015053,-0.4731208,-0.4770502,-0.49088037,-0.50864005,-0.51652974,-0.5195,-0.5283798,-0.5451494,-0.5648892,-0.5727788,-0.5668384,-0.55696845,-0.55696845,-0.56389904,-0.56881857,-0.5619189,-0.5530391,-0.54907876,-0.5510589,-0.55501926,-0.5530391,-0.5471295,-0.5421791,-0.53824973,-0.53032905,-0.5195,-0.51062024,-0.5096301,-0.51062024,-0.50764996,-0.5056698,-0.50368965,-0.51161027,-0.51751983,-0.5145496,-0.5056698,-0.4997602,-0.5046797,-0.51062024,-0.50864005,-0.49877012,-0.48890024,-0.49187046,-0.50174034,-0.50665987,-0.5027305,-0.49480975,-0.49286056,-0.49385065,-0.49088037,-0.48890024,-0.48791015,-0.49778003,-0.5096301,-0.51553965,-0.51161027,-0.5056698,-0.50665987,-0.51161027,-0.5125694,-0.5096301,-0.5056698,-0.5056698,-0.50864005,-0.50665987,-0.49778003,-0.49286056,-0.49286056,-0.49877012,-0.5027305,-0.49877012,-0.49579984,-0.5007503,-0.50864005,-0.51161027,-0.50665987,-0.5007503,-0.49877012,-0.49877012,-0.49679,-0.48989034,-0.4849708,-0.49187046,-0.4997602,-0.50174034,-0.49187046,-0.4810105,-0.48398072,-0.49480975,-0.5056698,-0.5096301,-0.5096301,-0.50764996,-0.50764996,-0.50368965,-0.49579984,-0.49286056,-0.49778003,-0.50174034,-0.49480975,-0.4810105,-0.46817034,-0.47015053,-0.4800204,-0.48592997,-0.48299068,-0.4770502,-0.4800204,-0.48692006,-0.49187046,-0.49088037,-0.4849708,-0.4820006,-0.47804022,-0.46916044,-0.45929056,-0.45830047,-0.46817034,-0.4800204,-0.48299068,-0.47015053,-0.45437104,-0.45041072,-0.4523909,-0.45140082,-0.44153088,-0.42674154,-0.4188518,-0.4178617,-0.4168716,-0.4119522,-0.4060117,-0.40307236,-0.39713186,-0.38135242,-0.35273278,-0.32117385,-0.30341423,-0.30044395,-0.3083337,-0.3320338,-0.37247258,-0.42278123,-0.46622115,-0.49088037,-0.49286056,-0.48592997,-0.48592997,-0.48989034,-0.48791015,-0.48692006,-0.4849708,-0.49088037,-0.5007503,-0.5027305,-0.49778003,-0.49187046,-0.49088037,-0.49286056,-0.49187046,-0.48299068,-0.47015053,-0.46622115,-0.4731208,-0.47510093,-0.43364114,-0.29255426,-0.012329578,0.37640202,0.7493851,0.9477112,0.856933,0.4820006,-0.02516973,-0.48398072,-0.7829242,-0.91120183,-0.9190916,-0.86188334,-0.7770146,-0.6734271,-0.57967854,-0.51751983,-0.48989034,-0.48398072,-0.4849708,-0.4849708,-0.48592997,-0.4849708,-0.47609103,-0.46028066,-0.44549125,-0.44153088,-0.44648135,-0.44747138,-0.44351113,-0.4346313,-0.431661,-0.42773163,-0.4178617,-0.40997195,-0.40799183,-0.4188518,-0.43070185,-0.42971176,-0.4188518,-0.40700173,-0.4050216,-0.4050216,-0.39419252,-0.38036227,-0.3704924,-0.3704924,-0.3764329,-0.377423,-0.37247258,-0.3675531,-0.3714825,-0.3754428,-0.3704924,-0.35963243,-0.35174274,-0.35273278,-0.35372287,-0.3507526,-0.3418728,-0.33893347,-0.343853,-0.3497935,-0.34583312,-0.33695334,-0.33497316,-0.34583312,-0.36161262,-0.3704924,-0.3754428,-0.37937218,-0.3902322,-0.40700173,-0.4178617,-0.42377126,-0.42971176,-0.44648135,-0.4671803,-0.4800204,-0.48299068,-0.4810105,-0.48398072,-0.48890024,-0.49286056,-0.49679,-0.50174034,-0.5145496,-0.53032905,-0.53725964,-0.53824973,-0.5392089,-0.5441593,-0.54907876,-0.55006886,-0.5471295,-0.54808867,-0.55501926,-0.5579586,-0.54907876,-0.53131914,-0.51850986,-0.5195,-0.5263996,-0.53131914,-0.5263996,-0.5204901,-0.5195,-0.51850986,-0.51161027,-0.49778003,-0.48989034,-0.48989034,-0.49480975,-0.49385065,-0.48592997,-0.4790303,-0.4810105,-0.48791015,-0.49187046,-0.48989034,-0.48592997,-0.48398072,-0.48592997,-0.4810105,-0.47510093,-0.4731208,-0.4820006,-0.49579984,-0.5046797,-0.50764996,-0.50368965,-0.5007503,-0.49480975,-0.48398072,-0.47609103,-0.47510093,-0.48791015,-0.5007503,-0.5046797,-0.4997602,-0.49480975,-0.49579984,-0.5007503,-0.49778003,-0.49187046,-0.48791015,-0.49187046,-0.49778003,-0.49579984,-0.48791015,-0.4810105,-0.48592997,-0.49385065,-0.49187046,-0.48398072,-0.47510093,-0.47609103,-0.4849708,-0.48592997,-0.4800204,-0.47510093,-0.4770502,-0.48592997,-0.48791015,-0.4810105,-0.47015053,-0.46916044,-0.4731208,-0.47015053,-0.46424097,-0.45830047,-0.45635122,-0.45635122,-0.45140082,-0.44351113,-0.43958163,-0.44549125,-0.45437104,-0.45437104,-0.44747138,-0.44153088,-0.44351113,-0.44846147,-0.44648135,-0.43958163,-0.4376015,-0.44450116,-0.45041072,-0.44648135,-0.43364114,-0.42377126,-0.42575145,-0.43364114,-0.4376015,-0.43562138,-0.43070185,-0.431661,-0.43070185,-0.42182207,-0.4139014,-0.4109621,-0.4168716,-0.42377126,-0.42278123,-0.4119522,-0.4050216,-0.4060117,-0.4050216,-0.3951826,-0.38036227,-0.36656302,-0.36557293,-0.36851227,-0.36359274,-0.3507526,-0.33992356,-0.33596325,-0.33104372,-0.31229407,-0.2826844,-0.2590152,-0.25505483,-0.26888508,-0.29255426,-0.32411313,-0.36161262,-0.4050216,-0.44252098,-0.46028066,-0.45929056,-0.4523909,-0.45140082,-0.4523909,-0.44942063,-0.44450116,-0.44351113,-0.45041072,-0.4573413,-0.4573413,-0.45041072,-0.44648135,-0.45041072,-0.45830047,-0.46028066,-0.44942063,-0.4385916,-0.4376015,-0.4376015,-0.4060117,-0.2885939,-0.039959133,0.3300537,0.7148559,0.9625007,0.9358611,0.60730815,0.10310793,-0.39614177,-0.7336056,-0.88357234,-0.8974026,-0.847063,-0.77998483,-0.694126,-0.59842825,-0.51355946,-0.46226078,-0.44450116,-0.44252098,-0.44252098,-0.4385916,-0.43364114,-0.42773163,-0.4178617,-0.4050216,-0.3951826,-0.39320242,-0.39221233,-0.38531268,-0.3764329,-0.37247258,-0.3754428,-0.37937218,-0.3754428,-0.36557293,-0.36260265,-0.3675531,-0.36851227,-0.36062253,-0.34583312,-0.33497316,-0.33695334,-0.34583312,-0.34682322,-0.33992356,-0.33104372,-0.32609332,-0.32411313,-0.31919372,-0.31229407,-0.31031388,-0.31523335,-0.31622344,-0.3073436,-0.29846382,-0.29255426,-0.29552454,-0.30044395,-0.29651457,-0.2866447,-0.2816943,-0.2856546,-0.29156417,-0.28958404,-0.28367442,-0.2807042,-0.2866447,-0.30044395,-0.31031388,-0.31622344,-0.32117385,-0.33104372,-0.3418728,-0.3497935,-0.36062253,-0.3764329,-0.40010208,-0.42182207,-0.431661,-0.43562138,-0.4376015,-0.44648135,-0.45830047,-0.46523106,-0.47213066,-0.4820006,-0.49778003,-0.5145496,-0.5224393,-0.5244195,-0.53131914,-0.5411891,-0.5510589,-0.55402917,-0.55006886,-0.54316914,-0.5441593,-0.5461394,-0.54316914,-0.53626955,-0.53131914,-0.5293699,-0.5293699,-0.5204901,-0.5096301,-0.50665987,-0.51161027,-0.51355946,-0.51062024,-0.4997602,-0.48890024,-0.48890024,-0.49088037,-0.48592997,-0.47804022,-0.47411084,-0.4790303,-0.48398072,-0.4800204,-0.47114056,-0.46523106,-0.46817034,-0.47114056,-0.46523106,-0.45437104,-0.44747138,-0.4523909,-0.46424097,-0.46916044,-0.47015053,-0.4731208,-0.4820006,-0.48989034,-0.48592997,-0.47510093,-0.46523106,-0.46622115,-0.47510093,-0.4800204,-0.4810105,-0.4810105,-0.4849708,-0.48398072,-0.4770502,-0.46916044,-0.4671803,-0.47510093,-0.48398072,-0.4849708,-0.4770502,-0.4731208,-0.47510093,-0.47609103,-0.46916044,-0.46028066,-0.45635122,-0.46226078,-0.46817034,-0.46817034,-0.4612707,-0.45437104,-0.45635122,-0.46325088,-0.46325088,-0.45929056,-0.45830047,-0.46325088,-0.46817034,-0.46523106,-0.45830047,-0.4523909,-0.45536113,-0.46226078,-0.46028066,-0.45437104,-0.44846147,-0.45140082,-0.45536113,-0.4573413,-0.453381,-0.45140082,-0.453381,-0.45536113,-0.45140082,-0.44351113,-0.44252098,-0.44846147,-0.45536113,-0.4523909,-0.44450116,-0.43958163,-0.44549125,-0.45635122,-0.45929056,-0.4573413,-0.453381,-0.45536113,-0.45536113,-0.45041072,-0.44153088,-0.4326511,-0.4326511,-0.43070185,-0.4168716,-0.40010208,-0.38726193,-0.38726193,-0.3892421,-0.38630283,-0.37346268,-0.36458284,-0.36161262,-0.355703,-0.33695334,-0.3093238,-0.2885939,-0.2846645,-0.29846382,-0.32117385,-0.35273278,-0.3912223,-0.43364114,-0.46817034,-0.4800204,-0.47609103,-0.47015053,-0.47114056,-0.4731208,-0.47114056,-0.4671803,-0.46916044,-0.4800204,-0.49187046,-0.49579984,-0.48989034,-0.48692006,-0.49187046,-0.49286056,-0.4820006,-0.46622115,-0.45437104,-0.46424097,-0.4671803,-0.40997195,-0.2392754,0.075478435,0.47507,0.8174534,0.956591,0.7967545,0.37247264,-0.15146732,-0.5934778,-0.8460729,-0.92305195,-0.8934422,-0.8302935,-0.7622252,-0.67933667,-0.5905385,-0.5195,-0.4820006,-0.47411084,-0.47609103,-0.4770502,-0.47114056,-0.46622115,-0.46028066,-0.44648135,-0.4326511,-0.42278123,-0.42182207,-0.42674154,-0.42476135,-0.4168716,-0.4109621,-0.40898192,-0.40997195,-0.40406245,-0.3951826,-0.3912223,-0.39221233,-0.39320242,-0.38726193,-0.37838215,-0.3714825,-0.3714825,-0.3714825,-0.36161262,-0.3488034,-0.3428629,-0.3428629,-0.34091365,-0.3290636,-0.31622344,-0.3053944,-0.31031388,-0.31523335,-0.31229407,-0.30242413,-0.29255426,-0.2846645,-0.27875495,-0.27182436,-0.2669049,-0.26888508,-0.27875495,-0.28367442,-0.27875495,-0.26888508,-0.2619545,-0.26789498,-0.2797141,-0.28958404,-0.29846382,-0.31130397,-0.32609332,-0.34091365,-0.3478133,-0.3497935,-0.35963243,-0.3754428,-0.39812195,-0.4139014,-0.42377126,-0.4366114,-0.45437104,-0.46916044,-0.47609103,-0.4800204,-0.48398072,-0.49679,-0.5096301,-0.51553965,-0.5195,-0.5283798,-0.54316914,-0.5560093,-0.55696845,-0.54808867,-0.54316914,-0.5461394,-0.5530391,-0.55204904,-0.54808867,-0.5392089,-0.53131914,-0.5254096,-0.51553965,-0.50764996,-0.50864005,-0.51161027,-0.5125694,-0.5046797,-0.49385065,-0.49088037,-0.49385065,-0.49778003,-0.49187046,-0.4800204,-0.46916044,-0.46622115,-0.46817034,-0.46325088,-0.45437104,-0.44747138,-0.44747138,-0.45140082,-0.4523909,-0.45140082,-0.45536113,-0.45830047,-0.46523106,-0.46226078,-0.45635122,-0.45437104,-0.4573413,-0.46226078,-0.45929056,-0.453381,-0.45041072,-0.45536113,-0.46424097,-0.46622115,-0.46424097,-0.46325088,-0.46523106,-0.47015053,-0.4671803,-0.46226078,-0.45929056,-0.46226078,-0.4671803,-0.46424097,-0.4573413,-0.453381,-0.45830047,-0.46424097,-0.46523106,-0.4612707,-0.46028066,-0.46226078,-0.4612707,-0.45140082,-0.44153088,-0.44153088,-0.4523909,-0.46523106,-0.46817034,-0.46028066,-0.4573413,-0.45929056,-0.46028066,-0.45929056,-0.4523909,-0.4523909,-0.46226078,-0.4731208,-0.4731208,-0.46817034,-0.46424097,-0.46226078,-0.46325088,-0.45635122,-0.45041072,-0.44942063,-0.45536113,-0.4612707,-0.45635122,-0.45041072,-0.45140082,-0.4612707,-0.47015053,-0.46817034,-0.4573413,-0.45041072,-0.45437104,-0.46226078,-0.46424097,-0.4612707,-0.45830047,-0.45929056,-0.4573413,-0.44846147,-0.4376015,-0.42872173,-0.42575145,-0.42278123,-0.40799183,-0.39419252,-0.38825202,-0.38726193,-0.3912223,-0.38531268,-0.37247258,-0.355703,-0.33695334,-0.31523335,-0.29255426,-0.2846645,-0.2994539,-0.33695334,-0.38135242,-0.4168716,-0.44450116,-0.46325088,-0.47411084,-0.47510093,-0.46622115,-0.45929056,-0.46028066,-0.46916044,-0.4770502,-0.47510093,-0.46916044,-0.47114056,-0.4810105,-0.48890024,-0.48890024,-0.48299068,-0.47510093,-0.46817034,-0.4671803,-0.46523106,-0.46817034,-0.45536113,-0.37445277,-0.16229635,0.20177603,0.6132177,0.90823174,0.9398215,0.66451645,0.19388628,-0.2994539,-0.66946673,-0.8658128,-0.91612136,-0.8737024,-0.79873455,-0.71584594,-0.6280379,-0.5510589,-0.49385065,-0.46325088,-0.46523106,-0.4810105,-0.48592997,-0.4731208,-0.45437104,-0.4405408,-0.4376015,-0.4366114,-0.42773163,-0.41588157,-0.40898192,-0.4109621,-0.41294223,-0.4060117,-0.3951826,-0.38825202,-0.3912223,-0.39419252,-0.38825202,-0.3764329,-0.3714825,-0.37445277,-0.38135242,-0.38036227,-0.3714825,-0.36161262,-0.35768324,-0.355703,-0.3478133,-0.33794343,-0.33398306,-0.33497316,-0.33299297,-0.32315403,-0.3083337,-0.29846382,-0.29651457,-0.2935443,-0.2885939,-0.2807042,-0.27875495,-0.2807042,-0.2797141,-0.26984423,-0.25505483,-0.25013536,-0.2530747,-0.25703502,-0.25703502,-0.2580251,-0.26294458,-0.27776486,-0.2876348,-0.29255426,-0.29747373,-0.3132841,-0.34091365,-0.36458284,-0.37346268,-0.377423,-0.3892421,-0.40799183,-0.42773163,-0.4366114,-0.4376015,-0.44942063,-0.46817034,-0.49088037,-0.5046797,-0.51355946,-0.5254096,-0.53725964,-0.5471295,-0.5421791,-0.53824973,-0.5421791,-0.55402917,-0.56584835,-0.5668384,-0.5619189,-0.5609288,-0.5648892,-0.56584835,-0.5609288,-0.55402917,-0.55204904,-0.55402917,-0.55006886,-0.53725964,-0.5254096,-0.51751983,-0.51652974,-0.51850986,-0.51062024,-0.50174034,-0.49877012,-0.50368965,-0.5096301,-0.50665987,-0.49480975,-0.48592997,-0.4800204,-0.4790303,-0.47804022,-0.47804022,-0.4790303,-0.4820006,-0.48299068,-0.47804022,-0.47411084,-0.47609103,-0.4800204,-0.48692006,-0.48791015,-0.48791015,-0.49679,-0.50368965,-0.5056698,-0.49579984,-0.48692006,-0.4849708,-0.48791015,-0.49286056,-0.49088037,-0.48692006,-0.48791015,-0.49187046,-0.49286056,-0.48692006,-0.4820006,-0.48592997,-0.49480975,-0.50174034,-0.49579984,-0.48692006,-0.48299068,-0.4849708,-0.49088037,-0.49187046,-0.48791015,-0.4849708,-0.48299068,-0.4770502,-0.46622115,-0.45929056,-0.46523106,-0.4800204,-0.48989034,-0.48890024,-0.4800204,-0.47609103,-0.47510093,-0.47213066,-0.4612707,-0.44942063,-0.44846147,-0.45830047,-0.47114056,-0.47213066,-0.46916044,-0.46622115,-0.4731208,-0.4810105,-0.4790303,-0.47411084,-0.47213066,-0.4731208,-0.47411084,-0.46622115,-0.45830047,-0.45635122,-0.46226078,-0.4671803,-0.46325088,-0.45536113,-0.4523909,-0.45536113,-0.45929056,-0.45041072,-0.43070185,-0.41294223,-0.40208226,-0.40010208,-0.399112,-0.40010208,-0.40208226,-0.40208226,-0.39614177,-0.3714825,-0.33992356,-0.31031388,-0.29552454,-0.29747373,-0.31229407,-0.3428629,-0.3912223,-0.4385916,-0.4770502,-0.4997602,-0.5027305,-0.5027305,-0.50368965,-0.49877012,-0.48890024,-0.4810105,-0.48299068,-0.49088037,-0.49778003,-0.49877012,-0.49679,-0.49778003,-0.5007503,-0.49778003,-0.48791015,-0.4770502,-0.47411084,-0.4790303,-0.48890024,-0.47213066,-0.39221233,-0.19586635,0.14159751,0.54709864,0.87172234,0.96151054,0.74050534,0.288594,-0.2185455,-0.61420774,-0.84016335,-0.9181015,-0.90430224,-0.8480531,-0.7632153,-0.66454726,-0.57769835,-0.5234294,-0.4997602,-0.49286056,-0.49187046,-0.49187046,-0.48791015,-0.4770502,-0.45929056,-0.4405408,-0.42971176,-0.42773163,-0.42872173,-0.42377126,-0.4198419,-0.4198419,-0.42476135,-0.42773163,-0.4198419,-0.4050216,-0.3951826,-0.3951826,-0.39713186,-0.39713186,-0.39320242,-0.3892421,-0.38333255,-0.3754428,-0.36260265,-0.35174274,-0.3497935,-0.35174274,-0.3488034,-0.33398306,-0.31721348,-0.3083337,-0.31229407,-0.32018375,-0.31721348,-0.3073436,-0.2935443,-0.2826844,-0.27182436,-0.2609644,-0.25703502,-0.2639346,-0.27083427,-0.27281445,-0.26294458,-0.25013536,-0.24716508,-0.25013536,-0.25703502,-0.25703502,-0.26000524,-0.27578473,-0.2945344,-0.3073436,-0.31229407,-0.31721348,-0.33299297,-0.35768324,-0.37838215,-0.38825202,-0.39419252,-0.40406245,-0.42278123,-0.44153088,-0.45041072,-0.46028066,-0.47510093,-0.49187046,-0.5046797,-0.50665987,-0.50864005,-0.51751983,-0.5332993,-0.54316914,-0.54316914,-0.53824973,-0.5411891,-0.54907876,-0.55204904,-0.55006886,-0.5441593,-0.5421791,-0.5441593,-0.5421791,-0.53032905,-0.5195,-0.51751983,-0.5224393,-0.5234294,-0.51553965,-0.50368965,-0.49679,-0.49480975,-0.49187046,-0.4849708,-0.4820006,-0.48791015,-0.49480975,-0.49579984,-0.48692006,-0.47609103,-0.47411084,-0.47609103,-0.47510093,-0.46622115,-0.45929056,-0.46424097,-0.47510093,-0.4820006,-0.47609103,-0.46523106,-0.45929056,-0.46424097,-0.47114056,-0.47114056,-0.46622115,-0.46325088,-0.46325088,-0.46622115,-0.46622115,-0.46424097,-0.46817034,-0.47510093,-0.47804022,-0.47510093,-0.47213066,-0.47411084,-0.4770502,-0.47804022,-0.47114056,-0.46424097,-0.46817034,-0.47510093,-0.4820006,-0.4810105,-0.47609103,-0.47804022,-0.4810105,-0.4790303,-0.46817034,-0.4573413,-0.45437104,-0.46325088,-0.47411084,-0.4790303,-0.4800204,-0.4810105,-0.4800204,-0.4770502,-0.46916044,-0.46226078,-0.46523106,-0.47213066,-0.47609103,-0.46817034,-0.45830047,-0.45536113,-0.4573413,-0.4612707,-0.45929056,-0.45437104,-0.45437104,-0.4573413,-0.4573413,-0.45041072,-0.44351113,-0.44747138,-0.45536113,-0.45929056,-0.453381,-0.44450116,-0.4405408,-0.44153088,-0.43958163,-0.42575145,-0.40700173,-0.39320242,-0.38432264,-0.37937218,-0.37247258,-0.3675531,-0.37346268,-0.38135242,-0.38135242,-0.36557293,-0.33893347,-0.31031388,-0.29057407,-0.27776486,-0.27380455,-0.28367442,-0.31229407,-0.35372287,-0.39713186,-0.42971176,-0.45041072,-0.46028066,-0.4671803,-0.47114056,-0.47114056,-0.47114056,-0.47510093,-0.4810105,-0.4790303,-0.47411084,-0.47114056,-0.47609103,-0.48692006,-0.49480975,-0.49480975,-0.48692006,-0.4820006,-0.4790303,-0.4790303,-0.4800204,-0.45830047,-0.3704924,-0.16034716,0.19682562,0.6132177,0.9240111,0.9763309,0.71779525,0.24716508,-0.2580251,-0.6428273,-0.85396266,-0.9151622,-0.88159215,-0.81055367,-0.7267059,-0.64084715,-0.56389904,-0.5046797,-0.47114056,-0.46226078,-0.4731208,-0.4810105,-0.4731208,-0.45536113,-0.43958163,-0.4346313,-0.43562138,-0.4326511,-0.42083198,-0.4109621,-0.4119522,-0.4198419,-0.42182207,-0.4109621,-0.39713186,-0.38726193,-0.38726193,-0.38432264,-0.38135242,-0.3764329,-0.37838215,-0.38036227,-0.37838215,-0.3675531,-0.3566931,-0.355703,-0.3566931,-0.35174274,-0.33794343,-0.32609332,-0.32117385,-0.32216394,-0.31919372,-0.31031388,-0.30044395,-0.29651457,-0.29651457,-0.29156417,-0.27776486,-0.2609644,-0.2530747,-0.2520846,-0.2530747,-0.2511255,-0.2511255,-0.25406474,-0.2580251,-0.2590152,-0.2530747,-0.25013536,-0.25703502,-0.27182436,-0.2866447,-0.29552454,-0.30341423,-0.31919372,-0.33794343,-0.35471296,-0.36359274,-0.37346268,-0.39320242,-0.41588157,-0.4376015,-0.45041072,-0.46028066,-0.47609103,-0.49579984,-0.51161027,-0.51850986,-0.5244195,-0.5332993,-0.54316914,-0.55006886,-0.5530391,-0.5560093,-0.5619189,-0.562909,-0.5579586,-0.54907876,-0.54808867,-0.55696845,-0.56584835,-0.562909,-0.54907876,-0.53626955,-0.5352795,-0.5401989,-0.53725964,-0.5263996,-0.51652974,-0.51652974,-0.5195,-0.51850986,-0.5096301,-0.5007503,-0.50174034,-0.50864005,-0.50864005,-0.49778003,-0.48398072,-0.4800204,-0.4800204,-0.4810105,-0.47804022,-0.47114056,-0.47213066,-0.47804022,-0.4790303,-0.47510093,-0.46622115,-0.46424097,-0.46916044,-0.47213066,-0.4731208,-0.4731208,-0.47510093,-0.47609103,-0.47609103,-0.47411084,-0.4770502,-0.48989034,-0.50174034,-0.5027305,-0.49286056,-0.48299068,-0.47804022,-0.4800204,-0.4810105,-0.47804022,-0.47510093,-0.4770502,-0.4770502,-0.47510093,-0.46817034,-0.46325088,-0.46622115,-0.4671803,-0.4612707,-0.45536113,-0.44942063,-0.45635122,-0.47015053,-0.47804022,-0.47510093,-0.47114056,-0.47213066,-0.47609103,-0.4770502,-0.4731208,-0.4671803,-0.47114056,-0.47804022,-0.47804022,-0.47411084,-0.46523106,-0.46325088,-0.46916044,-0.47213066,-0.46622115,-0.46226078,-0.46226078,-0.46424097,-0.4612707,-0.453381,-0.44648135,-0.44846147,-0.45635122,-0.4612707,-0.45830047,-0.45437104,-0.45437104,-0.45437104,-0.44942063,-0.4376015,-0.43070185,-0.4366114,-0.44747138,-0.453381,-0.44846147,-0.4376015,-0.4346313,-0.4366114,-0.43070185,-0.41588157,-0.39713186,-0.38234246,-0.37838215,-0.38135242,-0.38333255,-0.38333255,-0.38630283,-0.38036227,-0.35867327,-0.32216394,-0.29156417,-0.27776486,-0.2846645,-0.30242413,-0.3290636,-0.36161262,-0.40307236,-0.44450116,-0.46916044,-0.47411084,-0.46916044,-0.46817034,-0.47015053,-0.46916044,-0.4612707,-0.45437104,-0.46028066,-0.47213066,-0.4820006,-0.4810105,-0.47411084,-0.46817034,-0.4671803,-0.46523106,-0.46028066,-0.45437104,-0.45830047,-0.46916044,-0.45437104,-0.36851227,-0.16034716,0.1850065,0.5885583,0.90922165,0.99409056,0.770115,0.31031382,-0.21164584,-0.61915815,-0.84214354,-0.9102118,-0.88654256,-0.82831335,-0.75136524,-0.6576167,-0.56881857,-0.51062024,-0.48592997,-0.4820006,-0.4820006,-0.4790303,-0.47510093,-0.46424097,-0.45140082,-0.4326511,-0.4178617,-0.4188518,-0.42278123,-0.42575145,-0.42083198,-0.41489148,-0.4139014,-0.41588157,-0.41489148,-0.40898192,-0.40307236,-0.4050216,-0.40700173,-0.40406245,-0.39320242,-0.38234246,-0.37838215,-0.37445277,-0.3695023,-0.36062253,-0.35174274,-0.35372287,-0.35471296,-0.34682322,-0.3320338,-0.32117385,-0.31919372,-0.32411313,-0.32216394,-0.31031388,-0.29552454,-0.2856546,-0.27479464,-0.2649247,-0.25604492,-0.25406474,-0.26000524,-0.26591486,-0.2580251,-0.24125552,-0.23039556,-0.23237574,-0.2451849,-0.26000524,-0.26888508,-0.27776486,-0.29057407,-0.30341423,-0.3132841,-0.32117385,-0.33299297,-0.35372287,-0.3714825,-0.38234246,-0.39320242,-0.40799183,-0.43364114,-0.45830047,-0.47114056,-0.47510093,-0.4820006,-0.50174034,-0.5224393,-0.5352795,-0.53725964,-0.5392089,-0.54808867,-0.5599387,-0.5648892,-0.5609288,-0.55501926,-0.55894864,-0.56584835,-0.56584835,-0.5599387,-0.5510589,-0.5471295,-0.54907876,-0.5471295,-0.5401989,-0.53230923,-0.5293699,-0.5263996,-0.51850986,-0.51062024,-0.5056698,-0.50764996,-0.51355946,-0.51062024,-0.4997602,-0.48989034,-0.48692006,-0.48791015,-0.48791015,-0.4849708,-0.48398072,-0.4820006,-0.4800204,-0.47510093,-0.46424097,-0.45830047,-0.46622115,-0.4731208,-0.4731208,-0.46523106,-0.4612707,-0.46817034,-0.4800204,-0.48692006,-0.4810105,-0.46916044,-0.4671803,-0.47213066,-0.47510093,-0.47510093,-0.47510093,-0.4800204,-0.48890024,-0.48890024,-0.4810105,-0.47510093,-0.4770502,-0.4810105,-0.4800204,-0.47114056,-0.46523106,-0.46916044,-0.47609103,-0.4790303,-0.47609103,-0.47114056,-0.47510093,-0.4770502,-0.47213066,-0.46523106,-0.46325088,-0.46916044,-0.47609103,-0.47213066,-0.45929056,-0.45437104,-0.4612707,-0.47114056,-0.47510093,-0.4671803,-0.45929056,-0.46028066,-0.46325088,-0.46028066,-0.45536113,-0.4523909,-0.4573413,-0.4671803,-0.46817034,-0.45635122,-0.44351113,-0.44153088,-0.44549125,-0.44747138,-0.44846147,-0.45140082,-0.45536113,-0.45635122,-0.45536113,-0.44747138,-0.44351113,-0.44747138,-0.453381,-0.453381,-0.45140082,-0.45041072,-0.453381,-0.453381,-0.44450116,-0.43364114,-0.42674154,-0.42872173,-0.4366114,-0.44153088,-0.44252098,-0.4385916,-0.4376015,-0.431661,-0.4188518,-0.40208226,-0.38630283,-0.38135242,-0.38531268,-0.38630283,-0.38432264,-0.3764329,-0.36557293,-0.35471296,-0.33893347,-0.3142742,-0.29156417,-0.2807042,-0.2807042,-0.2856546,-0.31130397,-0.35273278,-0.4050216,-0.453381,-0.4790303,-0.4770502,-0.46226078,-0.4523909,-0.44747138,-0.44549125,-0.44450116,-0.44450116,-0.4523909,-0.46028066,-0.46226078,-0.45929056,-0.45635122,-0.45635122,-0.46028066,-0.45437104,-0.43958163,-0.42674154,-0.42575145,-0.4366114,-0.42278123,-0.33497316,-0.12185764,0.22742534,0.6230875,0.91219187,0.9467212,0.6753763,0.19781566,-0.30440432,-0.661577,-0.8342538,-0.8677929,-0.8322736,-0.7780047,-0.70894635,-0.6240776,-0.5421791,-0.48692006,-0.4573413,-0.44648135,-0.44450116,-0.4405408,-0.4385916,-0.4366114,-0.42278123,-0.4060117,-0.39419252,-0.3912223,-0.3902322,-0.38630283,-0.37937218,-0.37346268,-0.37838215,-0.38432264,-0.38135242,-0.37346268,-0.36260265,-0.35768324,-0.35273278,-0.34682322,-0.33794343,-0.33596325,-0.34091365,-0.34583312,-0.343853,-0.33695334,-0.3270834,-0.32315403,-0.32216394,-0.31523335,-0.3073436,-0.2994539,-0.2935443,-0.2866447,-0.27281445,-0.2619545,-0.25703502,-0.26000524,-0.26591486,-0.2619545,-0.2511255,-0.2392754,-0.23336583,-0.23138559,-0.224486,-0.22052568,-0.22052568,-0.23039556,-0.23630518,-0.23237574,-0.22643518,-0.22643518,-0.2392754,-0.2609644,-0.27380455,-0.27875495,-0.2846645,-0.30242413,-0.32609332,-0.34682322,-0.36260265,-0.37346268,-0.3892421,-0.40898192,-0.42377126,-0.43958163,-0.45437104,-0.47510093,-0.49385065,-0.5046797,-0.50665987,-0.5046797,-0.51062024,-0.5214492,-0.53230923,-0.5392089,-0.5411891,-0.5421791,-0.5401989,-0.5352795,-0.53131914,-0.5283798,-0.53131914,-0.5332993,-0.5263996,-0.51355946,-0.50368965,-0.5027305,-0.5046797,-0.5027305,-0.49778003,-0.48989034,-0.48692006,-0.48398072,-0.47411084,-0.46325088,-0.46226078,-0.46817034,-0.47510093,-0.47114056,-0.46028066,-0.453381,-0.45635122,-0.46325088,-0.4612707,-0.45536113,-0.44942063,-0.453381,-0.46028066,-0.4573413,-0.4523909,-0.44942063,-0.45140082,-0.46028066,-0.4612707,-0.45635122,-0.45140082,-0.453381,-0.45830047,-0.45929056,-0.46028066,-0.46523106,-0.4731208,-0.4800204,-0.47411084,-0.46226078,-0.45140082,-0.45635122,-0.46817034,-0.47411084,-0.47015053,-0.45929056,-0.45437104,-0.4523909,-0.45536113,-0.4573413,-0.46028066,-0.46424097,-0.46622115,-0.46325088,-0.46028066,-0.46226078,-0.4671803,-0.47015053,-0.46817034,-0.46325088,-0.46226078,-0.46622115,-0.4671803,-0.46028066,-0.45536113,-0.45536113,-0.46523106,-0.47609103,-0.47609103,-0.4671803,-0.4573413,-0.453381,-0.45140082,-0.45140082,-0.44846147,-0.453381,-0.46028066,-0.46622115,-0.46622115,-0.4612707,-0.45929056,-0.4612707,-0.46424097,-0.46226078,-0.45830047,-0.45536113,-0.45929056,-0.46424097,-0.4612707,-0.45830047,-0.45929056,-0.46424097,-0.46325088,-0.44942063,-0.431661,-0.4168716,-0.4119522,-0.4109621,-0.4050216,-0.39614177,-0.39812195,-0.40898192,-0.4168716,-0.4060117,-0.38531268,-0.36458284,-0.35174274,-0.3428629,-0.3320338,-0.31820357,-0.31919372,-0.3428629,-0.38333255,-0.42182207,-0.45536113,-0.4810105,-0.49877012,-0.50764996,-0.5027305,-0.49286056,-0.48692006,-0.48890024,-0.49579984,-0.49579984,-0.49385065,-0.49480975,-0.4997602,-0.50174034,-0.49480975,-0.4849708,-0.48299068,-0.48791015,-0.49187046,-0.48592997,-0.4810105,-0.47213066,-0.42773163,-0.2856546,0.00047957897,0.3852818,0.73459566,0.89542234,0.77995396,0.43265116,-0.013319731,-0.4188518,-0.693136,-0.8302935,-0.85495275,-0.81649417,-0.74938506,-0.6704568,-0.59545803,-0.5392089,-0.50864005,-0.50368965,-0.5125694,-0.51850986,-0.5096301,-0.49286056,-0.4810105,-0.4790303,-0.4790303,-0.47411084,-0.46523106,-0.4573413,-0.45830047,-0.46028066,-0.45536113,-0.44549125,-0.4366114,-0.42872173,-0.42476135,-0.4198419,-0.41588157,-0.4198419,-0.42773163,-0.42971176,-0.42182207,-0.41294223,-0.40898192,-0.40898192,-0.40997195,-0.40208226,-0.39320242,-0.38726193,-0.38531268,-0.37937218,-0.3695023,-0.35768324,-0.35273278,-0.35372287,-0.35471296,-0.3448431,-0.33497316,-0.3280735,-0.32510322,-0.31721348,-0.30341423,-0.29057407,-0.29057407,-0.30242413,-0.3053944,-0.30143404,-0.29156417,-0.2876348,-0.29846382,-0.31229407,-0.31820357,-0.32411313,-0.33695334,-0.35768324,-0.38036227,-0.39320242,-0.40208226,-0.40898192,-0.42182207,-0.4385916,-0.44942063,-0.4612707,-0.47804022,-0.49579984,-0.51161027,-0.5195,-0.5263996,-0.53824973,-0.55501926,-0.5678285,-0.5678285,-0.562909,-0.5599387,-0.562909,-0.5698086,-0.5678285,-0.5668384,-0.56881857,-0.57475907,-0.57571816,-0.56881857,-0.5619189,-0.5619189,-0.5678285,-0.56881857,-0.5599387,-0.5461394,-0.53725964,-0.53824973,-0.5401989,-0.53230923,-0.5214492,-0.51850986,-0.5224393,-0.5293699,-0.5293699,-0.5263996,-0.5254096,-0.53032905,-0.5332993,-0.5244195,-0.5125694,-0.5046797,-0.5046797,-0.50764996,-0.50174034,-0.48989034,-0.48592997,-0.49088037,-0.49877012,-0.50174034,-0.49778003,-0.49778003,-0.50174034,-0.5056698,-0.5046797,-0.49877012,-0.49679,-0.5007503,-0.50665987,-0.5046797,-0.50174034,-0.50368965,-0.50864005,-0.51161027,-0.50665987,-0.50174034,-0.5007503,-0.50665987,-0.5145496,-0.51355946,-0.50665987,-0.50174034,-0.49679,-0.49286056,-0.48890024,-0.48592997,-0.48890024,-0.49579984,-0.49877012,-0.49480975,-0.49187046,-0.49385065,-0.4997602,-0.50368965,-0.4997602,-0.49187046,-0.48890024,-0.49385065,-0.49778003,-0.49579984,-0.49088037,-0.48989034,-0.48989034,-0.48890024,-0.4800204,-0.47114056,-0.47114056,-0.4770502,-0.4800204,-0.47804022,-0.47114056,-0.47015053,-0.47609103,-0.48299068,-0.4820006,-0.47609103,-0.47804022,-0.4810105,-0.4820006,-0.4731208,-0.46424097,-0.46325088,-0.47114056,-0.4800204,-0.47804022,-0.47213066,-0.47114056,-0.47804022,-0.48592997,-0.48299068,-0.47213066,-0.46523106,-0.46817034,-0.47213066,-0.46817034,-0.46028066,-0.4573413,-0.45830047,-0.46226078,-0.45635122,-0.43958163,-0.42182207,-0.40700173,-0.39812195,-0.3912223,-0.38531268,-0.38825202,-0.3951826,-0.39713186,-0.3912223,-0.38036227,-0.36458284,-0.3478133,-0.3300537,-0.31031388,-0.30044395,-0.3132841,-0.3478133,-0.39320242,-0.431661,-0.4612707,-0.4820006,-0.49286056,-0.49480975,-0.48890024,-0.4849708,-0.4849708,-0.49877012,-0.5096301,-0.5096301,-0.5046797,-0.50368965,-0.50368965,-0.50368965,-0.49679,-0.48791015,-0.48989034,-0.49579984,-0.49877012,-0.49286056,-0.48692006,-0.47213066,-0.40997195,-0.23630518,0.0863384,0.48592997,0.8115438,0.9141722,0.7276652,0.3280735,-0.14060736,-0.53230923,-0.77899474,-0.88654256,-0.88654256,-0.8322736,-0.75136524,-0.661577,-0.58363885,-0.52738976,-0.5046797,-0.51062024,-0.5263996,-0.52738976,-0.5096301,-0.48592997,-0.47213066,-0.47213066,-0.47510093,-0.47213066,-0.46226078,-0.4573413,-0.45929056,-0.45830047,-0.44942063,-0.43958163,-0.43364114,-0.43562138,-0.4405408,-0.4385916,-0.43562138,-0.43562138,-0.43562138,-0.43364114,-0.42182207,-0.41294223,-0.4119522,-0.41489148,-0.41294223,-0.40010208,-0.38333255,-0.37445277,-0.3764329,-0.38135242,-0.3764329,-0.36851227,-0.36458284,-0.36260265,-0.355703,-0.3418728,-0.3270834,-0.32117385,-0.32411313,-0.32510322,-0.3142742,-0.30044395,-0.2945344,-0.30044395,-0.31031388,-0.3132841,-0.31229407,-0.31523335,-0.32411313,-0.33794343,-0.34583312,-0.35471296,-0.36656302,-0.38234246,-0.39419252,-0.39713186,-0.40109217,-0.4139014,-0.4366114,-0.45929056,-0.47213066,-0.4820006,-0.49286056,-0.50864005,-0.5234294,-0.53131914,-0.53725964,-0.5441593,-0.5619189,-0.57571816,-0.57967854,-0.57769835,-0.58066857,-0.5875683,-0.5934778,-0.5885583,-0.58066857,-0.57475907,-0.57769835,-0.58363885,-0.58363885,-0.57868844,-0.57571816,-0.5698086,-0.56389904,-0.55402917,-0.5441593,-0.5461394,-0.55402917,-0.55696845,-0.54808867,-0.53626955,-0.53428936,-0.5411891,-0.54907876,-0.5471295,-0.53824973,-0.53230923,-0.5283798,-0.5254096,-0.51355946,-0.5027305,-0.50174034,-0.5096301,-0.51652974,-0.5145496,-0.50864005,-0.5096301,-0.51355946,-0.51553965,-0.5096301,-0.5027305,-0.50368965,-0.51161027,-0.51652974,-0.51161027,-0.5046797,-0.5056698,-0.51751983,-0.5263996,-0.5234294,-0.51355946,-0.5046797,-0.50665987,-0.51062024,-0.51161027,-0.51355946,-0.51652974,-0.5145496,-0.51062024,-0.5027305,-0.50174034,-0.51062024,-0.5224393,-0.5244195,-0.5145496,-0.50174034,-0.49877012,-0.5046797,-0.5096301,-0.50665987,-0.5046797,-0.5096301,-0.51652974,-0.51850986,-0.5125694,-0.5056698,-0.50665987,-0.51161027,-0.51355946,-0.50665987,-0.49778003,-0.49579984,-0.5046797,-0.50665987,-0.50368965,-0.4997602,-0.4997602,-0.50665987,-0.5125694,-0.51161027,-0.5056698,-0.50174034,-0.5027305,-0.49877012,-0.48989034,-0.4820006,-0.48299068,-0.49088037,-0.49385065,-0.49088037,-0.48791015,-0.48890024,-0.49679,-0.5046797,-0.5027305,-0.49679,-0.49579984,-0.49778003,-0.49679,-0.49385065,-0.48989034,-0.49088037,-0.49579984,-0.49679,-0.48989034,-0.48398072,-0.48692006,-0.49286056,-0.49579984,-0.4849708,-0.4671803,-0.4523909,-0.44747138,-0.44351113,-0.431661,-0.42278123,-0.4168716,-0.4198419,-0.42278123,-0.4188518,-0.4109621,-0.40700173,-0.40406245,-0.39221233,-0.36260265,-0.32315403,-0.3053944,-0.30635357,-0.32510322,-0.35174274,-0.38630283,-0.42872173,-0.4731208,-0.50764996,-0.5195,-0.51553965,-0.51355946,-0.5145496,-0.5145496,-0.50764996,-0.5027305,-0.50764996,-0.51553965,-0.5204901,-0.51553965,-0.50665987,-0.50764996,-0.5145496,-0.5195,-0.51652974,-0.5056698,-0.4997602,-0.50864005,-0.5096301,-0.46226078,-0.31622344,-0.031079412,0.36359274,0.74050534,0.94375086,0.8599032,0.49282968,-0.014309764,-0.4800204,-0.78490436,-0.92008173,-0.93193173,-0.87964296,-0.79774445,-0.7000665,-0.6082981,-0.54907876,-0.5234294,-0.5214492,-0.5224393,-0.51850986,-0.51355946,-0.50864005,-0.5027305,-0.48989034,-0.47609103,-0.47015053,-0.46622115,-0.4612707,-0.45140082,-0.4405408,-0.43958163,-0.44549125,-0.44747138,-0.4366114,-0.42872173,-0.42773163,-0.4326511,-0.4385916,-0.4346313,-0.42476135,-0.4198419,-0.4198419,-0.4188518,-0.40898192,-0.39713186,-0.3902322,-0.38825202,-0.38234246,-0.37346268,-0.36656302,-0.36458284,-0.36359274,-0.35768324,-0.34091365,-0.32510322,-0.31919372,-0.31919372,-0.32018375,-0.31229407,-0.30143404,-0.29846382,-0.30143404,-0.30044395,-0.29156417,-0.28367442,-0.2807042,-0.2866447,-0.2945344,-0.29846382,-0.30341423,-0.31721348,-0.33497316,-0.3497935,-0.3566931,-0.36458284,-0.37937218,-0.40208226,-0.42083198,-0.42971176,-0.43562138,-0.45041072,-0.47411084,-0.49480975,-0.50764996,-0.51652974,-0.5293699,-0.54316914,-0.5560093,-0.5619189,-0.5619189,-0.5668384,-0.57571816,-0.58363885,-0.5855881,-0.58657813,-0.5895484,-0.5925187,-0.5915286,-0.584598,-0.57868844,-0.57769835,-0.57670826,-0.5698086,-0.55501926,-0.5461394,-0.55006886,-0.55696845,-0.5599387,-0.54808867,-0.53626955,-0.5352795,-0.5441593,-0.55006886,-0.5461394,-0.5332993,-0.5263996,-0.5263996,-0.52738976,-0.5244195,-0.51850986,-0.5195,-0.5234294,-0.5234294,-0.51751983,-0.5096301,-0.51062024,-0.51850986,-0.5234294,-0.5204901,-0.51652974,-0.51553965,-0.5214492,-0.52738976,-0.5244195,-0.51652974,-0.51652974,-0.5195,-0.5214492,-0.5224393,-0.5234294,-0.5254096,-0.5293699,-0.5293699,-0.5254096,-0.5234294,-0.5283798,-0.5332993,-0.5293699,-0.51850986,-0.50665987,-0.50764996,-0.5145496,-0.5195,-0.5195,-0.51751983,-0.5204901,-0.5263996,-0.5254096,-0.51751983,-0.51062024,-0.51161027,-0.51751983,-0.51751983,-0.5096301,-0.5027305,-0.4997602,-0.50174034,-0.5027305,-0.49679,-0.49480975,-0.5007503,-0.5056698,-0.5096301,-0.5096301,-0.51062024,-0.5204901,-0.53032905,-0.5293699,-0.51850986,-0.50764996,-0.50864005,-0.51553965,-0.51355946,-0.5007503,-0.48791015,-0.4820006,-0.49286056,-0.5046797,-0.51161027,-0.51161027,-0.51161027,-0.5125694,-0.51062024,-0.5056698,-0.4997602,-0.4997602,-0.4997602,-0.49480975,-0.4849708,-0.47804022,-0.4800204,-0.4810105,-0.47213066,-0.453381,-0.43562138,-0.431661,-0.43562138,-0.4346313,-0.42575145,-0.41588157,-0.4119522,-0.40700173,-0.38825202,-0.355703,-0.3300537,-0.3280735,-0.3448431,-0.3704924,-0.40109217,-0.43364114,-0.47411084,-0.5125694,-0.5332993,-0.5352795,-0.5283798,-0.5244195,-0.5234294,-0.5214492,-0.5145496,-0.51161027,-0.5204901,-0.53230923,-0.53824973,-0.5352795,-0.5283798,-0.5254096,-0.5263996,-0.5204901,-0.50665987,-0.49679,-0.5007503,-0.5046797,-0.4573413,-0.29846382,0.0034497976,0.4040314,0.7710742,0.94870126,0.836203,0.4494207,-0.070558965,-0.5352795,-0.825374,-0.9358612,-0.9279714,-0.87568265,-0.8095636,-0.72766507,-0.6369177,-0.5599387,-0.5204901,-0.5145496,-0.5195,-0.51850986,-0.5125694,-0.5056698,-0.50174034,-0.49187046,-0.47609103,-0.46424097,-0.4612707,-0.4612707,-0.45830047,-0.44846147,-0.4405408,-0.4405408,-0.44252098,-0.4405408,-0.431661,-0.42377126,-0.42377126,-0.42476135,-0.4188518,-0.40997195,-0.40208226,-0.40109217,-0.40109217,-0.3951826,-0.38135242,-0.3695023,-0.36851227,-0.3695023,-0.36851227,-0.36260265,-0.35372287,-0.3497935,-0.34682322,-0.33893347,-0.32510322,-0.3142742,-0.3093238,-0.30440432,-0.29552454,-0.2797141,-0.2669049,-0.26888508,-0.27677476,-0.28367442,-0.2816943,-0.27380455,-0.26984423,-0.26984423,-0.27182436,-0.27578473,-0.28367442,-0.29846382,-0.31721348,-0.33398306,-0.343853,-0.35471296,-0.3695023,-0.38825202,-0.4050216,-0.4198419,-0.4346313,-0.45536113,-0.4800204,-0.49778003,-0.5096301,-0.5204901,-0.5352795,-0.55204904,-0.5609288,-0.562909,-0.5648892,-0.573769,-0.584598,-0.5915286,-0.5895484,-0.5855881,-0.5915286,-0.59743816,-0.60040843,-0.5925187,-0.5816587,-0.57868844,-0.58264875,-0.58363885,-0.57769835,-0.56881857,-0.562909,-0.5560093,-0.54808867,-0.5332993,-0.5195,-0.51751983,-0.5234294,-0.5254096,-0.5234294,-0.51850986,-0.51652974,-0.51161027,-0.5027305,-0.49286056,-0.48989034,-0.49877012,-0.50368965,-0.5007503,-0.48692006,-0.47609103,-0.4800204,-0.48791015,-0.49579984,-0.49778003,-0.49679,-0.5027305,-0.50864005,-0.50764996,-0.5046797,-0.5007503,-0.50368965,-0.50864005,-0.50764996,-0.49877012,-0.49187046,-0.49286056,-0.49579984,-0.49679,-0.48989034,-0.48592997,-0.48592997,-0.48989034,-0.48989034,-0.47804022,-0.46817034,-0.47609103,-0.49088037,-0.4997602,-0.49778003,-0.48989034,-0.48692006,-0.49088037,-0.49579984,-0.49286056,-0.48299068,-0.47804022,-0.47804022,-0.4770502,-0.4770502,-0.47609103,-0.4810105,-0.48989034,-0.48989034,-0.48592997,-0.48398072,-0.49385065,-0.5056698,-0.50764996,-0.49778003,-0.48692006,-0.4849708,-0.49187046,-0.49579984,-0.49088037,-0.4820006,-0.4790303,-0.4800204,-0.4790303,-0.47114056,-0.46523106,-0.46424097,-0.4671803,-0.46028066,-0.44153088,-0.42182207,-0.40997195,-0.4109621,-0.41489148,-0.41489148,-0.4139014,-0.4139014,-0.4119522,-0.39614177,-0.36458284,-0.33104372,-0.31523335,-0.31622344,-0.3280735,-0.3488034,-0.37937218,-0.42182207,-0.46622115,-0.49579984,-0.5056698,-0.5027305,-0.5046797,-0.50665987,-0.50764996,-0.5007503,-0.50174034,-0.50665987,-0.5125694,-0.5125694,-0.50174034,-0.49679,-0.5027305,-0.5096301,-0.50764996,-0.49187046,-0.47114056,-0.4612707,-0.46622115,-0.46622115,-0.42872173,-0.30341423,-0.045868635,0.3182037,0.6714469,0.86284244,0.7750344,0.4178617,-0.06266916,-0.49088037,-0.7612351,-0.8707632,-0.87469256,-0.82831335,-0.7632153,-0.6823069,-0.60139847,-0.53725964,-0.49286056,-0.47213066,-0.46424097,-0.46226078,-0.4671803,-0.4671803,-0.45929056,-0.44450116,-0.42971176,-0.42182207,-0.4119522,-0.399112,-0.3902322,-0.38825202,-0.3951826,-0.40109217,-0.39419252,-0.377423,-0.3675531,-0.37445277,-0.38234246,-0.38135242,-0.3714825,-0.36062253,-0.36260265,-0.3695023,-0.3704924,-0.35963243,-0.3478133,-0.3448431,-0.3418728,-0.33794343,-0.3280735,-0.31820357,-0.31919372,-0.31919372,-0.31130397,-0.29846382,-0.29156417,-0.29156417,-0.2885939,-0.27776486,-0.2590152,-0.24125552,-0.2392754,-0.24815524,-0.2520846,-0.2530747,-0.2511255,-0.2511255,-0.2520846,-0.24914527,-0.24320477,-0.24125552,-0.25013536,-0.2669049,-0.2807042,-0.28958404,-0.30143404,-0.31721348,-0.33794343,-0.35867327,-0.3754428,-0.39419252,-0.42083198,-0.44846147,-0.46622115,-0.4800204,-0.48791015,-0.5007503,-0.51652974,-0.52738976,-0.53428936,-0.54316914,-0.55204904,-0.55894864,-0.5599387,-0.55696845,-0.55894864,-0.5678285,-0.57571816,-0.57670826,-0.56881857,-0.5579586,-0.5560093,-0.5579586,-0.55402917,-0.5451494,-0.53230923,-0.5283798,-0.5293699,-0.53131914,-0.5332993,-0.53131914,-0.5293699,-0.5195,-0.50864005,-0.49679,-0.49385065,-0.50174034,-0.50764996,-0.5027305,-0.49187046,-0.4849708,-0.48989034,-0.49778003,-0.49679,-0.48398072,-0.47213066,-0.47015053,-0.47609103,-0.48299068,-0.48890024,-0.49877012,-0.50864005,-0.5125694,-0.5027305,-0.48791015,-0.4800204,-0.48692006,-0.49778003,-0.50368965,-0.49877012,-0.49187046,-0.49286056,-0.49778003,-0.49480975,-0.49187046,-0.49088037,-0.49679,-0.50764996,-0.51161027,-0.50864005,-0.5007503,-0.49286056,-0.48692006,-0.48299068,-0.4810105,-0.48692006,-0.50174034,-0.5096301,-0.50665987,-0.49679,-0.48692006,-0.48692006,-0.49480975,-0.5007503,-0.50174034,-0.5046797,-0.50665987,-0.50764996,-0.50174034,-0.49187046,-0.49187046,-0.5007503,-0.51161027,-0.5145496,-0.5027305,-0.48890024,-0.4849708,-0.48398072,-0.47804022,-0.46523106,-0.44747138,-0.4346313,-0.42773163,-0.42575145,-0.42575145,-0.42971176,-0.4376015,-0.4405408,-0.42575145,-0.39812195,-0.3714825,-0.3566931,-0.355703,-0.36458284,-0.38135242,-0.40799183,-0.44747138,-0.49187046,-0.5244195,-0.53824973,-0.53824973,-0.53230923,-0.5263996,-0.5214492,-0.51850986,-0.5204901,-0.53131914,-0.5401989,-0.54316914,-0.5392089,-0.5392089,-0.5441593,-0.5471295,-0.5392089,-0.5293699,-0.5224393,-0.5254096,-0.53824973,-0.53725964,-0.49286056,-0.36557293,-0.116938174,0.23531508,0.5924877,0.8085736,0.7602451,0.45140076,0.005429983,-0.42575145,-0.7237357,-0.8737024,-0.9190916,-0.8894819,-0.81943345,-0.7257159,-0.63985705,-0.58657813,-0.56584835,-0.5678285,-0.5717888,-0.5648892,-0.5599387,-0.54907876,-0.53626955,-0.5263996,-0.51652974,-0.51161027,-0.50864005,-0.4997602,-0.49088037,-0.49480975,-0.51062024,-0.53032905,-0.5441593,-0.54907876,-0.5530391,-0.5599387,-0.5668384,-0.56584835,-0.55894864,-0.55204904,-0.5510589,-0.54907876,-0.5421791,-0.53032905,-0.5283798,-0.5352795,-0.5411891,-0.53824973,-0.52738976,-0.51850986,-0.5214492,-0.53032905,-0.53230923,-0.53032905,-0.52738976,-0.5293699,-0.53131914,-0.5234294,-0.50665987,-0.49480975,-0.48890024,-0.48890024,-0.48989034,-0.48989034,-0.48989034,-0.49385065,-0.49286056,-0.48398072,-0.47411084,-0.47411084,-0.48692006,-0.50368965,-0.5125694,-0.51553965,-0.5204901,-0.53428936,-0.55402917,-0.56881857,-0.57868844,-0.5895484,-0.60532784,-0.6250677,-0.64183724,-0.6517071,-0.66454726,-0.6773565,-0.68821645,-0.693136,-0.69019663,-0.694126,-0.70795625,-0.7207655,-0.7267059,-0.72274566,-0.71584594,-0.7118857,-0.7148559,-0.7168361,-0.7168361,-0.7168361,-0.7187853,-0.71584594,-0.704986,-0.6921458,-0.68131685,-0.6763664,-0.66946673,-0.6566266,-0.64480746,-0.63787687,-0.64084715,-0.64480746,-0.64084715,-0.6319673,-0.6280379,-0.6299872,-0.6309773,-0.6201173,-0.6033478,-0.5895484,-0.5855881,-0.5875683,-0.5816587,-0.5816587,-0.5855881,-0.5925187,-0.59545803,-0.5855881,-0.5727788,-0.56881857,-0.57769835,-0.5885583,-0.5855881,-0.57571816,-0.5648892,-0.562909,-0.5668384,-0.56584835,-0.56389904,-0.56389904,-0.5678285,-0.5668384,-0.5579586,-0.5441593,-0.5392089,-0.5451494,-0.55696845,-0.5579586,-0.5530391,-0.54808867,-0.5471295,-0.54907876,-0.54316914,-0.5352795,-0.5283798,-0.53725964,-0.5510589,-0.5560093,-0.5530391,-0.5441593,-0.5352795,-0.5293699,-0.5254096,-0.5214492,-0.5204901,-0.52738976,-0.53626955,-0.53626955,-0.53230923,-0.5254096,-0.5244195,-0.52738976,-0.5263996,-0.5254096,-0.5234294,-0.5214492,-0.51652974,-0.5056698,-0.49778003,-0.49877012,-0.5096301,-0.5195,-0.5145496,-0.50174034,-0.49579984,-0.49679,-0.5027305,-0.5027305,-0.49480975,-0.48398072,-0.47114056,-0.46028066,-0.44351113,-0.4326511,-0.4346313,-0.44648135,-0.45437104,-0.44846147,-0.431661,-0.4139014,-0.399112,-0.38333255,-0.36359274,-0.34682322,-0.34682322,-0.3714825,-0.41294223,-0.453381,-0.48890024,-0.51850986,-0.53725964,-0.54316914,-0.5352795,-0.5224393,-0.5125694,-0.5145496,-0.5214492,-0.5254096,-0.5283798,-0.5352795,-0.54316914,-0.54808867,-0.5401989,-0.52738976,-0.51751983,-0.5145496,-0.5145496,-0.50864005,-0.50368965,-0.50368965,-0.49088037,-0.41294223,-0.20672637,0.13565707,0.53131914,0.83719313,0.91612136,0.71977544,0.32216406,-0.14258748,-0.53230923,-0.7819341,-0.8786529,-0.86977303,-0.8076144,-0.7187853,-0.6289971,-0.55894864,-0.5224393,-0.51850986,-0.5392089,-0.55402917,-0.5461394,-0.53230923,-0.5204901,-0.51553965,-0.5096301,-0.49286056,-0.46817034,-0.45041072,-0.44252098,-0.44252098,-0.43562138,-0.42971176,-0.431661,-0.44648135,-0.4612707,-0.4671803,-0.46226078,-0.4573413,-0.45437104,-0.45437104,-0.44942063,-0.4366114,-0.42674154,-0.42476135,-0.4198419,-0.4119522,-0.40010208,-0.39419252,-0.39419252,-0.3951826,-0.38726193,-0.3754428,-0.36359274,-0.35867327,-0.35471296,-0.34583312,-0.33794343,-0.33299297,-0.3320338,-0.3280735,-0.31523335,-0.30440432,-0.30044395,-0.3053944,-0.31229407,-0.3053944,-0.30044395,-0.30242413,-0.3142742,-0.3280735,-0.33794343,-0.33992356,-0.34583312,-0.36062253,-0.377423,-0.3892421,-0.40010208,-0.4168716,-0.4385916,-0.45437104,-0.46028066,-0.4573413,-0.46028066,-0.4770502,-0.49480975,-0.50864005,-0.51355946,-0.51850986,-0.5283798,-0.5411891,-0.54907876,-0.55402917,-0.5619189,-0.57079875,-0.57571816,-0.56881857,-0.5599387,-0.55696845,-0.562909,-0.573769,-0.5717888,-0.56584835,-0.55894864,-0.5560093,-0.5530391,-0.5451494,-0.53626955,-0.53626955,-0.5421791,-0.54316914,-0.53428936,-0.5224393,-0.51553965,-0.5204901,-0.5254096,-0.5214492,-0.51355946,-0.50864005,-0.51062024,-0.51751983,-0.51553965,-0.51062024,-0.5096301,-0.51355946,-0.51850986,-0.51751983,-0.51355946,-0.51062024,-0.51161027,-0.51161027,-0.5046797,-0.49679,-0.49579984,-0.50368965,-0.51355946,-0.51751983,-0.51751983,-0.51751983,-0.5204901,-0.5234294,-0.51652974,-0.5096301,-0.51062024,-0.51850986,-0.5283798,-0.53131914,-0.5254096,-0.5234294,-0.5254096,-0.52738976,-0.5234294,-0.51751983,-0.5125694,-0.5145496,-0.51553965,-0.51062024,-0.50665987,-0.5056698,-0.5125694,-0.51553965,-0.5125694,-0.51062024,-0.51161027,-0.51652974,-0.51751983,-0.5125694,-0.50368965,-0.50368965,-0.5125694,-0.5195,-0.51751983,-0.50864005,-0.4997602,-0.49679,-0.49877012,-0.49480975,-0.48989034,-0.49187046,-0.49877012,-0.50368965,-0.50368965,-0.49778003,-0.49480975,-0.49877012,-0.5027305,-0.49778003,-0.49088037,-0.48791015,-0.49088037,-0.49385065,-0.49385065,-0.49187046,-0.49385065,-0.4997602,-0.50368965,-0.49480975,-0.48791015,-0.48791015,-0.49480975,-0.50174034,-0.4997602,-0.48989034,-0.48398072,-0.48592997,-0.48890024,-0.48692006,-0.48592997,-0.48791015,-0.49480975,-0.5007503,-0.49778003,-0.48890024,-0.48299068,-0.48398072,-0.48398072,-0.4800204,-0.4731208,-0.47015053,-0.47114056,-0.4731208,-0.46523106,-0.45140082,-0.4376015,-0.431661,-0.431661,-0.42971176,-0.42971176,-0.42971176,-0.42971176,-0.42476135,-0.40700173,-0.37937218,-0.35372287,-0.33398306,-0.3270834,-0.3270834,-0.34091365,-0.377423,-0.42476135,-0.47213066,-0.50368965,-0.5145496,-0.5204901,-0.5254096,-0.5263996,-0.51850986,-0.50864005,-0.50764996,-0.51751983,-0.53032905,-0.5283798,-0.51850986,-0.50764996,-0.5056698,-0.51062024,-0.51062024,-0.5046797,-0.49679,-0.49480975,-0.5007503,-0.50174034,-0.47411084,-0.36359274,-0.118887365,0.2609644,0.67636645,0.9644809,0.9832305,0.7010257,0.23138571,-0.2530747,-0.61717796,-0.8233938,-0.8934422,-0.8737024,-0.8046441,-0.70795625,-0.6112374,-0.53824973,-0.49385065,-0.4770502,-0.47609103,-0.4820006,-0.48592997,-0.47804022,-0.46325088,-0.44942063,-0.4405408,-0.4385916,-0.4366114,-0.42674154,-0.4178617,-0.41588157,-0.4168716,-0.41489148,-0.4050216,-0.39419252,-0.39221233,-0.39713186,-0.4060117,-0.40898192,-0.4109621,-0.41294223,-0.4119522,-0.4050216,-0.3902322,-0.37346268,-0.36656302,-0.3695023,-0.3714825,-0.36656302,-0.35963243,-0.35768324,-0.35768324,-0.35174274,-0.34091365,-0.32609332,-0.32018375,-0.32411313,-0.3290636,-0.32609332,-0.32018375,-0.31622344,-0.31523335,-0.3142742,-0.3083337,-0.30242413,-0.30242413,-0.3073436,-0.31130397,-0.3093238,-0.30635357,-0.31622344,-0.33497316,-0.355703,-0.3695023,-0.37445277,-0.38333255,-0.39419252,-0.40307236,-0.40997195,-0.4139014,-0.42575145,-0.44252098,-0.4573413,-0.46916044,-0.4770502,-0.48890024,-0.50864005,-0.5214492,-0.5254096,-0.5254096,-0.5293699,-0.53824973,-0.5461394,-0.54808867,-0.5461394,-0.54808867,-0.5560093,-0.5599387,-0.55501926,-0.5510589,-0.55006886,-0.55402917,-0.55402917,-0.5471295,-0.53626955,-0.5352795,-0.5411891,-0.5441593,-0.5392089,-0.52738976,-0.51850986,-0.51355946,-0.51062024,-0.50368965,-0.49877012,-0.5007503,-0.5096301,-0.51553965,-0.51161027,-0.50174034,-0.49286056,-0.49088037,-0.49286056,-0.49480975,-0.49778003,-0.5027305,-0.50864005,-0.5056698,-0.49877012,-0.49187046,-0.49579984,-0.5096301,-0.5195,-0.5145496,-0.5027305,-0.49286056,-0.49088037,-0.49385065,-0.49877012,-0.50368965,-0.51355946,-0.5254096,-0.52738976,-0.51652974,-0.5046797,-0.5007503,-0.50764996,-0.51553965,-0.51355946,-0.50665987,-0.5027305,-0.5056698,-0.51062024,-0.51161027,-0.50864005,-0.50764996,-0.50764996,-0.50864005,-0.50174034,-0.49579984,-0.49286056,-0.49480975,-0.5007503,-0.5007503,-0.4997602,-0.5007503,-0.5046797,-0.50764996,-0.50174034,-0.49088037,-0.48692006,-0.49187046,-0.4997602,-0.50368965,-0.50368965,-0.5046797,-0.51062024,-0.51850986,-0.51652974,-0.51355946,-0.51355946,-0.51751983,-0.5244195,-0.5214492,-0.51553965,-0.5145496,-0.5204901,-0.5254096,-0.5244195,-0.51751983,-0.51751983,-0.5214492,-0.52738976,-0.5204901,-0.50764996,-0.49579984,-0.48989034,-0.48890024,-0.48692006,-0.48592997,-0.49088037,-0.49579984,-0.49679,-0.48592997,-0.47114056,-0.46622115,-0.46817034,-0.47213066,-0.46916044,-0.46325088,-0.46325088,-0.46622115,-0.4671803,-0.45929056,-0.44846147,-0.44846147,-0.4523909,-0.45437104,-0.44747138,-0.4326511,-0.42182207,-0.4178617,-0.41489148,-0.4050216,-0.3912223,-0.38726193,-0.38726193,-0.38825202,-0.38825202,-0.38432264,-0.38333255,-0.38036227,-0.36656302,-0.33992356,-0.31229407,-0.29651457,-0.29747373,-0.31130397,-0.3280735,-0.355703,-0.39812195,-0.44153088,-0.47510093,-0.4849708,-0.47804022,-0.47114056,-0.46916044,-0.46817034,-0.46226078,-0.45830047,-0.46226078,-0.4731208,-0.48592997,-0.48692006,-0.4820006,-0.4790303,-0.4820006,-0.48592997,-0.4820006,-0.47510093,-0.4671803,-0.46622115,-0.46325088,-0.42674154,-0.3073436,-0.061679065,0.29846382,0.66256714,0.87862206,0.8233938,0.48592997,0.00443995,-0.44153088,-0.7365449,-0.8648226,-0.88456243,-0.84904313,-0.7888647,-0.70300585,-0.60730803,-0.53131914,-0.48692006,-0.4731208,-0.47510093,-0.47510093,-0.4770502,-0.47609103,-0.46916044,-0.453381,-0.43562138,-0.42575145,-0.42278123,-0.42377126,-0.42083198,-0.4178617,-0.41294223,-0.40898192,-0.40406245,-0.3951826,-0.3902322,-0.3902322,-0.39320242,-0.39320242,-0.38825202,-0.38234246,-0.38234246,-0.38333255,-0.377423,-0.36458284,-0.35372287,-0.35174274,-0.3507526,-0.35273278,-0.3488034,-0.34091365,-0.33992356,-0.33893347,-0.3320338,-0.32117385,-0.3142742,-0.31622344,-0.31919372,-0.31721348,-0.30341423,-0.2885939,-0.2807042,-0.2797141,-0.27776486,-0.26984423,-0.2649247,-0.27182436,-0.2856546,-0.2945344,-0.29651457,-0.2935443,-0.29846382,-0.3132841,-0.3290636,-0.33596325,-0.343853,-0.355703,-0.3714825,-0.38432264,-0.3912223,-0.40208226,-0.42377126,-0.45041072,-0.46424097,-0.46226078,-0.45929056,-0.46916044,-0.49187046,-0.51355946,-0.5234294,-0.5224393,-0.5234294,-0.53032905,-0.5352795,-0.53428936,-0.53428936,-0.53824973,-0.5461394,-0.55006886,-0.54907876,-0.5471295,-0.54907876,-0.5510589,-0.54907876,-0.5411891,-0.53230923,-0.53032905,-0.53230923,-0.5263996,-0.51652974,-0.50764996,-0.5056698,-0.51355946,-0.5204901,-0.51850986,-0.5195,-0.5214492,-0.5244195,-0.5224393,-0.51062024,-0.49877012,-0.49480975,-0.49679,-0.50174034,-0.5027305,-0.5007503,-0.5046797,-0.51161027,-0.5145496,-0.51161027,-0.5056698,-0.50764996,-0.5096301,-0.5145496,-0.5145496,-0.51751983,-0.5224393,-0.5244195,-0.5204901,-0.50764996,-0.4997602,-0.5056698,-0.51553965,-0.5195,-0.5125694,-0.5046797,-0.5046797,-0.5096301,-0.51355946,-0.51161027,-0.50764996,-0.51062024,-0.51553965,-0.51355946,-0.4997602,-0.48791015,-0.48890024,-0.49877012,-0.50665987,-0.50864005,-0.50665987,-0.50764996,-0.51355946,-0.51355946,-0.50368965,-0.49385065,-0.49480975,-0.50174034,-0.50174034,-0.49187046,-0.48398072,-0.4849708,-0.49579984,-0.5056698,-0.50368965,-0.49385065,-0.49088037,-0.49679,-0.5056698,-0.50368965,-0.49679,-0.49187046,-0.48989034,-0.48890024,-0.4849708,-0.4849708,-0.49088037,-0.49877012,-0.5007503,-0.48692006,-0.47411084,-0.47015053,-0.47609103,-0.48398072,-0.4810105,-0.47510093,-0.4731208,-0.4790303,-0.4820006,-0.4810105,-0.47609103,-0.47411084,-0.4770502,-0.47609103,-0.46916044,-0.46424097,-0.46424097,-0.46916044,-0.4731208,-0.47114056,-0.46622115,-0.46622115,-0.46325088,-0.4573413,-0.44450116,-0.431661,-0.4326511,-0.4376015,-0.4405408,-0.43562138,-0.42182207,-0.4139014,-0.40898192,-0.40700173,-0.40109217,-0.39419252,-0.39221233,-0.38726193,-0.37247258,-0.3507526,-0.3290636,-0.31820357,-0.32117385,-0.3320338,-0.35471296,-0.39221233,-0.44153088,-0.48592997,-0.5027305,-0.49480975,-0.47609103,-0.46916044,-0.47609103,-0.48592997,-0.49187046,-0.49679,-0.5027305,-0.50864005,-0.51161027,-0.5027305,-0.49385065,-0.49286056,-0.4997602,-0.5027305,-0.49778003,-0.49187046,-0.49579984,-0.49877012,-0.46226078,-0.3270834,-0.061679065,0.30536354,0.66256714,0.86974204,0.8155041,0.5007503,0.040949345,-0.40799183,-0.71584594,-0.8648226,-0.890472,-0.8510234,-0.7819341,-0.68920654,-0.59644806,-0.5283798,-0.5027305,-0.5056698,-0.5125694,-0.51355946,-0.5056698,-0.50368965,-0.5027305,-0.49679,-0.4810105,-0.46523106,-0.46226078,-0.46916044,-0.46817034,-0.46028066,-0.4523909,-0.45437104,-0.46523106,-0.47510093,-0.47114056,-0.45830047,-0.44648135,-0.4385916,-0.42971176,-0.42575145,-0.42476135,-0.42971176,-0.431661,-0.42476135,-0.40997195,-0.39713186,-0.3951826,-0.39812195,-0.39419252,-0.38234246,-0.3704924,-0.36062253,-0.3566931,-0.35372287,-0.35174274,-0.35174274,-0.35273278,-0.3507526,-0.3428629,-0.32609332,-0.3132841,-0.31031388,-0.31523335,-0.31820357,-0.32018375,-0.32411313,-0.3320338,-0.34091365,-0.343853,-0.3418728,-0.33893347,-0.3478133,-0.36161262,-0.3754428,-0.38726193,-0.40208226,-0.42476135,-0.44846147,-0.46028066,-0.46622115,-0.46916044,-0.4820006,-0.5007503,-0.51751983,-0.5254096,-0.53032905,-0.53824973,-0.5510589,-0.5619189,-0.5727788,-0.58363885,-0.59545803,-0.6043378,-0.6033478,-0.59644806,-0.5915286,-0.59545803,-0.60139847,-0.60040843,-0.5915286,-0.58264875,-0.58363885,-0.5885583,-0.5885583,-0.58066857,-0.5698086,-0.5648892,-0.56389904,-0.5619189,-0.5530391,-0.5411891,-0.53824973,-0.5392089,-0.53626955,-0.53131914,-0.52738976,-0.53230923,-0.5401989,-0.53824973,-0.52738976,-0.5145496,-0.50864005,-0.51062024,-0.51355946,-0.51062024,-0.5056698,-0.50864005,-0.51751983,-0.5195,-0.51553965,-0.5056698,-0.49679,-0.49286056,-0.49088037,-0.4849708,-0.48592997,-0.49480975,-0.50764996,-0.51751983,-0.51850986,-0.5145496,-0.5125694,-0.51161027,-0.5056698,-0.49877012,-0.49385065,-0.49579984,-0.49877012,-0.49877012,-0.49385065,-0.49088037,-0.49385065,-0.49877012,-0.49778003,-0.49385065,-0.49286056,-0.49187046,-0.49385065,-0.48890024,-0.48398072,-0.4820006,-0.48791015,-0.49187046,-0.4810105,-0.47015053,-0.46424097,-0.4671803,-0.47804022,-0.4810105,-0.47609103,-0.46916044,-0.4671803,-0.46817034,-0.46916044,-0.46523106,-0.46424097,-0.47114056,-0.47804022,-0.4800204,-0.4770502,-0.46916044,-0.4671803,-0.4671803,-0.46325088,-0.45635122,-0.453381,-0.4573413,-0.46523106,-0.46523106,-0.4612707,-0.45830047,-0.4612707,-0.46523106,-0.46424097,-0.453381,-0.44846147,-0.45437104,-0.46424097,-0.4671803,-0.46028066,-0.45041072,-0.45140082,-0.4612707,-0.47015053,-0.47213066,-0.46916044,-0.46622115,-0.46817034,-0.46523106,-0.45437104,-0.4405408,-0.4326511,-0.43070185,-0.42773163,-0.42083198,-0.4109621,-0.4050216,-0.40307236,-0.39812195,-0.39614177,-0.3951826,-0.399112,-0.40010208,-0.38333255,-0.3497935,-0.31721348,-0.30044395,-0.30440432,-0.32315403,-0.35372287,-0.3912223,-0.4346313,-0.47213066,-0.49187046,-0.49385065,-0.48890024,-0.48989034,-0.49286056,-0.49187046,-0.48692006,-0.48299068,-0.48989034,-0.4997602,-0.5027305,-0.4997602,-0.49480975,-0.49877012,-0.50864005,-0.5145496,-0.50665987,-0.49187046,-0.48692006,-0.49286056,-0.4790303,-0.39320242,-0.18599647,0.15638685,0.5540291,0.85396266,0.9102118,0.66451645,0.20276606,-0.30341423,-0.68821645,-0.8944323,-0.9575811,-0.9358612,-0.8737024,-0.78490436,-0.67933667,-0.5885583,-0.53626955,-0.5204901,-0.5214492,-0.5244195,-0.5224393,-0.5195,-0.5125694,-0.49579984,-0.47411084,-0.4573413,-0.453381,-0.45536113,-0.45536113,-0.45140082,-0.44846147,-0.44942063,-0.4523909,-0.44846147,-0.44153088,-0.4376015,-0.44153088,-0.44252098,-0.43562138,-0.42278123,-0.4139014,-0.4139014,-0.42182207,-0.42083198,-0.40898192,-0.39221233,-0.38825202,-0.3912223,-0.3902322,-0.38135242,-0.3675531,-0.35768324,-0.35174274,-0.3448431,-0.33893347,-0.3300537,-0.3270834,-0.32411313,-0.31229407,-0.29846382,-0.29057407,-0.29255426,-0.29747373,-0.29651457,-0.2876348,-0.2797141,-0.2846645,-0.29156417,-0.2935443,-0.2885939,-0.2826844,-0.2935443,-0.3132841,-0.3320338,-0.3488034,-0.36458284,-0.38432264,-0.4060117,-0.4198419,-0.42575145,-0.431661,-0.44747138,-0.46523106,-0.4810105,-0.48890024,-0.49679,-0.51161027,-0.5244195,-0.53131914,-0.53725964,-0.5461394,-0.5619189,-0.57571816,-0.57670826,-0.5698086,-0.5648892,-0.57475907,-0.5875683,-0.5915286,-0.5855881,-0.5727788,-0.56389904,-0.5609288,-0.55501926,-0.54907876,-0.5471295,-0.55204904,-0.55501926,-0.54808867,-0.53230923,-0.5234294,-0.5244195,-0.53230923,-0.53032905,-0.5195,-0.51062024,-0.5096301,-0.51355946,-0.5125694,-0.5007503,-0.48890024,-0.4820006,-0.49187046,-0.5007503,-0.5056698,-0.50864005,-0.50665987,-0.5007503,-0.49187046,-0.48890024,-0.49088037,-0.5007503,-0.5096301,-0.5096301,-0.50368965,-0.4997602,-0.50368965,-0.50864005,-0.5056698,-0.49877012,-0.49480975,-0.49877012,-0.50174034,-0.4997602,-0.49385065,-0.48989034,-0.49778003,-0.50665987,-0.5056698,-0.49579984,-0.48592997,-0.48592997,-0.49187046,-0.49286056,-0.48989034,-0.48692006,-0.48989034,-0.49679,-0.49679,-0.49088037,-0.4820006,-0.4820006,-0.48890024,-0.49187046,-0.48692006,-0.4810105,-0.47804022,-0.47804022,-0.4770502,-0.47411084,-0.47213066,-0.4800204,-0.48692006,-0.48692006,-0.4790303,-0.47015053,-0.46817034,-0.46916044,-0.46622115,-0.46028066,-0.4573413,-0.46028066,-0.46916044,-0.47213066,-0.47114056,-0.47411084,-0.4790303,-0.48398072,-0.4810105,-0.47015053,-0.45929056,-0.45830047,-0.4612707,-0.46424097,-0.46325088,-0.45830047,-0.45830047,-0.46028066,-0.45929056,-0.45830047,-0.46028066,-0.46622115,-0.47114056,-0.46817034,-0.46028066,-0.4523909,-0.45041072,-0.44942063,-0.44450116,-0.4346313,-0.42872173,-0.42773163,-0.42575145,-0.4168716,-0.40799183,-0.40208226,-0.40700173,-0.4139014,-0.40700173,-0.38630283,-0.35963243,-0.33596325,-0.3142742,-0.29552454,-0.29057407,-0.29747373,-0.32216394,-0.36062253,-0.39614177,-0.42872173,-0.4573413,-0.4800204,-0.48989034,-0.48299068,-0.47213066,-0.46325088,-0.46523106,-0.47411084,-0.47804022,-0.47609103,-0.4790303,-0.4849708,-0.48890024,-0.48592997,-0.4800204,-0.47510093,-0.47411084,-0.47015053,-0.46028066,-0.45635122,-0.4612707,-0.4405408,-0.3320338,-0.07745862,0.3142432,0.71584606,0.9585713,0.9220618,0.5905386,0.089277744,-0.40307236,-0.7464148,-0.90529233,-0.92305195,-0.8707632,-0.8026639,-0.72964525,-0.6438174,-0.55501926,-0.48398072,-0.4523909,-0.46028066,-0.4770502,-0.4770502,-0.46424097,-0.44648135,-0.4385916,-0.4405408,-0.43562138,-0.42476135,-0.4119522,-0.40700173,-0.40997195,-0.40997195,-0.4060117,-0.39812195,-0.3902322,-0.38234246,-0.3764329,-0.37247258,-0.37247258,-0.37445277,-0.3675531,-0.3497935,-0.33596325,-0.3290636,-0.33497316,-0.343853,-0.34091365,-0.32609332,-0.3132841,-0.3073436,-0.3073436,-0.30440432,-0.29651457,-0.2885939,-0.2826844,-0.27776486,-0.2669049,-0.2530747,-0.24320477,-0.24026543,-0.24125552,-0.23531502,-0.22940552,-0.2234959,-0.22250575,-0.22544509,-0.22052568,-0.2185455,-0.22250575,-0.23336583,-0.24125552,-0.24224567,-0.24419487,-0.2530747,-0.27479464,-0.2994539,-0.3142742,-0.32411313,-0.33299297,-0.3478133,-0.36656302,-0.38333255,-0.40208226,-0.42674154,-0.4523909,-0.46817034,-0.46916044,-0.46226078,-0.46028066,-0.47411084,-0.49286056,-0.51062024,-0.5214492,-0.5332993,-0.5461394,-0.5530391,-0.54808867,-0.53725964,-0.5263996,-0.5263996,-0.5293699,-0.5293699,-0.5234294,-0.5195,-0.5195,-0.51652974,-0.51355946,-0.5056698,-0.5007503,-0.5007503,-0.49778003,-0.48592997,-0.47609103,-0.47510093,-0.48299068,-0.49088037,-0.4820006,-0.46226078,-0.44747138,-0.44648135,-0.45437104,-0.45929056,-0.45635122,-0.45140082,-0.453381,-0.45437104,-0.45536113,-0.45140082,-0.44846147,-0.44942063,-0.44942063,-0.44648135,-0.44450116,-0.453381,-0.46523106,-0.47411084,-0.47015053,-0.46028066,-0.453381,-0.45536113,-0.46325088,-0.46523106,-0.46523106,-0.46622115,-0.46916044,-0.4731208,-0.47015053,-0.46028066,-0.453381,-0.45140082,-0.45140082,-0.45041072,-0.45041072,-0.453381,-0.45830047,-0.46028066,-0.45041072,-0.4405408,-0.4376015,-0.44846147,-0.4612707,-0.46325088,-0.46028066,-0.45437104,-0.453381,-0.45437104,-0.44846147,-0.4385916,-0.43364114,-0.4385916,-0.44549125,-0.44450116,-0.43562138,-0.42971176,-0.42773163,-0.42575145,-0.42182207,-0.42278123,-0.4326511,-0.44846147,-0.46325088,-0.46622115,-0.4523909,-0.43562138,-0.42674154,-0.42083198,-0.4198419,-0.42278123,-0.43070185,-0.43958163,-0.44252098,-0.43562138,-0.42971176,-0.42674154,-0.4326511,-0.44252098,-0.44351113,-0.4366114,-0.42971176,-0.42575145,-0.42575145,-0.4188518,-0.4050216,-0.3892421,-0.37937218,-0.3754428,-0.37445277,-0.3754428,-0.37247258,-0.3704924,-0.36557293,-0.3497935,-0.3280735,-0.3083337,-0.29651457,-0.29156417,-0.29156417,-0.3093238,-0.34091365,-0.38432264,-0.42674154,-0.45041072,-0.4573413,-0.4573413,-0.45536113,-0.45041072,-0.4385916,-0.43070185,-0.431661,-0.44747138,-0.4612707,-0.46325088,-0.45929056,-0.45635122,-0.46226078,-0.46817034,-0.46325088,-0.44351113,-0.42182207,-0.4139014,-0.41588157,-0.4060117,-0.33596325,-0.15245736,0.16328645,0.5283798,0.80563414,0.84904313,0.6033478,0.16130626,-0.30341423,-0.63985705,-0.8076144,-0.84904313,-0.825374,-0.7750344,-0.70399594,-0.6151978,-0.53131914,-0.47213066,-0.44648135,-0.4385916,-0.44351113,-0.44846147,-0.45140082,-0.44450116,-0.43070185,-0.4168716,-0.4109621,-0.41294223,-0.41588157,-0.4119522,-0.40307236,-0.39812195,-0.40109217,-0.40307236,-0.39713186,-0.38432264,-0.3754428,-0.37346268,-0.3714825,-0.36557293,-0.35963243,-0.36062253,-0.36656302,-0.36656302,-0.35471296,-0.33794343,-0.3300537,-0.33398306,-0.33299297,-0.3270834,-0.3142742,-0.3073436,-0.31031388,-0.3132841,-0.3073436,-0.2945344,-0.2846645,-0.2807042,-0.2807042,-0.27578473,-0.27182436,-0.26591486,-0.2590152,-0.24815524,-0.23138559,-0.22151572,-0.224486,-0.23729521,-0.2392754,-0.23432493,-0.23138559,-0.2392754,-0.2590152,-0.27677476,-0.2816943,-0.2866447,-0.29846382,-0.32117385,-0.3418728,-0.3497935,-0.3566931,-0.3695023,-0.39419252,-0.42278123,-0.44153088,-0.45437104,-0.46817034,-0.4820006,-0.49480975,-0.49877012,-0.49679,-0.50174034,-0.5145496,-0.52738976,-0.53032905,-0.5332993,-0.53725964,-0.54808867,-0.5560093,-0.5530391,-0.5392089,-0.5254096,-0.5224393,-0.5263996,-0.52738976,-0.5263996,-0.5244195,-0.5195,-0.51652974,-0.51161027,-0.50864005,-0.51062024,-0.5125694,-0.50864005,-0.49579984,-0.4849708,-0.4849708,-0.49385065,-0.4997602,-0.49286056,-0.4800204,-0.47411084,-0.4770502,-0.48592997,-0.48592997,-0.4810105,-0.4790303,-0.48299068,-0.48692006,-0.48398072,-0.4820006,-0.4849708,-0.49385065,-0.50368965,-0.5056698,-0.5007503,-0.5007503,-0.50665987,-0.50864005,-0.5046797,-0.49679,-0.49385065,-0.49679,-0.5027305,-0.50665987,-0.51161027,-0.51652974,-0.5254096,-0.53032905,-0.5244195,-0.51652974,-0.5145496,-0.51751983,-0.51751983,-0.51062024,-0.50174034,-0.49877012,-0.5056698,-0.51355946,-0.5125694,-0.5056698,-0.50174034,-0.5046797,-0.5096301,-0.5096301,-0.50368965,-0.49778003,-0.49579984,-0.49579984,-0.49187046,-0.4849708,-0.48398072,-0.48989034,-0.49088037,-0.48299068,-0.4731208,-0.4671803,-0.47015053,-0.47804022,-0.4800204,-0.4790303,-0.47804022,-0.4820006,-0.48299068,-0.47609103,-0.4671803,-0.46424097,-0.46622115,-0.46916044,-0.46325088,-0.453381,-0.45041072,-0.453381,-0.45437104,-0.44942063,-0.44450116,-0.44252098,-0.44450116,-0.44351113,-0.431661,-0.4168716,-0.4060117,-0.40208226,-0.39812195,-0.3892421,-0.38135242,-0.3764329,-0.36656302,-0.3497935,-0.32609332,-0.31031388,-0.31229407,-0.33497316,-0.3675531,-0.39812195,-0.431661,-0.46622115,-0.49480975,-0.50864005,-0.5046797,-0.49088037,-0.4810105,-0.4770502,-0.4790303,-0.4790303,-0.4810105,-0.4849708,-0.49385065,-0.49778003,-0.49579984,-0.49286056,-0.49385065,-0.49679,-0.49187046,-0.47804022,-0.47015053,-0.46622115,-0.4385916,-0.32411313,-0.0725081,0.29747367,0.661577,0.8727124,0.81646323,0.5026996,0.05180919,-0.38630283,-0.69118667,-0.84214354,-0.8707632,-0.8302935,-0.76417446,-0.68326604,-0.59941834,-0.52738976,-0.48592997,-0.4810105,-0.49088037,-0.49679,-0.48791015,-0.47213066,-0.46424097,-0.46523106,-0.46523106,-0.45437104,-0.4405408,-0.43562138,-0.43364114,-0.4326511,-0.42476135,-0.41294223,-0.4109621,-0.4198419,-0.42575145,-0.42182207,-0.4119522,-0.40307236,-0.40307236,-0.4050216,-0.40208226,-0.3951826,-0.39419252,-0.39419252,-0.3912223,-0.37937218,-0.36458284,-0.35768324,-0.35867327,-0.36062253,-0.35471296,-0.3428629,-0.33398306,-0.3320338,-0.33104372,-0.32510322,-0.3142742,-0.3083337,-0.30635357,-0.30044395,-0.29057407,-0.2797141,-0.27380455,-0.27281445,-0.27380455,-0.26789498,-0.2639346,-0.26984423,-0.2826844,-0.29255426,-0.29552454,-0.29552454,-0.30635357,-0.32510322,-0.3428629,-0.35471296,-0.36557293,-0.38234246,-0.40700173,-0.42872173,-0.44153088,-0.44942063,-0.46325088,-0.4820006,-0.5027305,-0.51355946,-0.51850986,-0.5254096,-0.5352795,-0.5471295,-0.55402917,-0.5609288,-0.5717888,-0.57769835,-0.57571816,-0.5648892,-0.55402917,-0.55402917,-0.56584835,-0.57571816,-0.56881857,-0.55402917,-0.5421791,-0.53626955,-0.53428936,-0.5332993,-0.5293699,-0.5283798,-0.53032905,-0.53032905,-0.5224393,-0.51553965,-0.5145496,-0.51751983,-0.51751983,-0.51062024,-0.5027305,-0.50174034,-0.5027305,-0.49877012,-0.48791015,-0.47804022,-0.4810105,-0.49480975,-0.5056698,-0.5007503,-0.48791015,-0.4770502,-0.48299068,-0.49088037,-0.49187046,-0.49187046,-0.49088037,-0.49480975,-0.5027305,-0.50368965,-0.49778003,-0.49385065,-0.49187046,-0.49286056,-0.48989034,-0.48989034,-0.49385065,-0.50368965,-0.51062024,-0.50864005,-0.50174034,-0.49877012,-0.49877012,-0.5007503,-0.5007503,-0.4997602,-0.5007503,-0.50764996,-0.51355946,-0.51553965,-0.51652974,-0.5145496,-0.50864005,-0.4997602,-0.48592997,-0.4790303,-0.48299068,-0.49286056,-0.49877012,-0.49679,-0.49088037,-0.48890024,-0.49480975,-0.5007503,-0.5007503,-0.4997602,-0.50174034,-0.50368965,-0.5007503,-0.49088037,-0.4810105,-0.4790303,-0.4849708,-0.49088037,-0.48989034,-0.48791015,-0.49286056,-0.49679,-0.49579984,-0.4849708,-0.47804022,-0.4800204,-0.49187046,-0.4997602,-0.49480975,-0.4820006,-0.47609103,-0.4731208,-0.47015053,-0.46424097,-0.45536113,-0.44549125,-0.4385916,-0.43070185,-0.4178617,-0.4119522,-0.41294223,-0.41588157,-0.4109621,-0.39320242,-0.3704924,-0.3478133,-0.3280735,-0.31523335,-0.30341423,-0.30341423,-0.32411313,-0.36260265,-0.40700173,-0.44549125,-0.47411084,-0.48890024,-0.49877012,-0.4997602,-0.49679,-0.49579984,-0.49877012,-0.50368965,-0.5046797,-0.5007503,-0.49579984,-0.49679,-0.4997602,-0.4997602,-0.49286056,-0.48890024,-0.49187046,-0.49286056,-0.48890024,-0.4820006,-0.47804022,-0.4612707,-0.3714825,-0.14849705,0.21854556,0.6250677,0.901332,0.91120195,0.6289971,0.1642766,-0.32018375,-0.68425614,-0.88159215,-0.9388314,-0.90034187,-0.8243839,-0.7336056,-0.63787687,-0.5560093,-0.49877012,-0.47609103,-0.4849708,-0.5007503,-0.5046797,-0.49385065,-0.47804022,-0.4731208,-0.4731208,-0.47015053,-0.4612707,-0.45041072,-0.44648135,-0.44942063,-0.44846147,-0.4405408,-0.4366114,-0.4376015,-0.44450116,-0.44549125,-0.4346313,-0.42377126,-0.42083198,-0.42476135,-0.42575145,-0.41588157,-0.40208226,-0.3951826,-0.39812195,-0.399112,-0.39221233,-0.377423,-0.3675531,-0.36359274,-0.36161262,-0.35471296,-0.343853,-0.33992356,-0.33695334,-0.33299297,-0.32216394,-0.3093238,-0.30341423,-0.30341423,-0.30143404,-0.2935443,-0.2846645,-0.2807042,-0.2816943,-0.28367442,-0.2797141,-0.27677476,-0.28367442,-0.2945344,-0.3053944,-0.3093238,-0.31229407,-0.32411313,-0.3448431,-0.3675531,-0.38333255,-0.39713186,-0.40997195,-0.42476135,-0.4385916,-0.44549125,-0.45635122,-0.47510093,-0.49579984,-0.51652974,-0.5293699,-0.5401989,-0.55402917,-0.56584835,-0.57079875,-0.5668384,-0.5609288,-0.5668384,-0.58066857,-0.5875683,-0.5816587,-0.5727788,-0.57079875,-0.57475907,-0.58066857,-0.57571816,-0.56584835,-0.55894864,-0.55894864,-0.55894864,-0.55204904,-0.54808867,-0.55006886,-0.55204904,-0.55204904,-0.5411891,-0.5254096,-0.51652974,-0.51355946,-0.5145496,-0.51062024,-0.50764996,-0.50864005,-0.5096301,-0.50665987,-0.5007503,-0.49385065,-0.49778003,-0.5046797,-0.5046797,-0.49679,-0.48592997,-0.48299068,-0.48592997,-0.49088037,-0.48890024,-0.4849708,-0.48592997,-0.48989034,-0.49286056,-0.49088037,-0.48989034,-0.49778003,-0.50764996,-0.51161027,-0.50764996,-0.4997602,-0.49579984,-0.49286056,-0.48791015,-0.4770502,-0.47213066,-0.4770502,-0.48398072,-0.49286056,-0.49480975,-0.49385065,-0.4997602,-0.5056698,-0.5027305,-0.49286056,-0.48398072,-0.48592997,-0.49385065,-0.4997602,-0.49579984,-0.49088037,-0.48989034,-0.49286056,-0.49480975,-0.48791015,-0.4810105,-0.48299068,-0.48989034,-0.49679,-0.49385065,-0.48592997,-0.4810105,-0.4810105,-0.48398072,-0.48299068,-0.4800204,-0.4820006,-0.48398072,-0.49088037,-0.48989034,-0.48890024,-0.49286056,-0.49385065,-0.49385065,-0.48890024,-0.4820006,-0.48299068,-0.4849708,-0.48398072,-0.47804022,-0.46916044,-0.46622115,-0.46523106,-0.46325088,-0.45140082,-0.4346313,-0.4198419,-0.4109621,-0.40700173,-0.4050216,-0.40208226,-0.4050216,-0.40010208,-0.38825202,-0.36557293,-0.33992356,-0.31919372,-0.31031388,-0.31031388,-0.31721348,-0.34091365,-0.38333255,-0.42872173,-0.46325088,-0.48299068,-0.48791015,-0.49088037,-0.49480975,-0.49385065,-0.48592997,-0.4820006,-0.48890024,-0.5007503,-0.50665987,-0.5027305,-0.49088037,-0.48791015,-0.48592997,-0.4810105,-0.47510093,-0.47015053,-0.47114056,-0.4790303,-0.48398072,-0.4671803,-0.40799183,-0.2590152,0.024179697,0.4109621,0.7750344,0.9516407,0.83029354,0.43661153,-0.06956881,-0.51062024,-0.7839142,-0.89542246,-0.8944323,-0.83917326,-0.7651645,-0.67933667,-0.59644806,-0.5263996,-0.4820006,-0.45929056,-0.45437104,-0.46226078,-0.47015053,-0.46622115,-0.45437104,-0.4405408,-0.431661,-0.42773163,-0.42476135,-0.41588157,-0.40997195,-0.41489148,-0.42278123,-0.42773163,-0.42182207,-0.4060117,-0.39419252,-0.3892421,-0.38630283,-0.38135242,-0.3764329,-0.3764329,-0.3754428,-0.37346268,-0.36656302,-0.35963243,-0.36161262,-0.36656302,-0.36458284,-0.35174274,-0.33695334,-0.3280735,-0.32117385,-0.31820357,-0.31229407,-0.30440432,-0.30143404,-0.29651457,-0.2866447,-0.26984423,-0.2580251,-0.2580251,-0.2669049,-0.27380455,-0.27083427,-0.26294458,-0.25604492,-0.25406474,-0.25406474,-0.2520846,-0.25703502,-0.27083427,-0.2856546,-0.2945344,-0.2994539,-0.3053944,-0.32315403,-0.343853,-0.35867327,-0.36458284,-0.36851227,-0.38432264,-0.4060117,-0.42674154,-0.4405408,-0.45437104,-0.47411084,-0.49877012,-0.51652974,-0.5214492,-0.5234294,-0.52738976,-0.53824973,-0.54808867,-0.55204904,-0.55696845,-0.56389904,-0.57079875,-0.57475907,-0.5648892,-0.5530391,-0.55006886,-0.5510589,-0.5510589,-0.5461394,-0.5401989,-0.5392089,-0.5401989,-0.53626955,-0.5263996,-0.51751983,-0.5145496,-0.51355946,-0.50764996,-0.49877012,-0.49088037,-0.49385065,-0.5027305,-0.50368965,-0.49679,-0.48890024,-0.48692006,-0.49286056,-0.49679,-0.49385065,-0.48692006,-0.48592997,-0.48890024,-0.49088037,-0.48791015,-0.48398072,-0.4849708,-0.49088037,-0.49877012,-0.5027305,-0.5007503,-0.4997602,-0.49480975,-0.48592997,-0.4800204,-0.4820006,-0.49187046,-0.50174034,-0.49877012,-0.48890024,-0.4810105,-0.48890024,-0.5046797,-0.5056698,-0.4997602,-0.49286056,-0.49187046,-0.4997602,-0.50174034,-0.49286056,-0.4849708,-0.4849708,-0.49187046,-0.49286056,-0.48592997,-0.47804022,-0.4800204,-0.48989034,-0.49286056,-0.48890024,-0.48398072,-0.4849708,-0.49088037,-0.48989034,-0.48791015,-0.4800204,-0.4820006,-0.48791015,-0.48592997,-0.4810105,-0.47213066,-0.47213066,-0.4770502,-0.4820006,-0.4810105,-0.47609103,-0.47411084,-0.4731208,-0.47015053,-0.46523106,-0.46226078,-0.46424097,-0.46325088,-0.45536113,-0.44450116,-0.4346313,-0.42872173,-0.42476135,-0.4188518,-0.4119522,-0.41294223,-0.42278123,-0.42872173,-0.42083198,-0.40208226,-0.37937218,-0.35963243,-0.33794343,-0.32117385,-0.31523335,-0.32411313,-0.36062253,-0.40898192,-0.44942063,-0.47804022,-0.49480975,-0.50174034,-0.50368965,-0.49579984,-0.48592997,-0.4820006,-0.48592997,-0.49385065,-0.49579984,-0.48989034,-0.4849708,-0.48692006,-0.49385065,-0.49480975,-0.48791015,-0.4790303,-0.4810105,-0.48299068,-0.4810105,-0.4820006,-0.47213066,-0.4178617,-0.2649247,0.032069445,0.41885185,0.7533145,0.88357234,0.7355548,0.35864234,-0.09917849,-0.49480975,-0.74839497,-0.85990316,-0.86188334,-0.8066243,-0.7336056,-0.6566266,-0.584598,-0.52738976,-0.48989034,-0.4770502,-0.48398072,-0.49187046,-0.48592997,-0.46424097,-0.44846147,-0.44351113,-0.45041072,-0.453381,-0.44351113,-0.42872173,-0.4198419,-0.42377126,-0.42377126,-0.4178617,-0.4109621,-0.40700173,-0.40799183,-0.40997195,-0.40799183,-0.40208226,-0.39812195,-0.39419252,-0.38234246,-0.3704924,-0.36458284,-0.36359274,-0.36458284,-0.35768324,-0.34682322,-0.3418728,-0.3488034,-0.355703,-0.35372287,-0.34091365,-0.32411313,-0.31622344,-0.31721348,-0.31622344,-0.3083337,-0.2994539,-0.2935443,-0.29156417,-0.2866447,-0.27776486,-0.2669049,-0.26591486,-0.26888508,-0.26591486,-0.2619545,-0.2609644,-0.27083427,-0.29057407,-0.3083337,-0.31523335,-0.32216394,-0.33497316,-0.35372287,-0.36656302,-0.37346268,-0.38333255,-0.40307236,-0.42575145,-0.44549125,-0.4573413,-0.46622115,-0.4810105,-0.49778003,-0.50864005,-0.5125694,-0.5204901,-0.53824973,-0.55696845,-0.5648892,-0.55894864,-0.5510589,-0.5560093,-0.56881857,-0.57967854,-0.57967854,-0.5717888,-0.5698086,-0.573769,-0.57571816,-0.5727788,-0.56389904,-0.5579586,-0.55696845,-0.55402917,-0.55006886,-0.5441593,-0.54316914,-0.54316914,-0.53824973,-0.53230923,-0.52738976,-0.52738976,-0.5293699,-0.5254096,-0.51652974,-0.51161027,-0.5145496,-0.5204901,-0.5145496,-0.50368965,-0.49679,-0.49679,-0.50665987,-0.51355946,-0.5125694,-0.51062024,-0.51062024,-0.51553965,-0.51161027,-0.5056698,-0.50368965,-0.50764996,-0.51161027,-0.51062024,-0.50368965,-0.49877012,-0.50368965,-0.5125694,-0.51355946,-0.50665987,-0.49877012,-0.49480975,-0.49480975,-0.49286056,-0.48890024,-0.48989034,-0.49385065,-0.49877012,-0.49385065,-0.49187046,-0.49385065,-0.5046797,-0.51355946,-0.51161027,-0.5007503,-0.49187046,-0.49579984,-0.5046797,-0.50864005,-0.50764996,-0.5046797,-0.5046797,-0.5046797,-0.49877012,-0.48692006,-0.4800204,-0.4820006,-0.48692006,-0.48791015,-0.4820006,-0.4770502,-0.4790303,-0.4849708,-0.48989034,-0.48890024,-0.48791015,-0.48890024,-0.49088037,-0.49088037,-0.48692006,-0.48398072,-0.48592997,-0.48692006,-0.4810105,-0.47213066,-0.46622115,-0.47015053,-0.4770502,-0.4790303,-0.47411084,-0.47015053,-0.46916044,-0.46817034,-0.46325088,-0.44648135,-0.43070185,-0.42083198,-0.41588157,-0.4119522,-0.40898192,-0.41294223,-0.42575145,-0.4366114,-0.43364114,-0.41489148,-0.38630283,-0.36062253,-0.3418728,-0.33104372,-0.3290636,-0.343853,-0.38036227,-0.42476135,-0.46325088,-0.48890024,-0.5046797,-0.5145496,-0.5195,-0.51652974,-0.50864005,-0.5056698,-0.51062024,-0.51751983,-0.5204901,-0.5195,-0.5195,-0.5244195,-0.5283798,-0.5224393,-0.51161027,-0.5027305,-0.50368965,-0.5056698,-0.50864005,-0.50368965,-0.4790303,-0.39320242,-0.19190603,0.14258742,0.53131914,0.83029354,0.8964125,0.6822759,0.27578473,-0.18698657,-0.5609288,-0.79675436,-0.8934422,-0.88159215,-0.81451404,-0.72274566,-0.63787687,-0.5717888,-0.5293699,-0.51062024,-0.51062024,-0.5214492,-0.52738976,-0.5195,-0.5056698,-0.49187046,-0.48692006,-0.48791015,-0.4800204,-0.46817034,-0.45635122,-0.45437104,-0.453381,-0.44846147,-0.44153088,-0.4385916,-0.44153088,-0.44942063,-0.45041072,-0.44153088,-0.4326511,-0.431661,-0.43364114,-0.4346313,-0.43070185,-0.42674154,-0.42278123,-0.4178617,-0.40898192,-0.39713186,-0.39221233,-0.39614177,-0.40010208,-0.3951826,-0.38531268,-0.37346268,-0.36458284,-0.36062253,-0.3497935,-0.33695334,-0.3280735,-0.3280735,-0.3290636,-0.32018375,-0.31031388,-0.30440432,-0.30635357,-0.31721348,-0.32510322,-0.32609332,-0.3290636,-0.33992356,-0.35471296,-0.36656302,-0.3754428,-0.38234246,-0.3951826,-0.40997195,-0.42377126,-0.431661,-0.44153088,-0.45635122,-0.4731208,-0.48791015,-0.49877012,-0.50764996,-0.5224393,-0.53428936,-0.5411891,-0.5461394,-0.5560093,-0.5698086,-0.5855881,-0.5875683,-0.58066857,-0.57769835,-0.584598,-0.5944679,-0.5934778,-0.58657813,-0.57769835,-0.57571816,-0.5816587,-0.5816587,-0.5727788,-0.5648892,-0.5648892,-0.5678285,-0.5698086,-0.56584835,-0.56389904,-0.5648892,-0.5609288,-0.5510589,-0.53824973,-0.5332993,-0.54316914,-0.5560093,-0.5599387,-0.55402917,-0.5441593,-0.5411891,-0.5401989,-0.53230923,-0.5254096,-0.5263996,-0.5332993,-0.5421791,-0.5411891,-0.53230923,-0.5254096,-0.5254096,-0.53032905,-0.5283798,-0.5244195,-0.5244195,-0.53032905,-0.53725964,-0.5332993,-0.5224393,-0.51355946,-0.51751983,-0.52738976,-0.5352795,-0.53626955,-0.53032905,-0.5283798,-0.5263996,-0.5244195,-0.5224393,-0.5214492,-0.5244195,-0.5254096,-0.5195,-0.5125694,-0.51161027,-0.51751983,-0.5204901,-0.5145496,-0.50764996,-0.50665987,-0.5096301,-0.51652974,-0.5145496,-0.5096301,-0.51062024,-0.5195,-0.5214492,-0.5096301,-0.49088037,-0.4820006,-0.48791015,-0.5056698,-0.51553965,-0.51652974,-0.5096301,-0.50665987,-0.50764996,-0.5046797,-0.5027305,-0.5046797,-0.5096301,-0.5125694,-0.50368965,-0.49187046,-0.48692006,-0.49385065,-0.5046797,-0.5046797,-0.49778003,-0.48989034,-0.49088037,-0.49579984,-0.49877012,-0.49480975,-0.48989034,-0.49187046,-0.49187046,-0.48890024,-0.48299068,-0.4790303,-0.48299068,-0.48692006,-0.4849708,-0.4770502,-0.46817034,-0.46424097,-0.4612707,-0.44942063,-0.4326511,-0.42083198,-0.41588157,-0.4168716,-0.41489148,-0.40997195,-0.40307236,-0.40208226,-0.40010208,-0.38726193,-0.36359274,-0.34091365,-0.32510322,-0.32216394,-0.32411313,-0.33794343,-0.3695023,-0.4168716,-0.46916044,-0.5046797,-0.51553965,-0.51161027,-0.5027305,-0.49480975,-0.48989034,-0.48989034,-0.49385065,-0.50368965,-0.50864005,-0.50174034,-0.49088037,-0.48791015,-0.49385065,-0.5007503,-0.50174034,-0.49480975,-0.48791015,-0.48592997,-0.49187046,-0.48592997,-0.44252098,-0.31721348,-0.06461847,0.31031382,0.69709635,0.9328909,0.8894819,0.5530392,0.057718873,-0.41489148,-0.7355858,-0.8875327,-0.92008173,-0.88357234,-0.81154376,-0.7148559,-0.6201173,-0.54907876,-0.51850986,-0.51161027,-0.51553965,-0.51751983,-0.51652974,-0.51161027,-0.4997602,-0.4820006,-0.46523106,-0.4573413,-0.45536113,-0.45140082,-0.44549125,-0.44351113,-0.44942063,-0.45437104,-0.45140082,-0.44351113,-0.43364114,-0.42773163,-0.42674154,-0.42476135,-0.42083198,-0.4168716,-0.41489148,-0.40997195,-0.399112,-0.3892421,-0.3892421,-0.39614177,-0.4050216,-0.40010208,-0.3892421,-0.3764329,-0.3714825,-0.36851227,-0.35768324,-0.3428629,-0.33299297,-0.3280735,-0.3300537,-0.32609332,-0.31523335,-0.3093238,-0.3093238,-0.31031388,-0.3053944,-0.29747373,-0.29255426,-0.29552454,-0.30341423,-0.3083337,-0.3093238,-0.31622344,-0.3320338,-0.3497935,-0.36359274,-0.37247258,-0.38234246,-0.39614177,-0.41294223,-0.42377126,-0.43070185,-0.44153088,-0.4612707,-0.4820006,-0.49778003,-0.5096301,-0.5214492,-0.53428936,-0.5461394,-0.54907876,-0.54808867,-0.5510589,-0.55501926,-0.56389904,-0.56881857,-0.5678285,-0.573769,-0.58363885,-0.5885583,-0.584598,-0.57670826,-0.57475907,-0.57475907,-0.5717888,-0.55894864,-0.5441593,-0.5352795,-0.5411891,-0.54907876,-0.5471295,-0.53824973,-0.5283798,-0.5244195,-0.5224393,-0.51553965,-0.50665987,-0.50368965,-0.5056698,-0.50764996,-0.50174034,-0.49480975,-0.49286056,-0.49385065,-0.4997602,-0.49679,-0.49187046,-0.49187046,-0.49778003,-0.50174034,-0.49679,-0.48890024,-0.48791015,-0.49286056,-0.4997602,-0.50174034,-0.4997602,-0.49778003,-0.5007503,-0.5027305,-0.5007503,-0.5007503,-0.5046797,-0.5125694,-0.5145496,-0.50864005,-0.5007503,-0.50174034,-0.50864005,-0.51355946,-0.51062024,-0.5056698,-0.50665987,-0.51355946,-0.5214492,-0.5195,-0.51161027,-0.50764996,-0.50864005,-0.50764996,-0.5007503,-0.49286056,-0.48890024,-0.49286056,-0.50368965,-0.50764996,-0.50665987,-0.5027305,-0.49877012,-0.49385065,-0.4849708,-0.48398072,-0.48890024,-0.49778003,-0.5056698,-0.5007503,-0.49480975,-0.49579984,-0.49579984,-0.49877012,-0.49187046,-0.4800204,-0.47804022,-0.48398072,-0.49187046,-0.48890024,-0.48299068,-0.47804022,-0.4800204,-0.4849708,-0.48692006,-0.4810105,-0.47804022,-0.4800204,-0.48398072,-0.48299068,-0.48398072,-0.4810105,-0.4790303,-0.47609103,-0.46622115,-0.45929056,-0.45635122,-0.45635122,-0.45140082,-0.43562138,-0.4188518,-0.40898192,-0.40898192,-0.4109621,-0.40799183,-0.399112,-0.38630283,-0.36656302,-0.34583312,-0.32018375,-0.3053944,-0.31721348,-0.35273278,-0.40010208,-0.4385916,-0.47015053,-0.49187046,-0.50368965,-0.51355946,-0.51161027,-0.50764996,-0.5056698,-0.50864005,-0.51161027,-0.51062024,-0.50864005,-0.51062024,-0.51751983,-0.5214492,-0.51751983,-0.51062024,-0.50864005,-0.5125694,-0.5145496,-0.50665987,-0.4997602,-0.48890024,-0.4366114,-0.2856546,0.01628995,0.42377138,0.78688455,0.94573104,0.80068386,0.39122224,-0.12482786,-0.57571816,-0.8520134,-0.9536208,-0.93193173,-0.85891306,-0.7829242,-0.70399594,-0.6240776,-0.55204904,-0.50174034,-0.4849708,-0.49187046,-0.4997602,-0.49187046,-0.4731208,-0.46028066,-0.4573413,-0.46226078,-0.46226078,-0.45437104,-0.44747138,-0.44450116,-0.44450116,-0.4405408,-0.43562138,-0.431661,-0.431661,-0.43070185,-0.42182207,-0.41489148,-0.4109621,-0.4119522,-0.4139014,-0.4109621,-0.4050216,-0.40010208,-0.39614177,-0.3912223,-0.38333255,-0.37838215,-0.38036227,-0.38432264,-0.38333255,-0.3704924,-0.35273278,-0.33992356,-0.33299297,-0.3280735,-0.31820357,-0.30635357,-0.29747373,-0.29747373,-0.2994539,-0.2935443,-0.2826844,-0.27677476,-0.27875495,-0.2846645,-0.2866447,-0.2846645,-0.2826844,-0.2846645,-0.2935443,-0.29846382,-0.3053944,-0.31820357,-0.33695334,-0.3566931,-0.3714825,-0.38630283,-0.40109217,-0.4198419,-0.43958163,-0.4523909,-0.46523106,-0.4800204,-0.49480975,-0.50665987,-0.5096301,-0.51355946,-0.5214492,-0.53626955,-0.5510589,-0.55696845,-0.562909,-0.5698086,-0.57769835,-0.58363885,-0.57769835,-0.5668384,-0.5668384,-0.573769,-0.5816587,-0.57868844,-0.5678285,-0.5579586,-0.55402917,-0.55204904,-0.5451494,-0.53824973,-0.53824973,-0.5421791,-0.54316914,-0.53230923,-0.51850986,-0.51062024,-0.51553965,-0.5224393,-0.5214492,-0.5195,-0.5145496,-0.51355946,-0.5046797,-0.49286056,-0.48398072,-0.48398072,-0.49385065,-0.4997602,-0.49679,-0.48890024,-0.48890024,-0.49579984,-0.5007503,-0.49579984,-0.48791015,-0.48989034,-0.4997602,-0.5096301,-0.50864005,-0.49877012,-0.49286056,-0.49679,-0.5027305,-0.5007503,-0.49286056,-0.48791015,-0.49385065,-0.5007503,-0.5027305,-0.4997602,-0.5007503,-0.5027305,-0.50665987,-0.50665987,-0.50174034,-0.5007503,-0.50368965,-0.5056698,-0.49778003,-0.49286056,-0.49480975,-0.5027305,-0.5096301,-0.50368965,-0.49187046,-0.48692006,-0.48890024,-0.49385065,-0.49480975,-0.49187046,-0.49187046,-0.49088037,-0.48989034,-0.4820006,-0.4770502,-0.4820006,-0.49088037,-0.49778003,-0.49579984,-0.49187046,-0.49286056,-0.49286056,-0.4849708,-0.46817034,-0.45635122,-0.45536113,-0.46622115,-0.4770502,-0.47411084,-0.46424097,-0.45830047,-0.4573413,-0.45635122,-0.44846147,-0.4376015,-0.42773163,-0.42182207,-0.4168716,-0.4119522,-0.40997195,-0.41489148,-0.4178617,-0.4109621,-0.38726193,-0.355703,-0.32609332,-0.3132841,-0.31031388,-0.31130397,-0.32510322,-0.35768324,-0.40406245,-0.453381,-0.48692006,-0.49778003,-0.49385065,-0.48989034,-0.48791015,-0.48692006,-0.48299068,-0.48398072,-0.49385065,-0.5046797,-0.5145496,-0.51652974,-0.5145496,-0.5096301,-0.50174034,-0.49385065,-0.48791015,-0.48299068,-0.4790303,-0.47609103,-0.46916044,-0.4405408,-0.3507526,-0.13763714,0.21164596,0.60532784,0.87862206,0.88753283,0.5964482,0.12284768,-0.35273278,-0.69118667,-0.85990316,-0.90232205,-0.86977303,-0.8046441,-0.7257159,-0.64084715,-0.56389904,-0.5096301,-0.4790303,-0.47114056,-0.47609103,-0.4790303,-0.47213066,-0.453381,-0.43958163,-0.4366114,-0.43958163,-0.4376015,-0.42773163,-0.41294223,-0.40799183,-0.4119522,-0.4139014,-0.40700173,-0.39614177,-0.39419252,-0.3951826,-0.39614177,-0.3902322,-0.37838215,-0.3714825,-0.37346268,-0.37838215,-0.37445277,-0.3675531,-0.36062253,-0.35471296,-0.3497935,-0.34583312,-0.33893347,-0.33299297,-0.3300537,-0.32018375,-0.31031388,-0.30242413,-0.30143404,-0.30242413,-0.29552454,-0.27776486,-0.2639346,-0.26000524,-0.2639346,-0.26591486,-0.25406474,-0.23828524,-0.22742534,-0.22841537,-0.23237574,-0.23237574,-0.23432493,-0.24320477,-0.25604492,-0.26984423,-0.2797141,-0.2846645,-0.29747373,-0.31622344,-0.33497316,-0.3497935,-0.36458284,-0.38531268,-0.41294223,-0.43562138,-0.44846147,-0.4573413,-0.4671803,-0.4790303,-0.48791015,-0.49480975,-0.5007503,-0.5195,-0.53824973,-0.5510589,-0.54808867,-0.5401989,-0.5352795,-0.5421791,-0.55204904,-0.55696845,-0.55894864,-0.5609288,-0.5619189,-0.55696845,-0.5411891,-0.5254096,-0.51850986,-0.51751983,-0.5195,-0.5145496,-0.50764996,-0.5046797,-0.50665987,-0.50665987,-0.5027305,-0.49778003,-0.49385065,-0.49286056,-0.48791015,-0.47411084,-0.46325088,-0.46325088,-0.4731208,-0.4820006,-0.48299068,-0.47804022,-0.47510093,-0.47609103,-0.47609103,-0.47213066,-0.47114056,-0.47411084,-0.47804022,-0.4770502,-0.46622115,-0.4573413,-0.45830047,-0.47114056,-0.4790303,-0.4790303,-0.47609103,-0.47804022,-0.48592997,-0.49088037,-0.4849708,-0.47609103,-0.47411084,-0.4810105,-0.48890024,-0.48989034,-0.48791015,-0.48989034,-0.49286056,-0.49385065,-0.48398072,-0.46916044,-0.46424097,-0.4671803,-0.4770502,-0.4810105,-0.4800204,-0.4820006,-0.4800204,-0.47411084,-0.4612707,-0.4523909,-0.4523909,-0.46226078,-0.47015053,-0.46916044,-0.46325088,-0.4573413,-0.45635122,-0.45830047,-0.45635122,-0.45536113,-0.46226078,-0.47114056,-0.47510093,-0.47114056,-0.4612707,-0.45635122,-0.45437104,-0.44846147,-0.43562138,-0.42377126,-0.4178617,-0.41489148,-0.4119522,-0.4060117,-0.39614177,-0.39419252,-0.39419252,-0.38726193,-0.3704924,-0.3478133,-0.32510322,-0.31031388,-0.30044395,-0.2935443,-0.30242413,-0.3320338,-0.37445277,-0.4168716,-0.45140082,-0.47015053,-0.4800204,-0.48592997,-0.4849708,-0.47510093,-0.46817034,-0.46817034,-0.4731208,-0.4790303,-0.4770502,-0.47114056,-0.4731208,-0.47213066,-0.4770502,-0.47804022,-0.4820006,-0.48791015,-0.48791015,-0.47804022,-0.46622115,-0.45041072,-0.4060117,-0.2669049,0.008369327,0.3852818,0.7286551,0.88357234,0.7562847,0.38924217,-0.0725081,-0.4820006,-0.74938506,-0.8677929,-0.87469256,-0.8155041,-0.73063534,-0.64084715,-0.562909,-0.50665987,-0.47510093,-0.47114056,-0.48398072,-0.49286056,-0.49088037,-0.47411084,-0.45536113,-0.44549125,-0.44450116,-0.44252098,-0.4376015,-0.43070185,-0.42773163,-0.42773163,-0.42674154,-0.4198419,-0.41489148,-0.4178617,-0.42278123,-0.42278123,-0.41294223,-0.40406245,-0.40010208,-0.40109217,-0.399112,-0.38726193,-0.37346268,-0.3704924,-0.3764329,-0.37937218,-0.37445277,-0.36161262,-0.35174274,-0.3448431,-0.33992356,-0.33695334,-0.33299297,-0.33299297,-0.3320338,-0.32411313,-0.3093238,-0.2935443,-0.28958404,-0.29255426,-0.29156417,-0.2846645,-0.27776486,-0.27578473,-0.27677476,-0.27875495,-0.27479464,-0.27083427,-0.27875495,-0.29255426,-0.30341423,-0.30635357,-0.3073436,-0.31820357,-0.33596325,-0.35768324,-0.37445277,-0.38726193,-0.40700173,-0.42575145,-0.4366114,-0.44351113,-0.44846147,-0.4612707,-0.4810105,-0.49778003,-0.50665987,-0.5145496,-0.52738976,-0.5401989,-0.5471295,-0.5421791,-0.53626955,-0.5401989,-0.55204904,-0.5599387,-0.55894864,-0.55696845,-0.55402917,-0.5530391,-0.54808867,-0.53626955,-0.5254096,-0.5234294,-0.5293699,-0.53230923,-0.53032905,-0.5263996,-0.5263996,-0.52738976,-0.5254096,-0.5195,-0.51062024,-0.50864005,-0.50665987,-0.5056698,-0.4997602,-0.49877012,-0.5027305,-0.50368965,-0.49579984,-0.4800204,-0.4671803,-0.46622115,-0.47411084,-0.4820006,-0.4849708,-0.4810105,-0.48592997,-0.49187046,-0.49088037,-0.48592997,-0.4820006,-0.48692006,-0.5007503,-0.5125694,-0.51062024,-0.50174034,-0.49480975,-0.49088037,-0.48890024,-0.48592997,-0.48299068,-0.48890024,-0.49579984,-0.49679,-0.48890024,-0.4790303,-0.47804022,-0.4849708,-0.49088037,