-0.86250097,-0.8564371,-0.8483417,-0.84529436,-0.84631014,-0.8442786,-0.8331666,-0.82103884,-0.82002306,-0.82608694,-0.8321508,-0.8271027,-0.81799155,-0.81395924,-0.8169758,-0.8230704,-0.8220546,-0.8190073,-0.82103884,-0.8271027,-0.8291343,-0.8250712,-0.81799155,-0.81799155,-0.8250712,-0.83113503,-0.8271027,-0.8190073,-0.81599075,-0.8190073,-0.8230704,-0.8190073,-0.81395924,-0.81294346,-0.8169758,-0.8190073,-0.8119277,-0.80383223,-0.80284727,-0.80789536,-0.81294346,-0.80789536,-0.7997999,-0.79878414,-0.8018315,-0.80383223,-0.79776835,-0.7866564,-0.7795768,-0.77554446,-0.7684648,-0.7573221,-0.7462101,-0.74116194,-0.7381147,-0.72903425,-0.70373225,-0.67544436,-0.6582378,-0.65115815,-0.65318966,-0.6602694,-0.6713813,-0.693636,-0.7168757,-0.72903425,-0.7249712,-0.71589077,-0.7209388,-0.74417853,-0.77652943,-0.80383223,-0.8220546,-0.83621395,-0.84631014,-0.8483417,-0.8392305,-0.8281185,-0.8250712,-0.83011925,-0.83621395,-0.8331666,-0.8271027,-0.82405543,-0.82608694,-0.8341824,-0.852374,-0.87866104,-0.89989996,-0.8604694,-0.6875721,-0.3640015,0.06471717,0.4843248,0.7522739,0.7927203,0.6198231,0.28110814,-0.12335515,-0.4994998,-0.7836091,-0.9403463,-0.9787611,-0.94742596,-0.89586765,-0.8574221,-0.84126204,-0.84126204,-0.85135823,-0.86351675,-0.8695806,-0.86250097,-0.8493575,-0.84227777,-0.84329355,-0.8442786,-0.8371989,-0.82608694,-0.82103884,-0.8220546,-0.8230704,-0.81599075,-0.804848,-0.79776835,-0.79776835,-0.79776835,-0.7897037,-0.77652943,-0.7684648,-0.76643324,-0.7644017,-0.7532897,-0.7381147,-0.72903425,-0.7249712,-0.7219546,-0.71182764,-0.69665253,-0.68350905,-0.6774452,-0.6693498,-0.65318966,-0.6339823,-0.6188072,-0.60871106,-0.5975683,-0.57734513,-0.5530896,-0.5318507,-0.51565987,-0.4994998,-0.47521353,-0.4499423,-0.43276644,-0.4226395,-0.41555983,-0.40140057,-0.38825703,-0.38625628,-0.39939976,-0.4226395,-0.44590998,-0.47521353,-0.5166757,-0.57026553,-0.6269027,-0.6723971,-0.7097961,-0.7462101,-0.78262407,-0.81294346,-0.8321508,-0.84227777,-0.8544055,-0.86754906,-0.87764525,-0.87764525,-0.87361294,-0.8746287,-0.8817084,-0.8867564,-0.8817084,-0.8715814,-0.8665333,-0.8705656,-0.8756445,-0.87259716,-0.8645017,-0.8594536,-0.8614852,-0.8665333,-0.8645017,-0.8594536,-0.8584379,-0.8614852,-0.86351675,-0.8574221,-0.8483417,-0.84529436,-0.8493575,-0.8554213,-0.85034245,-0.84024626,-0.8341824,-0.8341824,-0.8371989,-0.8331666,-0.8271027,-0.82608694,-0.83011925,-0.8341824,-0.8281185,-0.81799155,-0.8119277,-0.814975,-0.82002306,-0.8169758,-0.8089111,-0.80383223,-0.804848,-0.8068796,-0.8018315,-0.79373604,-0.7897037,-0.79272026,-0.79776835,-0.7947518,-0.78767216,-0.7856406,-0.7897037,-0.7957676,-0.79373604,-0.78868794,-0.78868794,-0.79170454,-0.7947518,-0.7897037,-0.78160834,-0.7795768,-0.7856406,-0.79170454,-0.7897037,-0.78262407,-0.778561,-0.78059256,-0.7856406,-0.78262407,-0.77652943,-0.77554446,-0.78059256,-0.7856406,-0.7836091,-0.7775452,-0.77554446,-0.7795768,-0.7836091,-0.7795768,-0.7694806,-0.7624009,-0.75833786,-0.7543055,-0.73913044,-0.7229396,-0.714875,-0.7138592,-0.71182764,-0.6976683,-0.6723971,-0.64915735,-0.6339823,-0.6269027,-0.62185454,-0.6269027,-0.6440785,-0.6723971,-0.6946518,-0.6986841,-0.6885879,-0.67947674,-0.68655634,-0.70779526,-0.73408234,-0.76036936,-0.7866564,-0.80789536,-0.82103884,-0.82608694,-0.83621395,-0.8554213,-0.8806926,-0.8705656,-0.82608694,-0.7644017,-0.71789145,-0.7097961,-0.7320508,-0.75833786,-0.78868794,-0.8271027,-0.8564371,-0.8250712,-0.65420544,-0.3326664,0.09503651,0.5308349,0.83215094,0.9150752,0.77049625,0.43378222,0.0070950985,-0.3973682,-0.70576376,-0.8837399,-0.93831474,-0.91507506,-0.8614852,-0.814975,-0.7957676,-0.8018315,-0.8190073,-0.83011925,-0.82608694,-0.81294346,-0.80383223,-0.80284727,-0.80383223,-0.79878414,-0.78868794,-0.78160834,-0.78059256,-0.78160834,-0.7735129,-0.7624009,-0.75532126,-0.75532126,-0.75633705,-0.74925745,-0.7350981,-0.7239554,-0.7209388,-0.7219546,-0.714875,-0.70373225,-0.6946518,-0.6905887,-0.6885879,-0.67846096,-0.6653174,-0.65420544,-0.64915735,-0.6440785,-0.6289342,-0.60969603,-0.593536,-0.5854405,-0.57734513,-0.56016934,-0.5368988,-0.51467484,-0.49848408,-0.4833089,-0.46108502,-0.43679875,-0.41657555,-0.40647942,-0.39939976,-0.38524044,-0.3680339,-0.3569219,-0.35793763,-0.36904967,-0.38117737,-0.39939976,-0.42870337,-0.47422856,-0.5257869,-0.5733128,-0.61375916,-0.6552212,-0.6986841,-0.73709893,-0.7624009,-0.7775452,-0.79068875,-0.80992687,-0.8271027,-0.8341824,-0.8331666,-0.83113503,-0.8341824,-0.8392305,-0.8382147,-0.83113503,-0.82608694,-0.8281185,-0.83113503,-0.82608694,-0.8169758,-0.80992687,-0.8109119,-0.81294346,-0.8089111,-0.8008157,-0.79776835,-0.8018315,-0.8068796,-0.80383223,-0.79373604,-0.78868794,-0.79170454,-0.7967526,-0.7947518,-0.78767216,-0.78262407,-0.7856406,-0.7897037,-0.7856406,-0.77652943,-0.767449,-0.7684648,-0.77148134,-0.77046555,-0.76643324,-0.7624009,-0.7644017,-0.76643324,-0.7624009,-0.75532126,-0.75125813,-0.7532897,-0.75833786,-0.7573221,-0.75125813,-0.74824166,-0.7502424,-0.7522739,-0.74824166,-0.7401462,-0.7381147,-0.74316275,-0.74925745,-0.7472259,-0.7381147,-0.73306656,-0.7361139,-0.7421777,-0.7401462,-0.731035,-0.7249712,-0.72801846,-0.73408234,-0.73306656,-0.7249712,-0.71890724,-0.7209388,-0.7259869,-0.7270027,-0.719923,-0.71589077,-0.719923,-0.7270027,-0.7270027,-0.7219546,-0.7168757,-0.719923,-0.7249712,-0.7239554,-0.71789145,-0.7138592,-0.71789145,-0.7239554,-0.7219546,-0.71182764,-0.70071566,-0.6946518,-0.68957293,-0.67947674,-0.667349,-0.65722203,-0.65420544,-0.64915735,-0.6289342,-0.59858406,-0.57026553,-0.557122,-0.5631858,-0.5793767,-0.6016314,-0.6258869,-0.64712584,-0.6592536,-0.65420544,-0.6450943,-0.64915735,-0.6734128,-0.70779526,-0.7350981,-0.74824166,-0.75125813,-0.7543055,-0.75532126,-0.7502424,-0.7421777,-0.7350981,-0.73709893,-0.74116194,-0.73913044,-0.7320508,-0.7270027,-0.72903425,-0.7381147,-0.7593536,-0.78868794,-0.8058638,-0.7694806,-0.60871106,-0.298284,0.11427474,0.5217545,0.7755445,0.80284727,0.6258869,0.29425168,-0.087956905,-0.44590998,-0.7239554,-0.8837399,-0.9251712,-0.8877722,-0.8250712,-0.77652943,-0.7532897,-0.75125813,-0.7593536,-0.7684648,-0.7735129,-0.767449,-0.75532126,-0.74417853,-0.7421777,-0.74417853,-0.7381147,-0.7300192,-0.7219546,-0.7229396,-0.7249712,-0.719923,-0.70881104,-0.6976683,-0.693636,-0.693636,-0.6875721,-0.67544436,-0.6663332,-0.66430163,-0.66328585,-0.65420544,-0.6390304,-0.62385535,-0.6167757,-0.61477494,-0.6066795,-0.593536,-0.5803925,-0.572297,-0.5682647,-0.5551212,-0.535883,-0.5166757,-0.5025163,-0.48937285,-0.46816468,-0.44086188,-0.41355908,-0.3973682,-0.38320893,-0.36603308,-0.34377837,-0.3255868,-0.31647557,-0.31142747,-0.30130053,-0.28917277,-0.2820931,-0.29120427,-0.31345898,-0.33974606,-0.37108117,-0.41254324,-0.46914965,-0.5308349,-0.5834091,-0.62487113,-0.6592536,-0.69665253,-0.7320508,-0.7543055,-0.767449,-0.7775452,-0.79170454,-0.804848,-0.8089111,-0.804848,-0.79878414,-0.8008157,-0.8058638,-0.80383223,-0.7957676,-0.79068875,-0.79373604,-0.7997999,-0.8018315,-0.79776835,-0.79373604,-0.7967526,-0.80284727,-0.80284727,-0.7967526,-0.79170454,-0.7947518,-0.8008157,-0.7997999,-0.79068875,-0.78160834,-0.78160834,-0.7866564,-0.7856406,-0.778561,-0.77148134,-0.77046555,-0.7724971,-0.7684648,-0.75833786,-0.7472259,-0.7472259,-0.75125813,-0.7502424,-0.74316275,-0.7350981,-0.7361139,-0.7421777,-0.7381147,-0.72903425,-0.7219546,-0.7249712,-0.73709893,-0.74316275,-0.7401462,-0.73408234,-0.73408234,-0.73913044,-0.73913044,-0.73408234,-0.72903425,-0.73408234,-0.7421777,-0.74316275,-0.73709893,-0.731035,-0.73306656,-0.7401462,-0.7421777,-0.73709893,-0.731035,-0.73408234,-0.7401462,-0.74116194,-0.7361139,-0.7300192,-0.7320508,-0.7401462,-0.74116194,-0.73306656,-0.7229396,-0.7168757,-0.714875,-0.70881104,-0.6976683,-0.6845248,-0.6774452,-0.6693498,-0.65115815,-0.62487113,-0.6016314,-0.59252024,-0.59959984,-0.61477494,-0.63093495,-0.64915735,-0.667349,-0.67544436,-0.6713813,-0.66328585,-0.6663332,-0.6926203,-0.731035,-0.76036936,-0.7735129,-0.7745287,-0.77554446,-0.778561,-0.7775452,-0.77148134,-0.76643324,-0.7684648,-0.7745287,-0.77554446,-0.7694806,-0.7624009,-0.7633859,-0.7694806,-0.7866564,-0.8119277,-0.83113503,-0.80992687,-0.67947674,-0.40546364,-0.02325505,0.3720969,0.6339823,0.68655634,0.5369296,0.23358214,-0.1273874,-0.47016543,-0.7421777,-0.9029473,-0.95247406,-0.92012316,-0.8584379,-0.80383223,-0.7724971,-0.7644017,-0.7694806,-0.78160834,-0.79068875,-0.78868794,-0.7775452,-0.76643324,-0.7644017,-0.7684648,-0.767449,-0.7593536,-0.74925745,-0.7451943,-0.7462101,-0.74316275,-0.73408234,-0.7239554,-0.7209388,-0.719923,-0.7138592,-0.6986841,-0.6875721,-0.68554056,-0.6885879,-0.6885879,-0.6774452,-0.66328585,-0.6552212,-0.65115815,-0.6440785,-0.6299192,-0.6157599,-0.60871106,-0.60464793,-0.59455174,-0.57632935,-0.5561062,-0.5429627,-0.53388226,-0.51972294,-0.49645245,-0.4711812,-0.4519738,-0.43679875,-0.4175914,-0.39232016,-0.3700654,-0.35793763,-0.3528896,-0.3478107,-0.33873028,-0.33368224,-0.3427626,-0.36603308,-0.3953367,-0.4277184,-0.47016543,-0.5237553,-0.5854405,-0.6420777,-0.68554056,-0.71890724,-0.7543055,-0.7866564,-0.80992687,-0.8220546,-0.8291343,-0.8392305,-0.85135823,-0.8564371,-0.85338974,-0.8493575,-0.852374,-0.8594536,-0.86250097,-0.8594536,-0.8544055,-0.8554213,-0.8574221,-0.8544055,-0.8442786,-0.83621395,-0.8382147,-0.84529436,-0.8483417,-0.8442786,-0.8371989,-0.8392305,-0.84329355,-0.84329355,-0.83621395,-0.8281185,-0.8291343,-0.8341824,-0.8341824,-0.82608694,-0.814975,-0.8119277,-0.81294346,-0.8119277,-0.80383223,-0.79373604,-0.79170454,-0.79373604,-0.79272026,-0.7856406,-0.778561,-0.78059256,-0.78868794,-0.79170454,-0.7856406,-0.778561,-0.77652943,-0.78160834,-0.7836091,-0.778561,-0.7735129,-0.7745287,-0.78160834,-0.7856406,-0.78160834,-0.77652943,-0.7775452,-0.7836091,-0.7856406,-0.7795768,-0.7735129,-0.7745287,-0.78059256,-0.7846249,-0.7795768,-0.77148134,-0.7694806,-0.7724971,-0.77554446,-0.77148134,-0.76643324,-0.7684648,-0.7724971,-0.7745287,-0.767449,-0.7593536,-0.75833786,-0.7624009,-0.7633859,-0.75833786,-0.7502424,-0.7451943,-0.74116194,-0.7350981,-0.7209388,-0.7097961,-0.70474803,-0.6996999,-0.68957293,-0.6653174,-0.6380146,-0.62185454,-0.6167757,-0.6177915,-0.62385535,-0.6359831,-0.65620625,-0.67544436,-0.6825241,-0.6764294,-0.6703656,-0.67947674,-0.70373225,-0.7361139,-0.76138514,-0.7775452,-0.79170454,-0.8008157,-0.8008157,-0.79170454,-0.78262407,-0.78262407,-0.78868794,-0.79272026,-0.79068875,-0.7856406,-0.7866564,-0.79170454,-0.7967526,-0.8109119,-0.83519816,-0.8594536,-0.83113503,-0.6723971,-0.36196995,0.061669946,0.4964832,0.79878426,0.88373995,0.7472259,0.42670262,0.0141747,-0.38524044,-0.6976683,-0.8806926,-0.9393305,-0.92012316,-0.8705656,-0.83011925,-0.8109119,-0.8119277,-0.82405543,-0.83519816,-0.8382147,-0.83011925,-0.8190073,-0.81599075,-0.8169758,-0.814975,-0.804848,-0.79170454,-0.7866564,-0.78767216,-0.78767216,-0.78059256,-0.77046555,-0.76643324,-0.767449,-0.76541746,-0.75532126,-0.74316275,-0.7381147,-0.73913044,-0.73913044,-0.7300192,-0.7168757,-0.70881104,-0.70677954,-0.70373225,-0.6926203,-0.67947674,-0.6723971,-0.66836476,-0.6612851,-0.6440785,-0.62487113,-0.60969603,-0.59959984,-0.58645636,-0.5642016,-0.5379146,-0.51870716,-0.5035322,-0.48835707,-0.46410155,-0.43883032,-0.4216237,-0.41051173,-0.40140057,-0.38625628,-0.37311274,-0.37209696,-0.3842247,-0.4024163,-0.42365527,-0.45298964,-0.49645245,-0.5500423,-0.60363215,-0.64712584,-0.6845248,-0.7249712,-0.76643324,-0.79776835,-0.814975,-0.82405543,-0.8341824,-0.8483417,-0.8604694,-0.86351675,-0.8594536,-0.8594536,-0.8614852,-0.86351675,-0.8574221,-0.85034245,-0.8493575,-0.852374,-0.8544055,-0.8473259,-0.8382147,-0.83621395,-0.8392305,-0.84227777,-0.83621395,-0.8271027,-0.8250712,-0.8281185,-0.83011925,-0.8250712,-0.8169758,-0.814975,-0.81799155,-0.82103884,-0.8169758,-0.8109119,-0.8119277,-0.8169758,-0.8190073,-0.81294346,-0.804848,-0.80284727,-0.8058638,-0.8068796,-0.79878414,-0.7897037,-0.78767216,-0.79170454,-0.7947518,-0.78767216,-0.778561,-0.77652943,-0.78059256,-0.7856406,-0.78262407,-0.77652943,-0.77652943,-0.78160834,-0.7846249,-0.778561,-0.7694806,-0.76643324,-0.77046555,-0.77554446,-0.7735129,-0.7684648,-0.767449,-0.77148134,-0.77554446,-0.77046555,-0.7633859,-0.7633859,-0.767449,-0.77046555,-0.76541746,-0.7573221,-0.7573221,-0.7624009,-0.7694806,-0.767449,-0.7593536,-0.75532126,-0.7573221,-0.76138514,-0.75833786,-0.7532897,-0.7522739,-0.7573221,-0.7624009,-0.7573221,-0.75125813,-0.74824166,-0.74925745,-0.75125813,-0.7462101,-0.73913044,-0.7381147,-0.7381147,-0.7350981,-0.7209388,-0.7027472,-0.693636,-0.6905887,-0.68554056,-0.6693498,-0.6450943,-0.62283957,-0.60871106,-0.5965525,-0.58848786,-0.5955676,-0.619823,-0.6552212,-0.6804925,-0.68350905,-0.6693498,-0.6602694,-0.6693498,-0.6916045,-0.71789145,-0.74316275,-0.767449,-0.7866564,-0.7957676,-0.78868794,-0.77652943,-0.77046555,-0.77148134,-0.7735129,-0.7694806,-0.7633859,-0.7624009,-0.767449,-0.7724971,-0.7735129,-0.79068875,-0.8250712,-0.85338974,-0.81395924,-0.6299192,-0.29422086,0.14459407,0.58140826,0.87462866,0.9423779,0.78160834,0.42974985,-0.0030318499,-0.40848017,-0.7128434,-0.8857407,-0.9403463,-0.91710657,-0.8645017,-0.8190073,-0.7997999,-0.80789536,-0.8250712,-0.83621395,-0.8331666,-0.8230704,-0.8169758,-0.81799155,-0.81799155,-0.8089111,-0.7967526,-0.79068875,-0.79068875,-0.79170454,-0.7846249,-0.7724971,-0.76541746,-0.7644017,-0.7633859,-0.7543055,-0.7421777,-0.7361139,-0.7361139,-0.7350981,-0.7239554,-0.70881104,-0.70071566,-0.6996999,-0.70071566,-0.6916045,-0.6774452,-0.6663332,-0.6612851,-0.6552212,-0.6400462,-0.619823,-0.60363215,-0.59150445,-0.5803925,-0.56118506,-0.5379146,-0.5166757,-0.5025163,-0.48737204,-0.46410155,-0.43578303,-0.41355908,-0.40140057,-0.39232016,-0.3801924,-0.36501735,-0.3569219,-0.35895342,-0.3680339,-0.37917662,-0.39635247,-0.42870337,-0.4772451,-0.5318507,-0.5793767,-0.62083876,-0.6623009,-0.70576376,-0.7451943,-0.7724971,-0.7897037,-0.8068796,-0.8250712,-0.84024626,-0.84529436,-0.84329355,-0.84329355,-0.8473259,-0.852374,-0.8493575,-0.84227777,-0.8382147,-0.84126204,-0.8442786,-0.8382147,-0.83011925,-0.8271027,-0.83011925,-0.8341824,-0.8291343,-0.82002306,-0.8169758,-0.82103884,-0.8271027,-0.82405543,-0.81599075,-0.8119277,-0.81395924,-0.81799155,-0.8119277,-0.80284727,-0.79878414,-0.8008157,-0.8058638,-0.8018315,-0.79373604,-0.7897037,-0.7897037,-0.79068875,-0.7836091,-0.7735129,-0.77046555,-0.77554446,-0.7795768,-0.77554446,-0.76643324,-0.76138514,-0.7644017,-0.7684648,-0.7644017,-0.75833786,-0.75633705,-0.7624009,-0.767449,-0.7633859,-0.7532897,-0.74824166,-0.7522739,-0.75833786,-0.7573221,-0.75125813,-0.7472259,-0.74925745,-0.7543055,-0.75125813,-0.74417853,-0.7401462,-0.74417853,-0.7502424,-0.74925745,-0.74316275,-0.7401462,-0.74316275,-0.74824166,-0.7462101,-0.74116194,-0.7381147,-0.7421777,-0.7462101,-0.74417853,-0.73709893,-0.7350981,-0.74116194,-0.7462101,-0.7421777,-0.73408234,-0.7320508,-0.7401462,-0.75125813,-0.7532897,-0.74824166,-0.74417853,-0.7451943,-0.74824166,-0.74316275,-0.731035,-0.71890724,-0.7138592,-0.7097961,-0.70071566,-0.6885879,-0.6774452,-0.6703656,-0.6602694,-0.6390304,-0.6117276,-0.59252024,-0.59150445,-0.60969603,-0.6329665,-0.65420544,-0.6703656,-0.67947674,-0.6815083,-0.67544436,-0.67544436,-0.6916045,-0.7239554,-0.7593536,-0.78262407,-0.78868794,-0.78767216,-0.78868794,-0.78868794,-0.78262407,-0.7735129,-0.7694806,-0.7735129,-0.78059256,-0.78160834,-0.77652943,-0.7724971,-0.7775452,-0.79878414,-0.83011925,-0.8544055,-0.8392305,-0.71890724,-0.45298964,-0.061669886,0.37816083,0.70982695,0.8260869,0.70982695,0.40952682,0.020238519,-0.3599692,-0.67544436,-0.8817084,-0.962601,-0.9443786,-0.8796768,-0.82002306,-0.7897037,-0.78059256,-0.78262407,-0.7866564,-0.79170454,-0.79373604,-0.7866564,-0.7745287,-0.76643324,-0.76643324,-0.76643324,-0.75833786,-0.7451943,-0.73408234,-0.7320508,-0.73306656,-0.7270027,-0.71789145,-0.7097961,-0.70881104,-0.7097961,-0.70576376,-0.6986841,-0.6916045,-0.6905887,-0.6875721,-0.6774452,-0.66328585,-0.65318966,-0.6501424,-0.64915735,-0.6400462,-0.62487113,-0.60969603,-0.6006156,-0.59455174,-0.5803925,-0.56217,-0.54499424,-0.5318507,-0.51870716,-0.49746823,-0.4711812,-0.44692576,-0.43073487,-0.41860718,-0.39939976,-0.37412852,-0.3528896,-0.34076178,-0.33368224,-0.32355523,-0.31345898,-0.31142747,-0.32860327,-0.3599692,-0.39232016,-0.42670256,-0.4671489,-0.51972294,-0.57734513,-0.6299192,-0.6703656,-0.70677954,-0.74116194,-0.7724971,-0.79170454,-0.8018315,-0.8089111,-0.82103884,-0.8331666,-0.8371989,-0.8382147,-0.8382147,-0.8442786,-0.85034245,-0.8473259,-0.8382147,-0.8321508,-0.83519816,-0.84126204,-0.84024626,-0.8341824,-0.8281185,-0.83113503,-0.8392305,-0.84024626,-0.83519816,-0.83113503,-0.8331666,-0.8371989,-0.8331666,-0.8250712,-0.8190073,-0.82002306,-0.8220546,-0.81294346,-0.80284727,-0.7957676,-0.79878414,-0.8058638,-0.804848,-0.7967526,-0.79170454,-0.79272026,-0.7957676,-0.7897037,-0.7795768,-0.7724971,-0.77554446,-0.78262407,-0.78160834,-0.7745287,-0.7694806,-0.7724971,-0.778561,-0.778561,-0.77046555,-0.7644017,-0.7684648,-0.7745287,-0.7745287,-0.76541746,-0.7573221,-0.7593536,-0.767449,-0.7684648,-0.76643324,-0.76138514,-0.76138514,-0.7644017,-0.7624009,-0.75532126,-0.75125813,-0.75532126,-0.7633859,-0.7624009,-0.75633705,-0.74824166,-0.74824166,-0.7522739,-0.75125813,-0.7462101,-0.7421777,-0.74417853,-0.7462101,-0.7381147,-0.7239554,-0.71081185,-0.70677954,-0.70576376,-0.69566756,-0.67947674,-0.65620625,-0.6410619,-0.63093495,-0.62083876,-0.6157599,-0.62487113,-0.6501424,-0.67846096,-0.693636,-0.6916045,-0.6825241,-0.68350905,-0.69665253,-0.71589077,-0.73709893,-0.7593536,-0.7795768,-0.79170454,-0.7897037,-0.778561,-0.7694806,-0.77148134,-0.778561,-0.7795768,-0.7745287,-0.7684648,-0.77148134,-0.77652943,-0.7745287,-0.76643324,-0.77148134,-0.7997999,-0.8291343,-0.8119277,-0.6815083,-0.4175914,-0.057637572,0.3154906,0.577345,0.641062,0.5035322,0.20123124,-0.16176987,-0.49038863,-0.7421777,-0.8918045,-0.9494575,-0.9302501,-0.8665333,-0.7997999,-0.7593536,-0.7573221,-0.7735129,-0.7846249,-0.78160834,-0.77148134,-0.76643324,-0.7644017,-0.7593536,-0.7502424,-0.74116194,-0.7401462,-0.7421777,-0.7381147,-0.7270027,-0.714875,-0.71081185,-0.7128434,-0.71182764,-0.70576376,-0.6976683,-0.6946518,-0.6946518,-0.68957293,-0.67947674,-0.6693498,-0.6663332,-0.6653174,-0.6582378,-0.6450943,-0.63093495,-0.62487113,-0.62185454,-0.61375916,-0.59858406,-0.5823932,-0.5733128,-0.5642016,-0.5470258,-0.5227395,-0.49746823,-0.4792766,-0.46613312,-0.44692576,-0.4226395,-0.39939976,-0.3842247,-0.37311274,-0.35895342,-0.34076178,-0.32660252,-0.32660252,-0.3346672,-0.34377837,-0.35390532,-0.37612927,-0.41555983,-0.46816468,-0.5227395,-0.5733128,-0.62083876,-0.6734128,-0.7229396,-0.7593536,-0.7836091,-0.7997999,-0.81799155,-0.8371989,-0.8483417,-0.85135823,-0.852374,-0.8554213,-0.8604694,-0.8594536,-0.85338974,-0.8473259,-0.8483417,-0.8544055,-0.8544055,-0.8483417,-0.8442786,-0.8473259,-0.8554213,-0.8564371,-0.85034245,-0.84329355,-0.84329355,-0.8483417,-0.85034245,-0.84631014,-0.84126204,-0.84227777,-0.8473259,-0.8442786,-0.83519816,-0.8250712,-0.8250712,-0.83011925,-0.83011925,-0.8220546,-0.8109119,-0.8089111,-0.81294346,-0.81395924,-0.8089111,-0.80284727,-0.80284727,-0.80789536,-0.80789536,-0.8018315,-0.7947518,-0.7957676,-0.8008157,-0.80383223,-0.8008157,-0.7957676,-0.79878414,-0.80284727,-0.80383223,-0.79878414,-0.79373604,-0.7967526,-0.80284727,-0.804848,-0.79776835,-0.7897037,-0.7897037,-0.7957676,-0.79878414,-0.7967526,-0.79373604,-0.7957676,-0.7997999,-0.7997999,-0.79272026,-0.7856406,-0.78767216,-0.79170454,-0.78868794,-0.77652943,-0.76036936,-0.7522739,-0.7522739,-0.74925745,-0.73709893,-0.71890724,-0.7027472,-0.68554056,-0.6693498,-0.6521739,-0.6430627,-0.65420544,-0.67947674,-0.70373225,-0.71589077,-0.71589077,-0.714875,-0.714875,-0.7209388,-0.7320508,-0.7522739,-0.7846249,-0.814975,-0.8331666,-0.8331666,-0.82405543,-0.8190073,-0.8190073,-0.8190073,-0.81395924,-0.80992687,-0.81294346,-0.81799155,-0.82002306,-0.814975,-0.80992687,-0.8271027,-0.86351675,-0.8928203,-0.86754906,-0.7249712,-0.44590998,-0.05963838,0.36400163,0.6815082,0.7927203,0.6703963,0.36200082,-0.030334651,-0.40140057,-0.6946518,-0.8837399,-0.962601,-0.9514583,-0.8938361,-0.8382147,-0.8190073,-0.8281185,-0.84227777,-0.8442786,-0.8382147,-0.83519816,-0.8341824,-0.83113503,-0.82103884,-0.8109119,-0.8089111,-0.8119277,-0.8119277,-0.80383223,-0.79272026,-0.78868794,-0.79068875,-0.7897037,-0.78262407,-0.7724971,-0.7694806,-0.77046555,-0.767449,-0.75532126,-0.7421777,-0.7350981,-0.73306656,-0.7270027,-0.714875,-0.70173144,-0.6946518,-0.6926203,-0.68554056,-0.6693498,-0.64915735,-0.6369989,-0.6289342,-0.6177915,-0.59858406,-0.57734513,-0.56217,-0.5510581,-0.5368988,-0.5136591,-0.48737204,-0.46816468,-0.4549904,-0.44184685,-0.42365527,-0.40647942,-0.3973682,-0.3953367,-0.39635247,-0.3973682,-0.40647942,-0.43276644,-0.472197,-0.5166757,-0.56016934,-0.60566366,-0.65620625,-0.70677954,-0.7502424,-0.778561,-0.7997999,-0.8230704,-0.8442786,-0.8594536,-0.86351675,-0.86351675,-0.86754906,-0.8756445,-0.8806926,-0.87764525,-0.8705656,-0.8695806,-0.87361294,-0.8746287,-0.8695806,-0.86250097,-0.8614852,-0.8665333,-0.86754906,-0.8594536,-0.85135823,-0.852374,-0.8594536,-0.86351675,-0.8574221,-0.8473259,-0.84529436,-0.8493575,-0.852374,-0.8483417,-0.84126204,-0.84126204,-0.84529436,-0.8483417,-0.84227777,-0.8341824,-0.8321508,-0.8341824,-0.83621395,-0.83113503,-0.8250712,-0.82405543,-0.8271027,-0.82608694,-0.8190073,-0.8068796,-0.80383223,-0.8068796,-0.8089111,-0.804848,-0.7997999,-0.7997999,-0.8068796,-0.8109119,-0.8068796,-0.7997999,-0.7997999,-0.804848,-0.80789536,-0.80284727,-0.7957676,-0.7957676,-0.8008157,-0.80383223,-0.79878414,-0.79068875,-0.7897037,-0.79373604,-0.79776835,-0.79373604,-0.7866564,-0.7856406,-0.7897037,-0.79170454,-0.78767216,-0.78059256,-0.78160834,-0.78767216,-0.79068875,-0.7846249,-0.77652943,-0.77652943,-0.78059256,-0.7856406,-0.78160834,-0.7735129,-0.7694806,-0.76643324,-0.76036936,-0.7462101,-0.73306656,-0.72903425,-0.7270027,-0.71890724,-0.6996999,-0.6723971,-0.6521739,-0.6430627,-0.6369989,-0.63195074,-0.6359831,-0.65420544,-0.6804925,-0.6976683,-0.69665253,-0.68554056,-0.68350905,-0.6976683,-0.7259869,-0.75833786,-0.78262407,-0.7997999,-0.8089111,-0.80383223,-0.79272026,-0.78262407,-0.7846249,-0.7947518,-0.8008157,-0.79776835,-0.7897037,-0.78767216,-0.79170454,-0.7957676,-0.8008157,-0.82103884,-0.85338974,-0.8705656,-0.8018315,-0.5814082,-0.2184071,0.23256636,0.6420777,0.87967694,0.8847556,0.66938055,0.2851404,-0.1456098,-0.5257869,-0.79373604,-0.92720276,-0.95247406,-0.9180916,-0.86754906,-0.8321508,-0.8220546,-0.8321508,-0.84631014,-0.8544055,-0.84631014,-0.83113503,-0.8220546,-0.82103884,-0.82103884,-0.81395924,-0.804848,-0.7997999,-0.8008157,-0.8018315,-0.7947518,-0.7866564,-0.7846249,-0.7846249,-0.7836091,-0.7735129,-0.7593536,-0.7522739,-0.75125813,-0.7502424,-0.74116194,-0.72801846,-0.719923,-0.7168757,-0.7138592,-0.7027472,-0.6875721,-0.6764294,-0.6703656,-0.66328585,-0.6501424,-0.6339823,-0.62385535,-0.6167757,-0.60566366,-0.5854405,-0.56118506,-0.5419469,-0.52880335,-0.5136591,-0.48937285,-0.46410155,-0.44590998,-0.43781453,-0.4297191,-0.41457486,-0.39838398,-0.3913043,-0.3953367,-0.40848017,-0.4216237,-0.4398461,-0.472197,-0.51972294,-0.572297,-0.619823,-0.6612851,-0.7027472,-0.74417853,-0.7775452,-0.79878414,-0.81294346,-0.8291343,-0.8473259,-0.8614852,-0.86250097,-0.8584379,-0.8574221,-0.86250097,-0.86754906,-0.8665333,-0.86250097,-0.86250097,-0.8645017,-0.8665333,-0.8594536,-0.85034245,-0.8483417,-0.8544055,-0.8614852,-0.8594536,-0.85338974,-0.85135823,-0.85338974,-0.8554213,-0.8493575,-0.84024626,-0.83621395,-0.84024626,-0.84529436,-0.84024626,-0.83011925,-0.8230704,-0.82405543,-0.8291343,-0.8271027,-0.8220546,-0.81799155,-0.82002306,-0.8220546,-0.8169758,-0.8109119,-0.80789536,-0.8119277,-0.81599075,-0.8119277,-0.8058638,-0.80383223,-0.8068796,-0.8109119,-0.8058638,-0.79776835,-0.7947518,-0.79878414,-0.80284727,-0.79878414,-0.79068875,-0.7866564,-0.78868794,-0.79170454,-0.78868794,-0.78262407,-0.78262407,-0.7897037,-0.7967526,-0.79373604,-0.7856406,-0.78262407,-0.7846249,-0.78868794,-0.7846249,-0.77652943,-0.7735129,-0.778561,-0.7856406,-0.78262407,-0.7735129,-0.7684648,-0.77046555,-0.7745287,-0.7724971,-0.767449,-0.76541746,-0.7694806,-0.7724971,-0.7684648,-0.76138514,-0.75833786,-0.76138514,-0.7644017,-0.7593536,-0.75125813,-0.7502424,-0.75633705,-0.76138514,-0.75633705,-0.7421777,-0.7270027,-0.7168757,-0.71182764,-0.7027472,-0.6905887,-0.67947674,-0.6703656,-0.65722203,-0.6359831,-0.6127434,-0.59959984,-0.60363215,-0.62185454,-0.6420777,-0.6592536,-0.6734128,-0.68350905,-0.68655634,-0.68350905,-0.6845248,-0.7027472,-0.73709893,-0.7724971,-0.7947518,-0.8008157,-0.79878414,-0.79878414,-0.79878414,-0.79373604,-0.7856406,-0.78160834,-0.7856406,-0.79068875,-0.78767216,-0.7775452,-0.7724971,-0.78160834,-0.81395924,-0.8483417,-0.8614852,-0.7997999,-0.60363215,-0.26390147,0.18300879,0.61779165,0.89081955,0.9211389,0.7199229,0.3508581,-0.07379758,-0.46511734,-0.76036936,-0.9251712,-0.9615852,-0.9180916,-0.8554213,-0.82002306,-0.8169758,-0.82405543,-0.8271027,-0.8281185,-0.8281185,-0.82608694,-0.8169758,-0.804848,-0.79776835,-0.79878414,-0.8008157,-0.7967526,-0.7856406,-0.77652943,-0.7735129,-0.7735129,-0.76643324,-0.75633705,-0.74925745,-0.74925745,-0.75125813,-0.7451943,-0.7361139,-0.7270027,-0.7249712,-0.7229396,-0.7128434,-0.6976683,-0.6885879,-0.6845248,-0.68350905,-0.6744286,-0.65620625,-0.6390304,-0.6279184,-0.619823,-0.60363215,-0.5844248,-0.5682647,-0.56217,-0.5541054,-0.5379146,-0.51162755,-0.48737204,-0.47016543,-0.4570219,-0.43679875,-0.41355908,-0.3973682,-0.3902886,-0.38927275,-0.3842247,-0.37612927,-0.37612927,-0.39232016,-0.41962296,-0.4519738,-0.48737204,-0.5318507,-0.5844248,-0.6380146,-0.6804925,-0.7128434,-0.74316275,-0.7775452,-0.8089111,-0.8271027,-0.8331666,-0.8371989,-0.8442786,-0.852374,-0.85338974,-0.85034245,-0.8483417,-0.852374,-0.8574221,-0.852374,-0.84126204,-0.8341824,-0.8371989,-0.84227777,-0.84024626,-0.83113503,-0.82608694,-0.8271027,-0.83113503,-0.8291343,-0.8220546,-0.81799155,-0.82103884,-0.8271027,-0.8250712,-0.81799155,-0.8119277,-0.8119277,-0.81395924,-0.8089111,-0.7997999,-0.7947518,-0.7967526,-0.8018315,-0.79776835,-0.78868794,-0.7836091,-0.7866564,-0.79272026,-0.79272026,-0.7856406,-0.78059256,-0.7795768,-0.78262407,-0.78059256,-0.7735129,-0.7684648,-0.7694806,-0.7735129,-0.77148134,-0.767449,-0.76541746,-0.7684648,-0.7745287,-0.7735129,-0.7684648,-0.76541746,-0.767449,-0.77046555,-0.76541746,-0.7573221,-0.7522739,-0.75633705,-0.7633859,-0.7633859,-0.7593536,-0.75532126,-0.7593536,-0.7644017,-0.76036936,-0.7532897,-0.7502424,-0.7573221,-0.76541746,-0.7633859,-0.7532897,-0.74316275,-0.7421777,-0.74925745,-0.7502424,-0.74824166,-0.7451943,-0.7472259,-0.7502424,-0.7472259,-0.73913044,-0.7361139,-0.7421777,-0.7502424,-0.74925745,-0.73913044,-0.7259869,-0.71789145,-0.71081185,-0.6996999,-0.68655634,-0.67544436,-0.6713813,-0.667349,-0.64915735,-0.619823,-0.593536,-0.5823932,-0.5894729,-0.60566366,-0.6269027,-0.6481416,-0.6653174,-0.6734128,-0.667349,-0.6582378,-0.66328585,-0.6905887,-0.7300192,-0.7624009,-0.778561,-0.7836091,-0.7866564,-0.78868794,-0.7846249,-0.77652943,-0.77046555,-0.7735129,-0.7795768,-0.7795768,-0.77652943,-0.77148134,-0.7735129,-0.78262407,-0.8008157,-0.8250712,-0.8371989,-0.79272026,-0.62385535,-0.30838013,0.108180046,0.51264334,0.75935364,0.7765602,0.58442485,0.2376144,-0.1546902,-0.5166757,-0.7897037,-0.93831474,-0.96968067,-0.9241554,-0.8584379,-0.8089111,-0.78262407,-0.77652943,-0.78059256,-0.79170454,-0.8008157,-0.79878414,-0.78767216,-0.7745287,-0.77148134,-0.7724971,-0.7684648,-0.7593536,-0.74925745,-0.74824166,-0.75125813,-0.7472259,-0.7361139,-0.7239554,-0.719923,-0.719923,-0.714875,-0.70373225,-0.6916045,-0.6875721,-0.68957293,-0.6845248,-0.6734128,-0.6612851,-0.65620625,-0.65318966,-0.6450943,-0.6289342,-0.6127434,-0.60363215,-0.59858406,-0.5874721,-0.57026553,-0.5510581,-0.5389304,-0.52880335,-0.5106118,-0.48534054,-0.45803767,-0.43883032,-0.42365527,-0.40647942,-0.38524044,-0.3680339,-0.35895342,-0.35489035,-0.34580994,-0.3346672,-0.32758754,-0.33568293,-0.35793763,-0.38524044,-0.4175914,-0.46006924,-0.51467484,-0.5733128,-0.62487113,-0.6653174,-0.6996999,-0.73709893,-0.77148134,-0.7947518,-0.80789536,-0.81799155,-0.8331666,-0.85034245,-0.8574221,-0.8554213,-0.85135823,-0.8544055,-0.8614852,-0.86250097,-0.8574221,-0.8493575,-0.8493575,-0.85338974,-0.85338974,-0.8483417,-0.84329355,-0.84529436,-0.85034245,-0.85034245,-0.84329355,-0.83519816,-0.8331666,-0.83621395,-0.83621395,-0.8291343,-0.82103884,-0.82002306,-0.8220546,-0.82103884,-0.81395924,-0.8068796,-0.8068796,-0.8109119,-0.80992687,-0.80284727,-0.7947518,-0.79373604,-0.7957676,-0.7947518,-0.78767216,-0.78059256,-0.78059256,-0.7836091,-0.78262407,-0.77554446,-0.7694806,-0.7735129,-0.78059256,-0.7846249,-0.78059256,-0.77652943,-0.78059256,-0.78767216,-0.79068875,-0.7856406,-0.7795768,-0.78160834,-0.78767216,-0.7897037,-0.7846249,-0.7795768,-0.78059256,-0.7846249,-0.7846249,-0.7775452,-0.77148134,-0.7735129,-0.78059256,-0.78262407,-0.778561,-0.7724971,-0.7735129,-0.7795768,-0.7836091,-0.778561,-0.7735129,-0.7735129,-0.7745287,-0.77046555,-0.75633705,-0.7401462,-0.7320508,-0.7300192,-0.7249712,-0.7128434,-0.69566756,-0.67846096,-0.6623009,-0.6450943,-0.6279184,-0.62385535,-0.6410619,-0.6703656,-0.6946518,-0.70173144,-0.6976683,-0.69665253,-0.70173144,-0.7138592,-0.7320508,-0.75633705,-0.7846249,-0.8068796,-0.8119277,-0.8018315,-0.79068875,-0.7897037,-0.7947518,-0.7957676,-0.79068875,-0.7836091,-0.78767216,-0.7957676,-0.79776835,-0.79068875,-0.7836091,-0.80284727,-0.8392305,-0.8574221,-0.80383223,-0.62385535,-0.31850708,0.06370139,0.42365527,0.6349981,0.6329665,0.42873418,0.084940314,-0.2800923,-0.59455174,-0.8190073,-0.9453944,-0.9777453,-0.9393305,-0.8695806,-0.814975,-0.79776835,-0.80789536,-0.82103884,-0.82002306,-0.8119277,-0.80789536,-0.80789536,-0.80383223,-0.79373604,-0.7836091,-0.7836091,-0.7866564,-0.7856406,-0.77652943,-0.76541746,-0.7633859,-0.76643324,-0.76541746,-0.75532126,-0.74316275,-0.73913044,-0.74116194,-0.7401462,-0.72903425,-0.714875,-0.70677954,-0.70373225,-0.6905887,-0.6623009,-0.6339823,-0.6329665,-0.65115815,-0.67544436,-0.6825241,-0.66328585,-0.6359831,-0.6127434,-0.5955676,-0.5753444,-0.5541054,-0.535883,-0.5207387,-0.5005156,-0.47422856,-0.4499423,-0.43276644,-0.4216237,-0.40749514,-0.38625628,-0.36603308,-0.35895342,-0.3599692,-0.3640015,-0.36904967,-0.38219315,-0.41457486,-0.46207005,-0.51467484,-0.56217,-0.60871106,-0.6592536,-0.71081185,-0.7532897,-0.78262407,-0.804848,-0.82608694,-0.8493575,-0.8665333,-0.8715814,-0.8705656,-0.8746287,-0.8806926,-0.8827241,-0.87866104,-0.8746287,-0.8756445,-0.8817084,-0.8837399,-0.87764525,-0.8715814,-0.87259716,-0.87764525,-0.8806926,-0.8746287,-0.8665333,-0.8665333,-0.87259716,-0.8766602,-0.87259716,-0.8655175,-0.86351675,-0.8665333,-0.86856484,-0.8614852,-0.852374,-0.8483417,-0.85034245,-0.8493575,-0.84024626,-0.83011925,-0.8291343,-0.8321508,-0.83519816,-0.83011925,-0.8230704,-0.8220546,-0.8271027,-0.83011925,-0.8230704,-0.814975,-0.81395924,-0.8169758,-0.82002306,-0.81599075,-0.80992687,-0.8109119,-0.81799155,-0.8230704,-0.8190073,-0.81294346,-0.8119277,-0.81599075,-0.81799155,-0.8119277,-0.80383223,-0.80383223,-0.80992687,-0.814975,-0.8119277,-0.804848,-0.80383223,-0.8058638,-0.8068796,-0.8008157,-0.79373604,-0.7957676,-0.8018315,-0.8089111,-0.8068796,-0.8018315,-0.79776835,-0.79373604,-0.7846249,-0.76541746,-0.74925745,-0.7451943,-0.7472259,-0.7451943,-0.7270027,-0.6986841,-0.6764294,-0.66328585,-0.65722203,-0.65620625,-0.6663332,-0.6905887,-0.71890724,-0.7350981,-0.731035,-0.719923,-0.71789145,-0.73306656,-0.75833786,-0.78262407,-0.80383223,-0.82405543,-0.8392305,-0.8442786,-0.8371989,-0.82608694,-0.82103884,-0.8250712,-0.83011925,-0.8271027,-0.8220546,-0.8220546,-0.82608694,-0.8281185,-0.8341824,-0.8564371,-0.8867564,-0.8938361,-0.80284727,-0.5581378,-0.18097723,0.25885344,0.6269026,0.8078953,0.7603693,0.51162755,0.1264025,-0.28107733,-0.6289342,-0.8614852,-0.9666333,-0.9726972,-0.92821854,-0.8746287,-0.84126204,-0.83621395,-0.85034245,-0.8665333,-0.8715814,-0.8604694,-0.84529436,-0.83621395,-0.83519816,-0.8371989,-0.83113503,-0.8230704,-0.82002306,-0.8220546,-0.82002306,-0.8089111,-0.7967526,-0.79170454,-0.7947518,-0.7967526,-0.78868794,-0.7745287,-0.76643324,-0.76541746,-0.76541746,-0.7573221,-0.7451943,-0.73913044,-0.7361139,-0.7320508,-0.71789145,-0.70173144,-0.6905887,-0.68554056,-0.67947674,-0.66430163,-0.6450943,-0.63195074,-0.62283957,-0.6117276,-0.5904886,-0.5652174,-0.54397845,-0.5298192,-0.5166757,-0.49543673,-0.472197,-0.45400542,-0.44184685,-0.43276644,-0.4175914,-0.40343207,-0.39939976,-0.40546364,-0.41962296,-0.43578303,-0.46006924,-0.5005156,-0.5551212,-0.6127434,-0.6623009,-0.70173144,-0.74116194,-0.7795768,-0.8119277,-0.8331666,-0.84631014,-0.8604694,-0.87764525,-0.8907888,-0.8928203,-0.88980377,-0.888788,-0.8918045,-0.89586765,-0.8918045,-0.8847249,-0.8817084,-0.8847249,-0.8877722,-0.8837399,-0.8766602,-0.87361294,-0.8746287,-0.8756445,-0.8695806,-0.86250097,-0.8604694,-0.86351675,-0.8665333,-0.86250097,-0.8554213,-0.8544055,-0.8574221,-0.8604694,-0.8554213,-0.84631014,-0.84329355,-0.84631014,-0.8493575,-0.8442786,-0.83621395,-0.8341824,-0.83621395,-0.8392305,-0.8341824,-0.8250712,-0.8220546,-0.82405543,-0.8271027,-0.81799155,-0.8058638,-0.7997999,-0.8018315,-0.8058638,-0.80383223,-0.79776835,-0.7957676,-0.8018315,-0.80789536,-0.804848,-0.79878414,-0.7957676,-0.7997999,-0.804848,-0.8018315,-0.7947518,-0.79272026,-0.7967526,-0.8008157,-0.7967526,-0.7897037,-0.78767216,-0.79068875,-0.7947518,-0.79272026,-0.7856406,-0.78262407,-0.78767216,-0.79272026,-0.79170454,-0.7866564,-0.7856406,-0.79068875,-0.7957676,-0.79170454,-0.78262407,-0.7775452,-0.7795768,-0.7836091,-0.78160834,-0.7745287,-0.7684648,-0.7633859,-0.75532126,-0.73913044,-0.7229396,-0.7138592,-0.71182764,-0.70881104,-0.693636,-0.66836476,-0.6450943,-0.63195074,-0.6269027,-0.6279184,-0.6390304,-0.6612851,-0.6885879,-0.70474803,-0.70173144,-0.6916045,-0.6916045,-0.7097961,-0.7421777,-0.77148134,-0.79272026,-0.8068796,-0.8169758,-0.82002306,-0.8119277,-0.80284727,-0.79878414,-0.8018315,-0.8058638,-0.8018315,-0.79373604,-0.7897037,-0.7947518,-0.80383223,-0.81799155,-0.84631014,-0.87361294,-0.86250097,-0.73306656,-0.4438784,-0.026271641,0.43276644,0.7805927,0.9150752,0.81497514,0.5176914,0.10211623,-0.31850708,-0.6653174,-0.8817084,-0.962601,-0.9514583,-0.89989996,-0.8554213,-0.8331666,-0.8321508,-0.84227777,-0.8544055,-0.8604694,-0.852374,-0.8382147,-0.8281185,-0.8281185,-0.83011925,-0.82608694,-0.8169758,-0.8109119,-0.8089111,-0.8089111,-0.8008157,-0.78868794,-0.7795768,-0.778561,-0.778561,-0.77148134,-0.76138514,-0.75532126,-0.75633705,-0.7573221,-0.74824166,-0.73306656,-0.7209388,-0.7168757,-0.71589077,-0.70779526,-0.6926203,-0.6815083,-0.67544436,-0.6703656,-0.65620625,-0.6369989,-0.619823,-0.60871106,-0.59858406,-0.5803925,-0.5551212,-0.5328665,-0.51769143,-0.5055636,-0.48635632,-0.46207005,-0.4398461,-0.4277184,-0.41860718,-0.40848017,-0.39939976,-0.3953367,-0.40343207,-0.4175914,-0.43378222,-0.4570219,-0.49645245,-0.5510581,-0.60969603,-0.6582378,-0.69665253,-0.7320508,-0.77046555,-0.8058638,-0.83011925,-0.84227777,-0.85135823,-0.86250097,-0.87259716,-0.8746287,-0.87259716,-0.87259716,-0.8796768,-0.8877722,-0.8867564,-0.8806926,-0.87361294,-0.87259716,-0.87361294,-0.86856484,-0.8594536,-0.85338974,-0.8554213,-0.8594536,-0.8574221,-0.852374,-0.8493575,-0.852374,-0.8554213,-0.85135823,-0.8442786,-0.8392305,-0.84329355,-0.8473259,-0.8442786,-0.83519816,-0.8291343,-0.83011925,-0.8331666,-0.83011925,-0.8230704,-0.8190073,-0.82103884,-0.82405543,-0.8190073,-0.8119277,-0.80789536,-0.8119277,-0.8169758,-0.814975,-0.8058638,-0.8008157,-0.80383223,-0.80789536,-0.8058638,-0.7957676,-0.78868794,-0.79068875,-0.7947518,-0.79373604,-0.78767216,-0.7846249,-0.78868794,-0.7947518,-0.79373604,-0.7856406,-0.778561,-0.78059256,-0.7856406,-0.7856406,-0.7795768,-0.77554446,-0.7795768,-0.7856406,-0.7866564,-0.78160834,-0.7775452,-0.78059256,-0.7866564,-0.7856406,-0.7795768,-0.7735129,-0.77652943,-0.78059256,-0.7795768,-0.7724971,-0.76643324,-0.7684648,-0.7735129,-0.7724971,-0.767449,-0.7644017,-0.7684648,-0.77046555,-0.76138514,-0.74417853,-0.7270027,-0.719923,-0.71890724,-0.7097961,-0.69566756,-0.6774452,-0.6612851,-0.64611006,-0.62487113,-0.6066795,-0.6066795,-0.6299192,-0.66328585,-0.6875721,-0.693636,-0.68957293,-0.6885879,-0.69665253,-0.7097961,-0.731035,-0.7573221,-0.78868794,-0.8109119,-0.814975,-0.80383223,-0.79272026,-0.79373604,-0.8008157,-0.80284727,-0.79776835,-0.79068875,-0.79068875,-0.7957676,-0.7957676,-0.79068875,-0.8008157,-0.8331666,-0.8645017,-0.84631014,-0.7138592,-0.43883032,-0.05662173,0.36098504,0.68252397,0.8008157,0.6896038,0.3801924,-0.02325505,-0.40749514,-0.70881104,-0.89586765,-0.97472876,-0.962601,-0.8988842,-0.8291343,-0.7897037,-0.79068875,-0.80992687,-0.82103884,-0.8190073,-0.80992687,-0.804848,-0.8018315,-0.7957676,-0.7866564,-0.7795768,-0.78059256,-0.7846249,-0.7795768,-0.7684648,-0.7573221,-0.7543055,-0.7543055,-0.75125813,-0.74116194,-0.731035,-0.72801846,-0.72801846,-0.7209388,-0.71081185,-0.70173144,-0.6986841,-0.69665253,-0.6875721,-0.6723971,-0.65722203,-0.6521739,-0.6501424,-0.6400462,-0.62385535,-0.60464793,-0.593536,-0.5854405,-0.57128125,-0.55207384,-0.5298192,-0.51467484,-0.49848408,-0.47622937,-0.4489265,-0.424671,-0.4115275,-0.40140057,-0.38727206,-0.36704886,-0.34882647,-0.34377837,-0.3478107,-0.35390532,-0.3640015,-0.38320893,-0.4226395,-0.47321278,-0.5237553,-0.57026553,-0.6157599,-0.6663332,-0.714875,-0.75125813,-0.77554446,-0.7947518,-0.81799155,-0.8392305,-0.85135823,-0.85338974,-0.852374,-0.8574221,-0.8645017,-0.8655175,-0.8594536,-0.852374,-0.852374,-0.8574221,-0.8554213,-0.8473259,-0.84227777,-0.84631014,-0.8544055,-0.8564371,-0.85034245,-0.84227777,-0.84329355,-0.8473259,-0.8473259,-0.8392305,-0.83113503,-0.83011925,-0.8341824,-0.83519816,-0.8291343,-0.82405543,-0.8250712,-0.83011925,-0.8281185,-0.8169758,-0.8068796,-0.8058638,-0.80992687,-0.8119277,-0.8058638,-0.7997999,-0.79878414,-0.8018315,-0.7997999,-0.79170454,-0.7836091,-0.7856406,-0.79272026,-0.7957676,-0.79170454,-0.78767216,-0.79068875,-0.7967526,-0.79776835,-0.79068875,-0.7856406,-0.78767216,-0.7947518,-0.79776835,-0.7947518,-0.79170454,-0.7947518,-0.79878414,-0.7967526,-0.78767216,-0.778561,-0.778561,-0.7836091,-0.7846249,-0.78059256,-0.77554446,-0.778561,-0.7846249,-0.7856406,-0.7795768,-0.7745287,-0.77554446,-0.78059256,-0.7795768,-0.7694806,-0.75833786,-0.75125813,-0.74824166,-0.74116194,-0.7270027,-0.7128434,-0.70373225,-0.6986841,-0.6825241,-0.65722203,-0.63093495,-0.6188072,-0.62385535,-0.6420777,-0.6602694,-0.67846096,-0.6916045,-0.6976683,-0.6946518,-0.6885879,-0.6926203,-0.71890724,-0.7543055,-0.7856406,-0.7997999,-0.8008157,-0.8018315,-0.804848,-0.804848,-0.7997999,-0.79272026,-0.79373604,-0.79776835,-0.7967526,-0.79068875,-0.7836091,-0.7846249,-0.79373604,-0.8169758,-0.84227777,-0.852374,-0.804848,-0.6339823,-0.32758754,0.06874955,0.43581378,0.63903046,0.6188073,0.41051173,0.07582915,-0.2800923,-0.59858406,-0.83621395,-0.96561754,-0.988888,-0.9423778,-0.87764525,-0.83011925,-0.8089111,-0.8058638,-0.80789536,-0.814975,-0.82103884,-0.81799155,-0.8058638,-0.79272026,-0.78868794,-0.79068875,-0.79068875,-0.7846249,-0.7745287,-0.7724971,-0.7735129,-0.77148134,-0.76036936,-0.74824166,-0.7451943,-0.74824166,-0.7502424,-0.74417853,-0.73709893,-0.73306656,-0.731035,-0.7249712,-0.71081185,-0.69665253,-0.6926203,-0.6916045,-0.6885879,-0.6744286,-0.65722203,-0.6450943,-0.6369989,-0.62487113,-0.60566366,-0.5844248,-0.57026553,-0.56118506,-0.5480416,-0.52680266,-0.4994998,-0.4772451,-0.46108502,-0.4448942,-0.424671,-0.40343207,-0.3902886,-0.38117737,-0.37311274,-0.36298573,-0.35895342,-0.37209696,-0.3973682,-0.4317507,-0.4671489,-0.50657946,-0.56016934,-0.6188072,-0.6734128,-0.714875,-0.74824166,-0.78059256,-0.8109119,-0.8341824,-0.8473259,-0.8554213,-0.8665333,-0.87866104,-0.8837399,-0.87866104,-0.8715814,-0.8715814,-0.8746287,-0.8756445,-0.8705656,-0.8655175,-0.86856484,-0.8756445,-0.8796768,-0.8746287,-0.86754906,-0.86754906,-0.8715814,-0.8715814,-0.8645017,-0.8554213,-0.8564371,-0.86250097,-0.8665333,-0.8614852,-0.85135823,-0.8483417,-0.852374,-0.85338974,-0.8483417,-0.84126204,-0.84024626,-0.84227777,-0.84329355,-0.83519816,-0.8230704,-0.81799155,-0.8169758,-0.8169758,-0.8109119,-0.804848,-0.8058638,-0.80992687,-0.8119277,-0.8068796,-0.8008157,-0.80284727,-0.8089111,-0.8119277,-0.8058638,-0.79878414,-0.79878414,-0.8058638,-0.8119277,-0.8089111,-0.80284727,-0.8018315,-0.8058638,-0.8089111,-0.80383223,-0.7967526,-0.7957676,-0.7997999,-0.80284727,-0.79776835,-0.78868794,-0.78767216,-0.79170454,-0.7967526,-0.7957676,-0.79068875,-0.79170454,-0.7957676,-0.79878414,-0.79373604,-0.7836091,-0.77554446,-0.77046555,-0.7644017,-0.75125813,-0.73913044,-0.73306656,-0.72903425,-0.719923,-0.69665253,-0.6693498,-0.6501424,-0.6420777,-0.64611006,-0.6552212,-0.6723971,-0.69665253,-0.71789145,-0.7259869,-0.7168757,-0.70474803,-0.7097961,-0.73408234,-0.7684648,-0.7957676,-0.814975,-0.8271027,-0.83519816,-0.83621395,-0.8291343,-0.82103884,-0.82002306,-0.82405543,-0.8271027,-0.8230704,-0.81799155,-0.8190073,-0.82608694,-0.8392305,-0.8604694,-0.8837399,-0.8907888,-0.82002306,-0.60969603,-0.25377452,0.1880877,0.58140826,0.79576755,0.77452874,0.55007315,0.18402457,-0.2184071,-0.5753444,-0.83011925,-0.9565371,-0.97472876,-0.9352982,-0.8847249,-0.852374,-0.84227777,-0.84227777,-0.85034245,-0.8584379,-0.8594536,-0.85034245,-0.8371989,-0.83113503,-0.83113503,-0.8331666,-0.82608694,-0.814975,-0.8089111,-0.8089111,-0.8089111,-0.8018315,-0.79272026,-0.78767216,-0.78767216,-0.78767216,-0.7795768,-0.7684648,-0.7633859,-0.7624009,-0.76138514,-0.7522739,-0.7381147,-0.72903425,-0.7259869,-0.7219546,-0.70881104,-0.693636,-0.6845248,-0.6804925,-0.6764294,-0.6612851,-0.6410619,-0.62283957,-0.6107118,-0.59858406,-0.57734513,-0.5530896,-0.53388226,-0.5217545,-0.5106118,-0.49038863,-0.4671489,-0.44590998,-0.43276644,-0.42365527,-0.41051173,-0.40140057,-0.40343207,-0.41657555,-0.43679875,-0.46006924,-0.49140435,-0.5368988,-0.59455174,-0.6521739,-0.6976683,-0.7350981,-0.77046555,-0.8058638,-0.8341824,-0.85034245,-0.8614852,-0.8746287,-0.88980377,-0.9029473,-0.9029473,-0.8978684,-0.89586765,-0.8988842,-0.90091574,-0.89485186,-0.8877722,-0.8857407,-0.8907888,-0.89586765,-0.8918045,-0.8837399,-0.8806926,-0.8827241,-0.8867564,-0.8817084,-0.8746287,-0.8705656,-0.87259716,-0.8756445,-0.8715814,-0.8645017,-0.8614852,-0.86351675,-0.8645017,-0.8584379,-0.8493575,-0.8473259,-0.852374,-0.8574221,-0.85338974,-0.84529436,-0.84126204,-0.84227777,-0.8442786,-0.8392305,-0.83113503,-0.8281185,-0.83113503,-0.83621395,-0.8331666,-0.82608694,-0.82405543,-0.82608694,-0.8291343,-0.82405543,-0.8190073,-0.82002306,-0.82608694,-0.83113503,-0.82608694,-0.81599075,-0.80992687,-0.81294346,-0.81799155,-0.8169758,-0.8119277,-0.80992687,-0.81395924,-0.8190073,-0.81599075,-0.80789536,-0.80383223,-0.804848,-0.80789536,-0.8058638,-0.7997999,-0.79878414,-0.80383223,-0.80992687,-0.8089111,-0.80284727,-0.79878414,-0.8008157,-0.80383223,-0.8018315,-0.79776835,-0.79776835,-0.8018315,-0.804848,-0.79878414,-0.78868794,-0.78262407,-0.778561,-0.7724971,-0.7573221,-0.73913044,-0.7300192,-0.7300192,-0.72801846,-0.71589077,-0.6926203,-0.6703656,-0.65420544,-0.6440785,-0.6359831,-0.6390304,-0.65722203,-0.68655634,-0.71182764,-0.7168757,-0.70881104,-0.70173144,-0.71081185,-0.73306656,-0.76036936,-0.7866564,-0.8109119,-0.8291343,-0.83621395,-0.8281185,-0.81395924,-0.8068796,-0.80992687,-0.8169758,-0.8169758,-0.8119277,-0.8089111,-0.80992687,-0.8119277,-0.814975,-0.8341824,-0.86754906,-0.8918045,-0.84227777,-0.6440785,-0.29625243,0.15268946,0.58544064,0.86046934,0.9029473,0.714875,0.34377837,-0.095036626,-0.49445176,-0.78160834,-0.9352982,-0.973713,-0.9443786,-0.8968834,-0.8594536,-0.84529436,-0.852374,-0.8695806,-0.8806926,-0.8766602,-0.86351675,-0.85338974,-0.8493575,-0.8493575,-0.8442786,-0.8331666,-0.8271027,-0.8271027,-0.8281185,-0.82103884,-0.80992687,-0.8008157,-0.8008157,-0.80284727,-0.7967526,-0.7846249,-0.7745287,-0.77148134,-0.77148134,-0.76541746,-0.7543055,-0.74417853,-0.7401462,-0.73913044,-0.7300192,-0.7168757,-0.70677954,-0.70373225,-0.70173144,-0.6916045,-0.6744286,-0.6582378,-0.64712584,-0.6349981,-0.61477494,-0.5904886,-0.56924975,-0.5551212,-0.5419469,-0.5217545,-0.49645245,-0.47422856,-0.46006924,-0.4489265,-0.43476725,-0.41860718,-0.409496,-0.41254324,-0.424671,-0.43679875,-0.45400542,-0.4822932,-0.5278184,-0.5814082,-0.63093495,-0.6744286,-0.714875,-0.75532126,-0.7897037,-0.81294346,-0.8291343,-0.8483417,-0.86754906,-0.8857407,-0.8877722,-0.8837399,-0.8817084,-0.8867564,-0.8918045,-0.88980377,-0.8847249,-0.8837399,-0.8837399,-0.8837399,-0.8766602,-0.8665333,-0.8655175,-0.87361294,-0.8796768,-0.87361294,-0.86351675,-0.8564371,-0.8574221,-0.8614852,-0.8574221,-0.85034245,-0.84631014,-0.8493575,-0.8554213,-0.852374,-0.84227777,-0.83621395,-0.8392305,-0.84529436,-0.84329355,-0.83519816,-0.8271027,-0.82608694,-0.83113503,-0.83011925,-0.82405543,-0.81799155,-0.81799155,-0.82103884,-0.81799155,-0.8109119,-0.8068796,-0.80992687,-0.814975,-0.81294346,-0.8058638,-0.8008157,-0.804848,-0.8109119,-0.80789536,-0.7997999,-0.79272026,-0.7947518,-0.8008157,-0.80284727,-0.79878414,-0.79373604,-0.7947518,-0.79776835,-0.7947518,-0.7897037,-0.78767216,-0.79272026,-0.79878414,-0.7957676,-0.78767216,-0.78262407,-0.7846249,-0.78868794,-0.78868794,-0.78262407,-0.7795768,-0.78262407,-0.78767216,-0.7866564,-0.7795768,-0.7745287,-0.7745287,-0.77652943,-0.77148134,-0.7624009,-0.75633705,-0.75833786,-0.7633859,-0.7624009,-0.75633705,-0.7522739,-0.75633705,-0.7633859,-0.76036936,-0.7451943,-0.72903425,-0.71789145,-0.71081185,-0.7027472,-0.6885879,-0.6734128,-0.66328585,-0.6501424,-0.6289342,-0.60566366,-0.59252024,-0.60363215,-0.63093495,-0.65620625,-0.6703656,-0.6723971,-0.6723971,-0.67544436,-0.67947674,-0.6926203,-0.7168757,-0.75125813,-0.78160834,-0.79068875,-0.7836091,-0.77148134,-0.767449,-0.77046555,-0.77046555,-0.7644017,-0.7593536,-0.7633859,-0.77046555,-0.77046555,-0.7644017,-0.7624009,-0.7836091,-0.82103884,-0.84227777,-0.7997999,-0.6329665,-0.32860327,0.078876495,0.5005156,0.7897036,0.8503734,0.67947674,0.32961905,-0.07582915,-0.4448942,-0.72801846,-0.9019315,-0.9615852,-0.93225086,-0.86250097,-0.80284727,-0.78262407,-0.79170454,-0.80383223,-0.8058638,-0.79878414,-0.7947518,-0.79170454,-0.7856406,-0.7775452,-0.77046555,-0.77046555,-0.77148134,-0.767449,-0.75833786,-0.75125813,-0.75125813,-0.7532897,-0.74824166,-0.7361139,-0.7249712,-0.7239554,-0.72903425,-0.72903425,-0.71890724,-0.70677954,-0.6996999,-0.69665253,-0.6905887,-0.67846096,-0.667349,-0.6612851,-0.65620625,-0.6440785,-0.6279184,-0.6107118,-0.60363215,-0.59858406,-0.5844248,-0.56217,-0.5389304,-0.5247711,-0.51467484,-0.49746823,-0.4711812,-0.4438784,-0.42365527,-0.40848017,-0.39232016,-0.3751135,-0.3599692,-0.35489035,-0.35489035,-0.35187382,-0.3478107,-0.35187382,-0.3751135,-0.41355908,-0.46006924,-0.5075953,-0.5561062,-0.60871106,-0.6602694,-0.70071566,-0.7300192,-0.75532126,-0.78262407,-0.80789536,-0.8220546,-0.82608694,-0.82608694,-0.8321508,-0.8392305,-0.84126204,-0.83621395,-0.83011925,-0.8331666,-0.84024626,-0.84126204,-0.83519816,-0.8281185,-0.8291343,-0.8341824,-0.8341824,-0.8281185,-0.8190073,-0.8190073,-0.8230704,-0.8230704,-0.8190073,-0.81294346,-0.8119277,-0.81294346,-0.8089111,-0.79776835,-0.78868794,-0.78767216,-0.79170454,-0.79170454,-0.7836091,-0.77554446,-0.7735129,-0.77652943,-0.7745287,-0.7684648,-0.7633859,-0.7644017,-0.7684648,-0.76643324,-0.75833786,-0.7522739,-0.75633705,-0.7644017,-0.767449,-0.7633859,-0.7573221,-0.7573221,-0.76036936,-0.76036936,-0.75532126,-0.75125813,-0.7543055,-0.76036936,-0.76138514,-0.75633705,-0.7502424,-0.7522739,-0.7593536,-0.7624009,-0.75833786,-0.7502424,-0.7502424,-0.7532897,-0.7522739,-0.74824166,-0.74417853,-0.7462101,-0.7522739,-0.7532897,-0.7451943,-0.73709893,-0.73709893,-0.74316275,-0.74417853,-0.7361139,-0.7219546,-0.71182764,-0.70576376,-0.6996999,-0.6885879,-0.67846096,-0.6734128,-0.66328585,-0.6420777,-0.61375916,-0.593536,-0.5975683,-0.62083876,-0.6481416,-0.6663332,-0.6713813,-0.6744286,-0.6764294,-0.67544436,-0.67846096,-0.6946518,-0.7259869,-0.76138514,-0.78160834,-0.78262407,-0.7735129,-0.7684648,-0.77148134,-0.7735129,-0.77148134,-0.7694806,-0.77148134,-0.7745287,-0.7724971,-0.7633859,-0.7532897,-0.7573221,-0.78262407,-0.81294346,-0.8250712,-0.7735129,-0.60566366,-0.30838013,0.074813366,0.43175066,0.6339823,0.61074257,0.3963524,0.059669137,-0.28615624,-0.58645636,-0.80992687,-0.936314,-0.9615852,-0.9120277,-0.8371989,-0.7836091,-0.76643324,-0.7724971,-0.778561,-0.78059256,-0.78059256,-0.78059256,-0.77652943,-0.7684648,-0.7593536,-0.7573221,-0.75833786,-0.75532126,-0.7451943,-0.73408234,-0.7300192,-0.7320508,-0.7300192,-0.7219546,-0.71182764,-0.70779526,-0.70779526,-0.70474803,-0.69566756,-0.68350905,-0.67947674,-0.67947674,-0.67544436,-0.66430163,-0.6501424,-0.6420777,-0.6390304,-0.6329665,-0.6177915,-0.6006156,-0.5894729,-0.5803925,-0.5682647,-0.5480416,-0.5257869,-0.509596,-0.49848408,-0.48432475,-0.46207005,-0.43781453,-0.42063868,-0.40749514,-0.3913043,-0.3700654,-0.34882647,-0.3377145,-0.3366987,-0.3377145,-0.3366987,-0.3427626,-0.36298573,-0.39838398,-0.4398461,-0.4822932,-0.52880335,-0.5854405,-0.6440785,-0.6946518,-0.731035,-0.7573221,-0.7846249,-0.8109119,-0.8321508,-0.84024626,-0.84329355,-0.85034245,-0.8584379,-0.8604694,-0.85338974,-0.84529436,-0.84631014,-0.85338974,-0.8574221,-0.8554213,-0.8493575,-0.85034245,-0.8564371,-0.8604694,-0.8574221,-0.852374,-0.852374,-0.8564371,-0.8584379,-0.852374,-0.84529436,-0.8442786,-0.84631014,-0.84631014,-0.8382147,-0.83113503,-0.83113503,-0.8371989,-0.84126204,-0.8331666,-0.8230704,-0.8190073,-0.82103884,-0.8220546,-0.81599075,-0.8058638,-0.80383223,-0.8068796,-0.80992687,-0.804848,-0.79776835,-0.7957676,-0.79878414,-0.7997999,-0.79373604,-0.7866564,-0.7856406,-0.79068875,-0.79373604,-0.7897037,-0.7836091,-0.7856406,-0.79272026,-0.7967526,-0.79272026,-0.7866564,-0.78868794,-0.7967526,-0.8018315,-0.79878414,-0.79272026,-0.79272026,-0.7967526,-0.79776835,-0.79170454,-0.7836091,-0.7836091,-0.7856406,-0.78160834,-0.76643324,-0.74824166,-0.7401462,-0.74116194,-0.7381147,-0.7239554,-0.7027472,-0.6825241,-0.66836476,-0.65722203,-0.64611006,-0.64611006,-0.66430163,-0.6905887,-0.7138592,-0.7209388,-0.714875,-0.71182764,-0.71890724,-0.7350981,-0.7543055,-0.7775452,-0.804848,-0.8281185,-0.84024626,-0.83621395,-0.82608694,-0.82103884,-0.8230704,-0.8250712,-0.82002306,-0.81395924,-0.814975,-0.82103884,-0.8250712,-0.8220546,-0.8281185,-0.8584379,-0.8918045,-0.8918045,-0.78160834,-0.52880335,-0.16380137,0.24367833,0.5662333,0.7027471,0.6198231,0.34580994,-0.031350493,-0.40546364,-0.70373225,-0.89586765,-0.9818084,-0.98079264,-0.9312351,-0.8705656,-0.8331666,-0.83011925,-0.84631014,-0.8604694,-0.8604694,-0.852374,-0.8442786,-0.84227777,-0.8392305,-0.8291343,-0.81799155,-0.81395924,-0.814975,-0.814975,-0.80789536,-0.8008157,-0.8008157,-0.80383223,-0.804848,-0.7947518,-0.78059256,-0.7745287,-0.7745287,-0.7745287,-0.76541746,-0.7522739,-0.7462101,-0.74417853,-0.7421777,-0.7320508,-0.71890724,-0.70881104,-0.70373225,-0.69566756,-0.67947674,-0.6582378,-0.6440785,-0.6349981,-0.62487113,-0.6066795,-0.5844248,-0.56623316,-0.5530896,-0.5379146,-0.51565987,-0.48937285,-0.47016543,-0.45905352,-0.4489265,-0.43378222,-0.4175914,-0.40848017,-0.409496,-0.41657555,-0.424671,-0.44286263,-0.47622937,-0.5237553,-0.57632935,-0.62083876,-0.6612851,-0.7027472,-0.7451943,-0.78262407,-0.8089111,-0.8281185,-0.8473259,-0.8665333,-0.8796768,-0.8827241,-0.8806926,-0.8827241,-0.888788,-0.89485186,-0.8907888,-0.8827241,-0.8796768,-0.8827241,-0.8857407,-0.8806926,-0.87259716,-0.8705656,-0.8756445,-0.8796768,-0.8766602,-0.8695806,-0.86754906,-0.8715814,-0.8766602,-0.87361294,-0.8645017,-0.8584379,-0.8584379,-0.8584379,-0.85338974,-0.8483417,-0.8483417,-0.8554213,-0.8604694,-0.8544055,-0.8442786,-0.8392305,-0.84227777,-0.84631014,-0.84227777,-0.83519816,-0.83113503,-0.8331666,-0.83621395,-0.83011925,-0.8220546,-0.82002306,-0.8230704,-0.8271027,-0.8230704,-0.81599075,-0.814975,-0.82002306,-0.82608694,-0.82405543,-0.8169758,-0.8169758,-0.8230704,-0.8281185,-0.82405543,-0.814975,-0.8109119,-0.81395924,-0.81799155,-0.814975,-0.8089111,-0.80789536,-0.81395924,-0.82103884,-0.8190073,-0.81294346,-0.8089111,-0.8089111,-0.8109119,-0.80383223,-0.7957676,-0.79272026,-0.79373604,-0.79068875,-0.77554446,-0.7573221,-0.7472259,-0.74925745,-0.75125813,-0.74116194,-0.719923,-0.6976683,-0.6825241,-0.6713813,-0.6592536,-0.6521739,-0.6602694,-0.68350905,-0.71081185,-0.7219546,-0.71890724,-0.714875,-0.719923,-0.7361139,-0.75532126,-0.7795768,-0.8058638,-0.8321508,-0.8493575,-0.8493575,-0.8392305,-0.8321508,-0.8331666,-0.8371989,-0.8341824,-0.8271027,-0.8230704,-0.8250712,-0.8271027,-0.82103884,-0.82103884,-0.84529436,-0.8867564,-0.91101193,-0.8442786,-0.63195074,-0.2820931,0.15370524,0.5611851,0.80891097,0.82510185,0.6157907,0.2386303,-0.18402463,-0.55207384,-0.81395924,-0.95247406,-0.98584074,-0.9514583,-0.8938361,-0.852374,-0.84329355,-0.8564371,-0.8695806,-0.86856484,-0.8584379,-0.8483417,-0.84529436,-0.84529436,-0.8392305,-0.83011925,-0.82608694,-0.8271027,-0.8271027,-0.82002306,-0.80789536,-0.80284727,-0.80284727,-0.80383223,-0.7967526,-0.7846249,-0.778561,-0.7795768,-0.78059256,-0.7735129,-0.76138514,-0.7522739,-0.7502424,-0.7472259,-0.7361139,-0.719923,-0.70779526,-0.7027472,-0.70173144,-0.6916045,-0.6764294,-0.6612851,-0.65115815,-0.6410619,-0.62385535,-0.6016314,-0.5814082,-0.56724894,-0.5541054,-0.5328665,-0.5085802,-0.48635632,-0.472197,-0.46006924,-0.44286263,-0.424671,-0.41254324,-0.41254324,-0.41860718,-0.4226395,-0.4317507,-0.45400542,-0.49343592,-0.5429627,-0.58848786,-0.6299192,-0.6723971,-0.71789145,-0.7593536,-0.7897037,-0.80992687,-0.8271027,-0.8483417,-0.8655175,-0.8715814,-0.87259716,-0.87259716,-0.87866104,-0.8847249,-0.8837399,-0.87764525,-0.8746287,-0.87764525,-0.8817084,-0.8766602,-0.8665333,-0.8604694,-0.8614852,-0.8655175,-0.8604694,-0.85135823,-0.84529436,-0.8473259,-0.85338974,-0.85034245,-0.84329355,-0.8371989,-0.8392305,-0.84529436,-0.84529436,-0.84126204,-0.8392305,-0.84126204,-0.84329355,-0.8371989,-0.82608694,-0.82002306,-0.82002306,-0.82405543,-0.82103884,-0.81395924,-0.80992687,-0.81395924,-0.8190073,-0.8169758,-0.80992687,-0.804848,-0.8068796,-0.8109119,-0.80789536,-0.8008157,-0.79776835,-0.8008157,-0.804848,-0.8018315,-0.79373604,-0.7897037,-0.79272026,-0.79878414,-0.79776835,-0.79272026,-0.79170454,-0.7957676,-0.8018315,-0.7997999,-0.79272026,-0.78868794,-0.79068875,-0.79373604,-0.79170454,-0.7856406,-0.78262407,-0.7866564,-0.79373604,-0.79373604,-0.78868794,-0.7856406,-0.78767216,-0.79170454,-0.78868794,-0.78160834,-0.77652943,-0.778561,-0.78160834,-0.77554446,-0.7644017,-0.7522739,-0.7451943,-0.7401462,-0.73306656,-0.7239554,-0.71589077,-0.71081185,-0.70173144,-0.67846096,-0.64915735,-0.6269027,-0.619823,-0.6279184,-0.6440785,-0.6623009,-0.6804925,-0.69566756,-0.7027472,-0.6976683,-0.6916045,-0.6976683,-0.7239554,-0.7624009,-0.79068875,-0.80789536,-0.81395924,-0.81599075,-0.81599075,-0.80789536,-0.79878414,-0.79373604,-0.79878414,-0.8058638,-0.804848,-0.79878414,-0.79373604,-0.79878414,-0.82002306,-0.852374,-0.8796768,-0.8746287,-0.7745287,-0.52880335,-0.14459401,0.3174913,0.70982695,0.90396297,0.8523741,0.59150434,0.19415164,-0.22548676,-0.5894729,-0.84329355,-0.9585379,-0.9615852,-0.9079954,-0.85338974,-0.8271027,-0.82405543,-0.8291343,-0.8331666,-0.8392305,-0.84329355,-0.8392305,-0.83113503,-0.8220546,-0.82002306,-0.81799155,-0.8109119,-0.79878414,-0.78868794,-0.78767216,-0.79068875,-0.78767216,-0.77554446,-0.76541746,-0.76036936,-0.76138514,-0.75833786,-0.7502424,-0.74316275,-0.74316275,-0.74417853,-0.73709893,-0.7239554,-0.7097961,-0.70173144,-0.6976683,-0.6875721,-0.6734128,-0.6612851,-0.6552212,-0.6501424,-0.6380146,-0.6188072,-0.59858406,-0.5854405,-0.57432854,-0.5561062,-0.5328665,-0.509596,-0.49445176,-0.48130822,-0.46207005,-0.4398461,-0.42063868,-0.4115275,-0.40749514,-0.3973682,-0.38625628,-0.38117737,-0.39333588,-0.4175914,-0.44590998,-0.4772451,-0.51769143,-0.56924975,-0.62487113,-0.6703656,-0.70677954,-0.73709893,-0.7684648,-0.79878414,-0.81799155,-0.82608694,-0.8321508,-0.84329355,-0.8554213,-0.8604694,-0.8554213,-0.85034245,-0.8493575,-0.85135823,-0.85135823,-0.84631014,-0.84329355,-0.84631014,-0.85034245,-0.84529436,-0.83519816,-0.82608694,-0.8271027,-0.8341824,-0.83621395,-0.83011925,-0.8250712,-0.82608694,-0.83113503,-0.83011925,-0.82405543,-0.81799155,-0.81799155,-0.82103884,-0.8190073,-0.80992687,-0.80284727,-0.804848,-0.80992687,-0.80789536,-0.7997999,-0.79170454,-0.79068875,-0.7957676,-0.7967526,-0.79068875,-0.7856406,-0.78868794,-0.79373604,-0.79272026,-0.7866564,-0.7795768,-0.78059256,-0.7836091,-0.78059256,-0.7735129,-0.767449,-0.77148134,-0.7795768,-0.78160834,-0.7745287,-0.767449,-0.7684648,-0.7745287,-0.7745287,-0.76643324,-0.75833786,-0.75833786,-0.7644017,-0.767449,-0.7633859,-0.75833786,-0.7593536,-0.7644017,-0.76541746,-0.76036936,-0.75532126,-0.7573221,-0.76036936,-0.75833786,-0.7522739,-0.7472259,-0.75125813,-0.7593536,-0.7624009,-0.75532126,-0.7451943,-0.7381147,-0.7300192,-0.71589077,-0.70173144,-0.68957293,-0.6845248,-0.6815083,-0.66836476,-0.6430627,-0.6167757,-0.6016314,-0.5975683,-0.60464793,-0.6188072,-0.6400462,-0.6653174,-0.6825241,-0.6815083,-0.6703656,-0.6653174,-0.6815083,-0.7138592,-0.7462101,-0.7694806,-0.78262407,-0.79068875,-0.79373604,-0.78767216,-0.77652943,-0.7684648,-0.7724971,-0.7795768,-0.7795768,-0.77046555,-0.75833786,-0.7543055,-0.7573221,-0.7684648,-0.79272026,-0.8230704,-0.83621395,-0.7644017,-0.5480416,-0.1951366,0.22853398,0.58242416,0.74824166,0.6896038,0.4438784,0.078876495,-0.29929972,-0.62385535,-0.84529436,-0.9453944,-0.94742596,-0.8978684,-0.8371989,-0.7947518,-0.77554446,-0.77652943,-0.78868794,-0.79776835,-0.7967526,-0.7846249,-0.7724971,-0.77148134,-0.7735129,-0.77148134,-0.76138514,-0.7502424,-0.74824166,-0.7502424,-0.7502424,-0.7421777,-0.7320508,-0.72801846,-0.7270027,-0.7209388,-0.70881104,-0.69566756,-0.6916045,-0.68957293,-0.6825241,-0.667349,-0.65115815,-0.64611006,-0.64611006,-0.6420777,-0.6289342,-0.6127434,-0.6026164,-0.5955676,-0.5854405,-0.56623316,-0.5429627,-0.5247711,-0.51162755,-0.49445176,-0.47321278,-0.45298964,-0.4438784,-0.43578303,-0.424671,-0.4024163,-0.37412852,-0.35590613,-0.34479415,-0.3366987,-0.3296191,-0.324571,-0.33063483,-0.34682566,-0.36603308,-0.38927275,-0.4226395,-0.4711812,-0.5278184,-0.5814082,-0.6279184,-0.6703656,-0.71182764,-0.74925745,-0.7735129,-0.78262407,-0.79068875,-0.804848,-0.82002306,-0.83113503,-0.83113503,-0.8281185,-0.83011925,-0.83519816,-0.83519816,-0.8281185,-0.8220546,-0.8220546,-0.82608694,-0.8291343,-0.82608694,-0.8230704,-0.8230704,-0.8271027,-0.8271027,-0.82103884,-0.8169758,-0.8190073,-0.82405543,-0.8220546,-0.81395924,-0.80383223,-0.80383223,-0.80992687,-0.8119277,-0.80383223,-0.79272026,-0.78767216,-0.78767216,-0.7866564,-0.78059256,-0.77148134,-0.7694806,-0.77148134,-0.77148134,-0.7633859,-0.75633705,-0.75532126,-0.7593536,-0.7593536,-0.7532897,-0.7472259,-0.74925745,-0.75633705,-0.7593536,-0.75633705,-0.75125813,-0.7543055,-0.7624009,-0.76541746,-0.76036936,-0.7543055,-0.75633705,-0.7633859,-0.7684648,-0.76541746,-0.76036936,-0.76036936,-0.76541746,-0.76541746,-0.76138514,-0.75633705,-0.75833786,-0.7644017,-0.767449,-0.76138514,-0.7543055,-0.7532897,-0.75532126,-0.7522739,-0.73913044,-0.7239554,-0.71789145,-0.71890724,-0.71789145,-0.70677954,-0.68957293,-0.6723971,-0.65722203,-0.6400462,-0.62283957,-0.61477494,-0.6289342,-0.65722203,-0.68350905,-0.69566756,-0.6946518,-0.6905887,-0.6916045,-0.6986841,-0.7128434,-0.7350981,-0.76643324,-0.7947518,-0.80789536,-0.80383223,-0.79373604,-0.7897037,-0.79373604,-0.79776835,-0.7947518,-0.7897037,-0.79068875,-0.79776835,-0.8018315,-0.7957676,-0.78767216,-0.79776835,-0.83113503,-0.8614852,-0.8483417,-0.73306656,-0.48737204,-0.13954598,0.2457099,0.5399462,0.64309347,0.52985,0.24367833,-0.118306994,-0.4549904,-0.7229396,-0.8988842,-0.97676027,-0.96561754,-0.9039323,-0.83519816,-0.7997999,-0.7997999,-0.8119277,-0.8169758,-0.81395924,-0.8109119,-0.80992687,-0.8058638,-0.7947518,-0.78262407,-0.7795768,-0.78160834,-0.78160834,-0.7745287,-0.7644017,-0.7624009,-0.76541746,-0.76541746,-0.75532126,-0.74316275,-0.7381147,-0.7381147,-0.7381147,-0.72801846,-0.714875,-0.70677954,-0.70373225,-0.6996999,-0.6875721,-0.6723971,-0.66430163,-0.6612851,-0.6552212,-0.6420777,-0.6258869,-0.61477494,-0.6076952,-0.5975683,-0.5793767,-0.5561062,-0.5389304,-0.5257869,-0.5106118,-0.48737204,-0.46108502,-0.44184685,-0.42870337,-0.41657555,-0.39838398,-0.37917662,-0.36904967,-0.3680339,-0.3700654,-0.37209696,-0.38117737,-0.40848017,-0.4519738,-0.5035322,-0.5500423,-0.5955676,-0.6450943,-0.69665253,-0.74116194,-0.77148134,-0.7947518,-0.81799155,-0.84329355,-0.86250097,-0.86856484,-0.86856484,-0.87259716,-0.8796768,-0.8847249,-0.8817084,-0.8756445,-0.8756445,-0.8806926,-0.8847249,-0.8796768,-0.87259716,-0.8715814,-0.8756445,-0.8796768,-0.8756445,-0.8695806,-0.8705656,-0.87764525,-0.8817084,-0.8746287,-0.86351675,-0.8604694,-0.86351675,-0.86856484,-0.8655175,-0.8584379,-0.8554213,-0.8564371,-0.8574221,-0.85034245,-0.8392305,-0.83519816,-0.8371989,-0.8382147,-0.8321508,-0.8230704,-0.82002306,-0.82405543,-0.8291343,-0.8250712,-0.81799155,-0.8169758,-0.82103884,-0.8250712,-0.82103884,-0.8119277,-0.8089111,-0.81395924,-0.82002306,-0.81799155,-0.814975,-0.81395924,-0.8190073,-0.8230704,-0.8169758,-0.8089111,-0.8068796,-0.8119277,-0.81799155,-0.81599075,-0.8109119,-0.8109119,-0.81599075,-0.8190073,-0.81395924,-0.8058638,-0.80383223,-0.8068796,-0.8068796,-0.7947518,-0.7775452,-0.76643324,-0.76541746,-0.76541746,-0.75532126,-0.7381147,-0.719923,-0.70474803,-0.6916045,-0.6723971,-0.6582378,-0.6602694,-0.6815083,-0.71081185,-0.7300192,-0.7361139,-0.7350981,-0.7350981,-0.7381147,-0.7462101,-0.7624009,-0.79068875,-0.8230704,-0.84529436,-0.8483417,-0.84126204,-0.83519816,-0.8371989,-0.84024626,-0.8382147,-0.8341824,-0.8331666,-0.8371989,-0.8382147,-0.83011925,-0.82002306,-0.8291343,-0.86351675,-0.90091574,-0.9019315,-0.7997999,-0.557122,-0.19212008,0.24167752,0.6168065,0.8078953,0.7573528,0.49445176,0.10313201,-0.29625243,-0.6289342,-0.8584379,-0.9726972,-0.98584074,-0.936314,-0.8756445,-0.8442786,-0.84631014,-0.8604694,-0.8645017,-0.8584379,-0.852374,-0.85135823,-0.85034245,-0.84329355,-0.8321508,-0.82608694,-0.82608694,-0.8271027,-0.82103884,-0.8109119,-0.80383223,-0.80383223,-0.80383223,-0.7947518,-0.78262407,-0.77554446,-0.77554446,-0.77652943,-0.7694806,-0.7573221,-0.7502424,-0.74925745,-0.74925745,-0.7401462,-0.7259869,-0.714875,-0.7097961,-0.70373225,-0.6885879,-0.6703656,-0.65620625,-0.6481416,-0.6400462,-0.62283957,-0.59959984,-0.5814082,-0.5682647,-0.5561062,-0.53388226,-0.5085802,-0.48635632,-0.4711812,-0.45905352,-0.44086188,-0.4216237,-0.41051173,-0.40848017,-0.41254324,-0.41355908,-0.42063868,-0.44086188,-0.47826087,-0.5257869,-0.5753444,-0.6177915,-0.66328585,-0.71081185,-0.74925745,-0.7775452,-0.7967526,-0.8169758,-0.84024626,-0.8614852,-0.8715814,-0.8756445,-0.87866104,-0.8857407,-0.8918045,-0.888788,-0.8817084,-0.87866104,-0.8827241,-0.8867564,-0.8827241,-0.87361294,-0.86856484,-0.8695806,-0.87259716,-0.86856484,-0.8604694,-0.8564371,-0.8584379,-0.8614852,-0.8584379,-0.852374,-0.8493575,-0.852374,-0.8564371,-0.852374,-0.84529436,-0.84329355,-0.8483417,-0.8544055,-0.85135823,-0.8442786,-0.84024626,-0.84329355,-0.8483417,-0.84329355,-0.8341824,-0.8281185,-0.83011925,-0.8321508,-0.8271027,-0.81799155,-0.8119277,-0.81395924,-0.8190073,-0.8169758,-0.80992687,-0.80789536,-0.81395924,-0.82103884,-0.82002306,-0.81395924,-0.80992687,-0.8119277,-0.814975,-0.8109119,-0.80383223,-0.8018315,-0.8068796,-0.81294346,-0.8109119,-0.80284727,-0.79878414,-0.8018315,-0.8068796,-0.8058638,-0.7997999,-0.79776835,-0.8008157,-0.8058638,-0.8018315,-0.79272026,-0.7866564,-0.78868794,-0.79272026,-0.78868794,-0.78059256,-0.7775452,-0.778561,-0.778561,-0.7684648,-0.75125813,-0.7381147,-0.7361139,-0.73408234,-0.7209388,-0.70071566,-0.67846096,-0.6653174,-0.65722203,-0.6450943,-0.6380146,-0.6450943,-0.6693498,-0.6986841,-0.714875,-0.714875,-0.70779526,-0.7097961,-0.7219546,-0.7401462,-0.7633859,-0.79068875,-0.81599075,-0.8331666,-0.8331666,-0.8220546,-0.81395924,-0.81395924,-0.8190073,-0.8169758,-0.80992687,-0.804848,-0.8068796,-0.8109119,-0.80992687,-0.80992687,-0.8321508,-0.8705656,-0.89586765,-0.84329355,-0.64915735,-0.31142747,0.12437093,0.55613697,0.84529436,0.9059639,0.73306656,0.37006545,-0.061669886,-0.45400542,-0.7451943,-0.91101193,-0.96460176,-0.9423778,-0.8857407,-0.84126204,-0.8281185,-0.84024626,-0.8564371,-0.8594536,-0.85034245,-0.84024626,-0.8371989,-0.8382147,-0.8321508,-0.82103884,-0.8119277,-0.80789536,-0.80789536,-0.8008157,-0.79170454,-0.7856406,-0.7856406,-0.7866564,-0.78059256,-0.7694806,-0.76036936,-0.7593536,-0.76036936,-0.7543055,-0.74316275,-0.73306656,-0.7300192,-0.7270027,-0.7168757,-0.70173144,-0.6885879,-0.68350905,-0.6804925,-0.6693498,-0.6521739,-0.6369989,-0.6279184,-0.6188072,-0.6016314,-0.57734513,-0.5551212,-0.5419469,-0.5308349,-0.51162755,-0.48737204,-0.46308583,-0.44794148,-0.43578303,-0.41860718,-0.39939976,-0.3842247,-0.3801924,-0.38524044,-0.3913043,-0.40343207,-0.4277184,-0.46816468,-0.51769143,-0.5652174,-0.60871106,-0.65115815,-0.6986841,-0.7421777,-0.77148134,-0.79170454,-0.8068796,-0.8250712,-0.84227777,-0.8483417,-0.84631014,-0.8442786,-0.8493575,-0.8564371,-0.8564371,-0.85034245,-0.8442786,-0.84631014,-0.85135823,-0.85034245,-0.84329355,-0.8371989,-0.8382147,-0.84126204,-0.8392305,-0.8331666,-0.8291343,-0.8321508,-0.8382147,-0.8341824,-0.82608694,-0.82002306,-0.8220546,-0.8291343,-0.8271027,-0.82103884,-0.81599075,-0.81799155,-0.8230704,-0.82103884,-0.81294346,-0.8058638,-0.8068796,-0.81294346,-0.8119277,-0.8058638,-0.7997999,-0.7997999,-0.80284727,-0.79878414,-0.7897037,-0.78262407,-0.78160834,-0.7856406,-0.7836091,-0.7775452,-0.7735129,-0.77652943,-0.78262407,-0.78262407,-0.7775452,-0.7724971,-0.7745287,-0.7795768,-0.778561,-0.77148134,-0.7644017,-0.76541746,-0.7694806,-0.767449,-0.76138514,-0.7573221,-0.76138514,-0.76643324,-0.7644017,-0.75833786,-0.75125813,-0.7532897,-0.75633705,-0.75532126,-0.74824166,-0.74417853,-0.74925745,-0.7573221,-0.7573221,-0.7502424,-0.7451943,-0.7462101,-0.7502424,-0.74925745,-0.74316275,-0.7381147,-0.7421777,-0.7472259,-0.74417853,-0.731035,-0.7168757,-0.70881104,-0.70576376,-0.6976683,-0.68350905,-0.66836476,-0.6592536,-0.6450943,-0.62283957,-0.59858406,-0.5823932,-0.5904886,-0.6157599,-0.6420777,-0.6592536,-0.6653174,-0.66836476,-0.6703656,-0.6713813,-0.67947674,-0.6996999,-0.73408234,-0.7694806,-0.78868794,-0.79068875,-0.7846249,-0.78160834,-0.78262407,-0.7795768,-0.7724971,-0.767449,-0.77046555,-0.77652943,-0.77554446,-0.7684648,-0.76036936,-0.767449,-0.7957676,-0.8271027,-0.8341824,-0.77046555,-0.5803925,-0.2578376,0.1587534,0.55207396,0.7836399,0.7795769,0.56321657,0.20323205,-0.18199301,-0.5227395,-0.77554446,-0.91710657,-0.94742596,-0.9019315,-0.8331666,-0.7866564,-0.7735129,-0.77652943,-0.7795768,-0.778561,-0.78059256,-0.78160834,-0.7775452,-0.767449,-0.76036936,-0.7593536,-0.7593536,-0.7532897,-0.74116194,-0.7320508,-0.7300192,-0.7320508,-0.7270027,-0.7138592,-0.7027472,-0.70071566,-0.7027472,-0.6986841,-0.6875721,-0.67544436,-0.6713813,-0.6723971,-0.667349,-0.65420544,-0.6410619,-0.6329665,-0.6269027,-0.61477494,-0.5975683,-0.5814082,-0.57432854,-0.57026553,-0.56016934,-0.5419469,-0.5227395,-0.5085802,-0.49543673,-0.47622937,-0.4499423,-0.42365527,-0.40848017,-0.39939976,-0.38625628,-0.36603308,-0.34580994,-0.33568293,-0.3326664,-0.3296191,-0.32758754,-0.3316506,-0.35390532,-0.38825703,-0.4277184,-0.46816468,-0.5136591,-0.56724894,-0.62283957,-0.667349,-0.70071566,-0.7270027,-0.75633705,-0.7836091,-0.8008157,-0.80992687,-0.81599075,-0.8271027,-0.83621395,-0.83621395,-0.83011925,-0.82405543,-0.8281185,-0.83519816,-0.83519816,-0.8291343,-0.8220546,-0.8230704,-0.8291343,-0.83011925,-0.82608694,-0.8220546,-0.8250712,-0.83011925,-0.8291343,-0.82103884,-0.81599075,-0.81799155,-0.8250712,-0.82405543,-0.814975,-0.80383223,-0.80383223,-0.8068796,-0.8068796,-0.79878414,-0.7897037,-0.78767216,-0.79068875,-0.7897037,-0.78160834,-0.7724971,-0.7724971,-0.77652943,-0.7745287,-0.76541746,-0.75633705,-0.75532126,-0.7624009,-0.76643324,-0.7624009,-0.7573221,-0.7593536,-0.76541746,-0.76643324,-0.7593536,-0.7522739,-0.7532897,-0.76036936,-0.7624009,-0.75833786,-0.7532897,-0.7573221,-0.76541746,-0.767449,-0.76036936,-0.7532897,-0.7543055,-0.76036936,-0.7633859,-0.7573221,-0.74925745,-0.74824166,-0.7522739,-0.7543055,-0.75125813,-0.74824166,-0.75125813,-0.7573221,-0.7573221,-0.7502424,-0.74116194,-0.7361139,-0.73306656,-0.7259869,-0.7128434,-0.70173144,-0.69566756,-0.6905887,-0.6774452,-0.6521739,-0.6258869,-0.6127434,-0.6117276,-0.619823,-0.6329665,-0.6521739,-0.6764294,-0.693636,-0.6946518,-0.68350905,-0.6764294,-0.6885879,-0.719923,-0.75125813,-0.7735129,-0.78160834,-0.7856406,-0.7866564,-0.7836091,-0.77652943,-0.7694806,-0.77148134,-0.7775452,-0.78059256,-0.77554446,-0.7684648,-0.767449,-0.77046555,-0.7745287,-0.78868794,-0.81395924,-0.83519816,-0.80383223,-0.6501424,-0.35590613,0.02731824,0.39130437,0.6076952,0.61779165,0.44086194,0.12538671,-0.23053479,-0.5541054,-0.79373604,-0.9251712,-0.95552135,-0.92215466,-0.86351675,-0.80992687,-0.7775452,-0.77046555,-0.778561,-0.7897037,-0.79373604,-0.7866564,-0.77652943,-0.77554446,-0.7775452,-0.77652943,-0.767449,-0.75633705,-0.7532897,-0.7543055,-0.7522739,-0.7451943,-0.7350981,-0.7320508,-0.7320508,-0.7270027,-0.7168757,-0.70576376,-0.7027472,-0.7027472,-0.6986841,-0.68655634,-0.6723971,-0.667349,-0.667349,-0.66430163,-0.6521739,-0.6380146,-0.6299192,-0.62487113,-0.6167757,-0.5975683,-0.57632935,-0.56217,-0.55207384,-0.5389304,-0.51972294,-0.49543673,-0.4772451,-0.46006924,-0.44184685,-0.41860718,-0.39635247,-0.3842247,-0.37714505,-0.36904967,-0.35489035,-0.34377837,-0.34580994,-0.35895342,-0.38219315,-0.409496,-0.44590998,-0.49645245,-0.5530896,-0.60566366,-0.6481416,-0.6845248,-0.7229396,-0.76138514,-0.79170454,-0.8089111,-0.82002306,-0.83621395,-0.85338974,-0.86351675,-0.8614852,-0.8544055,-0.85338974,-0.8584379,-0.8614852,-0.8564371,-0.8483417,-0.8483417,-0.852374,-0.8554213,-0.85135823,-0.84529436,-0.8473259,-0.85338974,-0.8564371,-0.85338974,-0.8473259,-0.8473259,-0.852374,-0.85338974,-0.8473259,-0.8382147,-0.8371989,-0.84024626,-0.84126204,-0.8341824,-0.8250712,-0.82405543,-0.8271027,-0.8271027,-0.8190073,-0.80992687,-0.80789536,-0.8119277,-0.8119277,-0.804848,-0.7957676,-0.79373604,-0.79776835,-0.7997999,-0.79373604,-0.7856406,-0.7866564,-0.79272026,-0.7957676,-0.79170454,-0.7836091,-0.78262407,-0.78868794,-0.79272026,-0.78767216,-0.78059256,-0.7795768,-0.78262407,-0.7856406,-0.78160834,-0.7775452,-0.7795768,-0.7856406,-0.7897037,-0.7856406,-0.7795768,-0.7795768,-0.7856406,-0.78868794,-0.7856406,-0.78059256,-0.78160834,-0.78868794,-0.79272026,-0.78767216,-0.778561,-0.77652943,-0.7775452,-0.77554446,-0.7633859,-0.7472259,-0.7381147,-0.73408234,-0.72801846,-0.7128434,-0.693636,-0.6764294,-0.6623009,-0.64915735,-0.6349981,-0.63093495,-0.64611006,-0.6723971,-0.69665253,-0.70373225,-0.6976683,-0.6946518,-0.6986841,-0.7128434,-0.731035,-0.7543055,-0.78160834,-0.80789536,-0.82103884,-0.82002306,-0.8109119,-0.8089111,-0.81294346,-0.81599075,-0.8119277,-0.80383223,-0.8008157,-0.8018315,-0.80383223,-0.7997999,-0.80383223,-0.8331666,-0.8715814,-0.888788,-0.81799155,-0.6076952,-0.26894957,0.15167367,0.54499424,0.7836399,0.79576755,0.58848786,0.22447097,-0.17796075,-0.5298192,-0.7836091,-0.926187,-0.96561754,-0.9352982,-0.8756445,-0.83113503,-0.8230704,-0.8392305,-0.8544055,-0.8544055,-0.8442786,-0.8371989,-0.83519816,-0.8331666,-0.82405543,-0.81395924,-0.80992687,-0.8119277,-0.81395924,-0.8068796,-0.7957676,-0.7897037,-0.78868794,-0.78767216,-0.7795768,-0.7684648,-0.7633859,-0.7644017,-0.7644017,-0.75633705,-0.7451943,-0.73913044,-0.73709893,-0.73408234,-0.7229396,-0.70779526,-0.6986841,-0.693636,-0.68655634,-0.6723971,-0.65420544,-0.6410619,-0.63195074,-0.62185454,-0.6026164,-0.5803925,-0.5631858,-0.5500423,-0.535883,-0.5136591,-0.48937285,-0.4711812,-0.45803767,-0.4448942,-0.424671,-0.40444785,-0.39333588,-0.39232016,-0.39635247,-0.40041554,-0.4115275,-0.4398461,-0.48432475,-0.53489804,-0.5814082,-0.62385535,-0.6693498,-0.714875,-0.75532126,-0.78160834,-0.7997999,-0.82002306,-0.84126204,-0.8574221,-0.8614852,-0.8594536,-0.8604694,-0.86754906,-0.87259716,-0.86856484,-0.8594536,-0.8554213,-0.8584379,-0.8614852,-0.8574221,-0.85034245,-0.8483417,-0.85034245,-0.852374,-0.84631014,-0.8392305,-0.8382147,-0.84227777,-0.84529436,-0.84024626,-0.8341824,-0.83519816,-0.84126204,-0.8442786,-0.8382147,-0.8291343,-0.82608694,-0.83011925,-0.83621395,-0.8331666,-0.82608694,-0.82405543,-0.8271027,-0.83011925,-0.82405543,-0.81599075,-0.81395924,-0.8169758,-0.8190073,-0.81395924,-0.8068796,-0.8058638,-0.80992687,-0.8119277,-0.804848,-0.7957676,-0.79373604,-0.7997999,-0.8058638,-0.80284727,-0.7947518,-0.79170454,-0.7957676,-0.7997999,-0.7957676,-0.78868794,-0.7856406,-0.79068875,-0.7967526,-0.7947518,-0.7897037,-0.7897037,-0.79373604,-0.7967526,-0.79272026,-0.7836091,-0.7795768,-0.7836091,-0.78868794,-0.7866564,-0.78059256,-0.77652943,-0.778561,-0.78262407,-0.7795768,-0.7745287,-0.77652943,-0.78262407,-0.7866564,-0.78262407,-0.7745287,-0.7724971,-0.77554446,-0.7795768,-0.77554446,-0.7684648,-0.767449,-0.7724971,-0.77652943,-0.77046555,-0.76138514,-0.7593536,-0.76541746,-0.7735129,-0.7735129,-0.76643324,-0.7593536,-0.7522739,-0.74417853,-0.72903425,-0.714875,-0.70677954,-0.70474803,-0.6986841,-0.67846096,-0.65115815,-0.6299192,-0.62185454,-0.6289342,-0.6430627,-0.6612851,-0.6815083,-0.69665253,-0.70173144,-0.6946518,-0.6885879,-0.6976683,-0.7259869,-0.7624009,-0.79068875,-0.80789536,-0.81799155,-0.82103884,-0.82002306,-0.80992687,-0.79878414,-0.7957676,-0.8008157,-0.8068796,-0.804848,-0.79776835,-0.79373604,-0.79776835,-0.81599075,-0.84529436,-0.8715814,-0.86856484,-0.7644017,-0.5085802,-0.11122739,0.3569219,0.7431936,0.92520213,0.862501,0.59556735,0.19615233,-0.22548676,-0.5904886,-0.84024626,-0.9494575,-0.9494575,-0.8988842,-0.85338974,-0.83519816,-0.83519816,-0.84024626,-0.84529436,-0.8483417,-0.8473259,-0.8382147,-0.82608694,-0.82002306,-0.82103884,-0.8220546,-0.814975,-0.804848,-0.7997999,-0.8018315,-0.80383223,-0.7967526,-0.7846249,-0.7775452,-0.77554446,-0.7745287,-0.76643324,-0.75633705,-0.7502424,-0.7502424,-0.7502424,-0.7421777,-0.72801846,-0.71789145,-0.7138592,-0.70881104,-0.69665253,-0.6804925,-0.6693498,-0.66430163,-0.6602694,-0.64611006,-0.6258869,-0.6076952,-0.59455174,-0.5834091,-0.5652174,-0.54096186,-0.51972294,-0.5035322,-0.48835707,-0.4671489,-0.4448942,-0.42870337,-0.41962296,-0.41254324,-0.40140057,-0.3913043,-0.39232016,-0.40647942,-0.4297191,-0.4519738,-0.48029244,-0.51870716,-0.57026553,-0.6258869,-0.6713813,-0.70779526,-0.74116194,-0.7745287,-0.80383223,-0.8190073,-0.8271027,-0.8371989,-0.85034245,-0.8614852,-0.86351675,-0.8594536,-0.8574221,-0.8614852,-0.86754906,-0.8655175,-0.8594536,-0.8544055,-0.8554213,-0.8574221,-0.85338974,-0.84631014,-0.8442786,-0.8473259,-0.85135823,-0.8473259,-0.8392305,-0.83621395,-0.84024626,-0.84631014,-0.8442786,-0.8371989,-0.83519816,-0.8382147,-0.84329355,-0.8392305,-0.83113503,-0.8271027,-0.83011925,-0.8321508,-0.8271027,-0.81799155,-0.8119277,-0.81395924,-0.8169758,-0.81294346,-0.804848,-0.8018315,-0.8058638,-0.8119277,-0.80992687,-0.80284727,-0.79878414,-0.8008157,-0.80284727,-0.79878414,-0.79170454,-0.78868794,-0.79170454,-0.7957676,-0.79170454,-0.7846249,-0.78059256,-0.7846249,-0.79068875,-0.78767216,-0.78059256,-0.77652943,-0.78059256,-0.7866564,-0.7856406,-0.7795768,-0.77652943,-0.7795768,-0.7836091,-0.7775452,-0.767449,-0.76138514,-0.7633859,-0.7684648,-0.76643324,-0.7593536,-0.75532126,-0.7593536,-0.76541746,-0.7644017,-0.7593536,-0.75833786,-0.7644017,-0.77046555,-0.7684648,-0.7593536,-0.7532897,-0.75532126,-0.76036936,-0.75633705,-0.74824166,-0.74316275,-0.74417853,-0.74925745,-0.74824166,-0.7421777,-0.7381147,-0.7421777,-0.7462101,-0.74316275,-0.7350981,-0.72903425,-0.7259869,-0.7209388,-0.70677954,-0.68957293,-0.6764294,-0.6723971,-0.6693498,-0.65620625,-0.63195074,-0.6076952,-0.5894729,-0.5844248,-0.59252024,-0.6107118,-0.6359831,-0.6602694,-0.6723971,-0.667349,-0.65620625,-0.65722203,-0.67947674,-0.714875,-0.7451943,-0.76541746,-0.7745287,-0.778561,-0.778561,-0.7724971,-0.7644017,-0.76036936,-0.7633859,-0.76643324,-0.76138514,-0.75125813,-0.7462101,-0.74925745,-0.7573221,-0.7745287,-0.8018315,-0.8250712,-0.804848,-0.6663332,-0.37311274,0.04046166,0.4853406,0.80586374,0.9069797,0.7805927,0.46511734,0.055606008,-0.34882647,-0.6723971,-0.8705656,-0.9393305,-0.91609085,-0.8584379,-0.80789536,-0.78160834,-0.77554446,-0.78262407,-0.7947518,-0.8018315,-0.7957676,-0.7836091,-0.7724971,-0.77046555,-0.77148134,-0.767449,-0.75833786,-0.7522739,-0.7532897,-0.7573221,-0.7532897,-0.7451943,-0.73709893,-0.73408234,-0.73408234,-0.7270027,-0.71589077,-0.70677954,-0.70474803,-0.70677954,-0.70071566,-0.6875721,-0.6764294,-0.6713813,-0.66836476,-0.6592536,-0.6450943,-0.63195074,-0.6269027,-0.62487113,-0.6127434,-0.593536,-0.5733128,-0.5591535,-0.5470258,-0.5308349,-0.5075953,-0.48635632,-0.472197,-0.45905352,-0.44086188,-0.41657555,-0.39333588,-0.37917662,-0.36904967,-0.35793763,-0.34580994,-0.3417468,-0.3498422,-0.36603308,-0.3842247,-0.40647942,-0.44184685,-0.49242014,-0.54902655,-0.5975683,-0.6369989,-0.6723971,-0.71081185,-0.7462101,-0.7694806,-0.78262407,-0.79170454,-0.80789536,-0.82405543,-0.83113503,-0.8291343,-0.8271027,-0.83011925,-0.83621395,-0.83519816,-0.83011925,-0.8271027,-0.8321508,-0.8392305,-0.8382147,-0.83011925,-0.8220546,-0.8230704,-0.8271027,-0.8250712,-0.81799155,-0.81395924,-0.8190073,-0.8271027,-0.8271027,-0.8190073,-0.80992687,-0.8089111,-0.8109119,-0.80789536,-0.8008157,-0.7947518,-0.7947518,-0.7967526,-0.79170454,-0.78059256,-0.77148134,-0.7724971,-0.7775452,-0.7775452,-0.7724971,-0.7684648,-0.7694806,-0.77148134,-0.7684648,-0.75833786,-0.7502424,-0.7502424,-0.7543055,-0.7532897,-0.74925745,-0.7472259,-0.7532897,-0.76036936,-0.76036936,-0.75532126,-0.7522739,-0.75633705,-0.76138514,-0.7593536,-0.75125813,-0.7451943,-0.7462101,-0.75125813,-0.74925745,-0.74316275,-0.73709893,-0.74116194,-0.74824166,-0.74925745,-0.74417853,-0.7381147,-0.7421777,-0.74925745,-0.7522739,-0.74824166,-0.74417853,-0.7451943,-0.7472259,-0.7462101,-0.73913044,-0.7350981,-0.7381147,-0.74316275,-0.74116194,-0.7320508,-0.7229396,-0.71890724,-0.71589077,-0.70779526,-0.6946518,-0.68350905,-0.67947674,-0.6764294,-0.6653174,-0.6420777,-0.6167757,-0.5965525,-0.5854405,-0.5854405,-0.5965525,-0.619823,-0.65115815,-0.6713813,-0.6703656,-0.6592536,-0.6521739,-0.667349,-0.6996999,-0.73408234,-0.7593536,-0.7735129,-0.7836091,-0.78868794,-0.7846249,-0.7745287,-0.77046555,-0.77554446,-0.7846249,-0.7866564,-0.7795768,-0.77148134,-0.7724971,-0.7775452,-0.78160834,-0.7947518,-0.82103884,-0.8442786,-0.81599075,-0.6653174,-0.37108117,0.016175508,0.39333594,0.62791836,0.65522134,0.48635626,0.16684878,-0.19919962,-0.5318507,-0.78160834,-0.92012316,-0.9575221,-0.926187,-0.8655175,-0.8068796,-0.7724971,-0.7644017,-0.7745287,-0.7846249,-0.7836091,-0.7735129,-0.7624009,-0.76138514,-0.7644017,-0.7633859,-0.75532126,-0.7462101,-0.74417853,-0.74417853,-0.7401462,-0.731035,-0.7219546,-0.7209388,-0.7229396,-0.7168757,-0.70576376,-0.6926203,-0.6875721,-0.68655634,-0.6815083,-0.6713813,-0.6612851,-0.6582378,-0.65620625,-0.64915735,-0.6329665,-0.6167757,-0.6076952,-0.6016314,-0.5894729,-0.572297,-0.5541054,-0.5429627,-0.5318507,-0.5136591,-0.48835707,-0.46308583,-0.44590998,-0.43276644,-0.41457486,-0.3913043,-0.36904967,-0.35590613,-0.34682566,-0.3346672,-0.3205387,-0.31142747,-0.3154598,-0.3296191,-0.34580994,-0.36704886,-0.39939976,-0.4499423,-0.5075953,-0.56217,-0.6066795,-0.64712584,-0.6905887,-0.73306656,-0.7644017,-0.78262407,-0.7947518,-0.80992687,-0.8250712,-0.8321508,-0.83011925,-0.8271027,-0.83113503,-0.8392305,-0.84126204,-0.83621395,-0.83011925,-0.83011925,-0.83519816,-0.8371989,-0.8331666,-0.8291343,-0.8341824,-0.84227777,-0.84329355,-0.8371989,-0.83011925,-0.83011925,-0.8341824,-0.8341824,-0.82608694,-0.81799155,-0.81799155,-0.82103884,-0.8190073,-0.8109119,-0.80383223,-0.8058638,-0.8109119,-0.8109119,-0.8018315,-0.79068875,-0.78767216,-0.78868794,-0.78767216,-0.78059256,-0.7724971,-0.7735129,-0.778561,-0.78059256,-0.7745287,-0.7684648,-0.7694806,-0.7745287,-0.7775452,-0.7735129,-0.7684648,-0.77046555,-0.7775452,-0.778561,-0.7735129,-0.767449,-0.7694806,-0.7745287,-0.77554446,-0.7694806,-0.7633859,-0.76643324,-0.7735129,-0.77652943,-0.7724971,-0.76541746,-0.76541746,-0.77148134,-0.7724971,-0.7694806,-0.76541746,-0.7684648,-0.7745287,-0.7745287,-0.7624009,-0.74417853,-0.73306656,-0.7270027,-0.7209388,-0.7097961,-0.69665253,-0.6885879,-0.67846096,-0.6592536,-0.6359831,-0.6177915,-0.6188072,-0.6380146,-0.6623009,-0.6804925,-0.6916045,-0.6986841,-0.70173144,-0.6996999,-0.6976683,-0.7097961,-0.7401462,-0.77554446,-0.8008157,-0.8058638,-0.7997999,-0.79776835,-0.7997999,-0.8008157,-0.7967526,-0.79170454,-0.79373604,-0.79878414,-0.79878414,-0.79272026,-0.7846249,-0.7866564,-0.8068796,-0.8371989,-0.8564371,-0.83113503,-0.70677954,-0.45298964,-0.093005,0.3003155,0.58442485,0.6653173,0.53489804,0.24367833,-0.11021155,-0.44590998,-0.719923,-0.8978684,-0.96561754,-0.9433936,-0.87764525,-0.82002306,-0.7967526,-0.79878414,-0.8058638,-0.80992687,-0.8119277,-0.81294346,-0.8089111,-0.79776835,-0.78868794,-0.7856406,-0.7866564,-0.7856406,-0.77554446,-0.76643324,-0.76643324,-0.77046555,-0.7724971,-0.767449,-0.7593536,-0.75633705,-0.75633705,-0.75125813,-0.73913044,-0.7270027,-0.7229396,-0.7209388,-0.714875,-0.7027472,-0.6905887,-0.68655634,-0.6845248,-0.67846096,-0.66328585,-0.64712584,-0.6400462,-0.6369989,-0.6289342,-0.60969603,-0.58645636,-0.57128125,-0.5591535,-0.54397845,-0.5217545,-0.49543673,-0.47422856,-0.45803767,-0.4398461,-0.4175914,-0.39635247,-0.38727206,-0.3842247,-0.3801924,-0.37412852,-0.37209696,-0.38727206,-0.41657555,-0.45298964,-0.49242014,-0.5368988,-0.59150445,-0.6501424,-0.70071566,-0.7381147,-0.76643324,-0.7957676,-0.8230704,-0.84329355,-0.85135823,-0.8554213,-0.8655175,-0.87764525,-0.8857407,-0.8817084,-0.87361294,-0.87361294,-0.87764525,-0.87866104,-0.87259716,-0.86351675,-0.8604694,-0.86351675,-0.8665333,-0.86351675,-0.8604694,-0.8645017,-0.8715814,-0.8746287,-0.8715814,-0.8665333,-0.86754906,-0.8715814,-0.87259716,-0.86351675,-0.85338974,-0.85034245,-0.85338974,-0.85338974,-0.8473259,-0.8382147,-0.83621395,-0.8392305,-0.8392305,-0.83113503,-0.8220546,-0.8190073,-0.82103884,-0.82103884,-0.814975,-0.8058638,-0.8058638,-0.80992687,-0.8119277,-0.80789536,-0.8018315,-0.80284727,-0.8068796,-0.8089111,-0.8018315,-0.79373604,-0.7947518,-0.80284727,-0.80789536,-0.80383223,-0.79776835,-0.7957676,-0.7997999,-0.80383223,-0.8008157,-0.7947518,-0.7957676,-0.7997999,-0.8018315,-0.79776835,-0.79373604,-0.7967526,-0.80383223,-0.8068796,-0.7997999,-0.79068875,-0.78767216,-0.79170454,-0.79373604,-0.78868794,-0.78160834,-0.78059256,-0.7856406,-0.78767216,-0.78160834,-0.7735129,-0.7724971,-0.7745287,-0.7735129,-0.76036936,-0.74316275,-0.73306656,-0.731035,-0.72801846,-0.7168757,-0.70071566,-0.68350905,-0.6693498,-0.6552212,-0.6400462,-0.6329665,-0.64611006,-0.6713813,-0.69566756,-0.70474803,-0.70373225,-0.70173144,-0.70779526,-0.71890724,-0.7361139,-0.75833786,-0.78767216,-0.81599075,-0.83113503,-0.8271027,-0.814975,-0.8089111,-0.8109119,-0.814975,-0.8119277,-0.804848,-0.804848,-0.80789536,-0.80992687,-0.80383223,-0.8058638,-0.8331666,-0.8715814,-0.8847249,-0.79878414,-0.56623316,-0.2072643,0.22447097,0.6076952,0.82002306,0.8008157,0.5652175,0.1810081,-0.22850323,-0.57632935,-0.8190073,-0.9433936,-0.9666333,-0.92821854,-0.8705656,-0.8321508,-0.8291343,-0.84529436,-0.8594536,-0.8584379,-0.8493575,-0.8442786,-0.8442786,-0.84529436,-0.8382147,-0.8281185,-0.8220546,-0.82103884,-0.8190073,-0.8109119,-0.7997999,-0.7967526,-0.79776835,-0.79878414,-0.79170454,-0.78059256,-0.7745287,-0.7735129,-0.7724971,-0.7633859,-0.7522739,-0.7472259,-0.7451943,-0.74116194,-0.7270027,-0.71182764,-0.70173144,-0.6976683,-0.6926203,-0.67846096,-0.6612851,-0.6481416,-0.6400462,-0.6299192,-0.60969603,-0.5874721,-0.56924975,-0.5561062,-0.53994614,-0.5166757,-0.48937285,-0.4711812,-0.45905352,-0.44794148,-0.4317507,-0.41355908,-0.40444785,-0.4024163,-0.40546364,-0.40848017,-0.41860718,-0.4448942,-0.48534054,-0.53388226,-0.5783609,-0.62185454,-0.6693498,-0.7168757,-0.7573221,-0.7836091,-0.8008157,-0.8190073,-0.8392305,-0.8544055,-0.8594536,-0.8604694,-0.8645017,-0.8715814,-0.87764525,-0.87259716,-0.8645017,-0.86351675,-0.86754906,-0.8705656,-0.8655175,-0.8554213,-0.852374,-0.8564371,-0.8604694,-0.8564371,-0.8483417,-0.8442786,-0.84631014,-0.85034245,-0.8473259,-0.84227777,-0.84126204,-0.8442786,-0.84631014,-0.8392305,-0.83011925,-0.8281185,-0.8321508,-0.8371989,-0.8331666,-0.8250712,-0.8230704,-0.8271027,-0.83113503,-0.8250712,-0.8169758,-0.81294346,-0.81599075,-0.82002306,-0.81599075,-0.8089111,-0.8068796,-0.80992687,-0.8109119,-0.8058638,-0.7967526,-0.7957676,-0.8008157,-0.8068796,-0.80383223,-0.7967526,-0.7947518,-0.79776835,-0.8008157,-0.7957676,-0.78767216,-0.7846249,-0.78868794,-0.79272026,-0.78868794,-0.78262407,-0.78262407,-0.78767216,-0.79068875,-0.7856406,-0.77652943,-0.7745287,-0.7795768,-0.7836091,-0.778561,-0.7694806,-0.76643324,-0.7694806,-0.7745287,-0.7724971,-0.76643324,-0.7644017,-0.7694806,-0.7735129,-0.77046555,-0.7633859,-0.76138514,-0.7644017,-0.767449,-0.76036936,-0.7522739,-0.75125813,-0.75833786,-0.76643324,-0.76643324,-0.76138514,-0.76138514,-0.76541746,-0.77046555,-0.767449,-0.76036936,-0.75532126,-0.7522739,-0.7451943,-0.72801846,-0.71081185,-0.70071566,-0.6996999,-0.69665253,-0.68350905,-0.6592536,-0.6380146,-0.62385535,-0.6167757,-0.6177915,-0.6299192,-0.65318966,-0.6804925,-0.6986841,-0.69566756,-0.68655634,-0.6845248,-0.6996999,-0.72903425,-0.75532126,-0.778561,-0.79776835,-0.8109119,-0.814975,-0.8068796,-0.79373604,-0.7866564,-0.79068875,-0.7957676,-0.79272026,-0.7866564,-0.7836091,-0.78767216,-0.79373604,-0.8068796,-0.8331666,-0.8655175,-0.8655175,-0.7573221,-0.49038863,-0.087956905,0.37412858,0.7462102,0.9191073,0.85745287,0.5905194,0.18605626,-0.23863024,-0.6006156,-0.8392305,-0.941362,-0.9423778,-0.89485186,-0.8483417,-0.82103884,-0.8190073,-0.8291343,-0.84227777,-0.8473259,-0.84024626,-0.8271027,-0.82002306,-0.82103884,-0.8220546,-0.81599075,-0.8058638,-0.8008157,-0.7997999,-0.79878414,-0.7897037,-0.77652943,-0.7694806,-0.7694806,-0.7694806,-0.7633859,-0.7522739,-0.7472259,-0.74824166,-0.7472259,-0.73709893,-0.7219546,-0.71182764,-0.71081185,-0.71081185,-0.7027472,-0.68957293,-0.67846096,-0.6723971,-0.6653174,-0.6481416,-0.6269027,-0.6107118,-0.6026164,-0.5965525,-0.5803925,-0.5581378,-0.535883,-0.51870716,-0.5025163,-0.4792766,-0.45298964,-0.43276644,-0.4216237,-0.41254324,-0.3973682,-0.38219315,-0.37311274,-0.37816083,-0.39232016,-0.40647942,-0.4277184,-0.46108502,-0.5075953,-0.56016934,-0.60566366,-0.6450943,-0.68554056,-0.7270027,-0.76541746,-0.7897037,-0.8058638,-0.82002306,-0.83621395,-0.85135823,-0.8544055,-0.852374,-0.85135823,-0.8554213,-0.8614852,-0.8594536,-0.85338974,-0.85034245,-0.8544055,-0.8584379,-0.85338974,-0.84529436,-0.8392305,-0.84126204,-0.84631014,-0.84329355,-0.8371989,-0.83519816,-0.8392305,-0.84529436,-0.84126204,-0.8331666,-0.82608694,-0.8271027,-0.8291343,-0.8250712,-0.8190073,-0.814975,-0.81799155,-0.8220546,-0.81799155,-0.8089111,-0.80383223,-0.8068796,-0.8119277,-0.80992687,-0.8008157,-0.79373604,-0.7947518,-0.79776835,-0.7947518,-0.7897037,-0.78767216,-0.79068875,-0.7947518,-0.79068875,-0.7846249,-0.78262407,-0.78868794,-0.7957676,-0.79373604,-0.7866564,-0.78262407,-0.7866564,-0.79272026,-0.79170454,-0.7856406,-0.78160834,-0.7846249,-0.7897037,-0.7856406,-0.778561,-0.7735129,-0.77652943,-0.78160834,-0.7795768,-0.77148134,-0.7684648,-0.77148134,-0.7775452,-0.77554446,-0.7684648,-0.7644017,-0.76541746,-0.7684648,-0.7644017,-0.75633705,-0.7532897,-0.75633705,-0.7624009,-0.76036936,-0.7543055,-0.7522739,-0.75833786,-0.76643324,-0.76541746,-0.7573221,-0.7522739,-0.7543055,-0.75833786,-0.7573221,-0.7522739,-0.74925745,-0.7522739,-0.75833786,-0.75532126,-0.7472259,-0.7361139,-0.72801846,-0.7219546,-0.7097961,-0.69566756,-0.68655634,-0.68350905,-0.67846096,-0.6582378,-0.6289342,-0.6026164,-0.5894729,-0.59455174,-0.60871106,-0.6279184,-0.64915735,-0.6663332,-0.6744286,-0.66836476,-0.6592536,-0.66328585,-0.6875721,-0.7239554,-0.7543055,-0.77148134,-0.7795768,-0.7846249,-0.7846249,-0.7775452,-0.7694806,-0.7644017,-0.7684648,-0.7735129,-0.77046555,-0.7644017,-0.7593536,-0.7633859,-0.7775452,-0.80284727,-0.83113503,-0.84024626,-0.77148134,-0.56217,-0.20526356,0.24672568,0.6602694,0.893836,0.8867564,0.6663331,0.29425168,-0.1203078,-0.49543673,-0.7724971,-0.9180916,-0.941362,-0.89485186,-0.8341824,-0.79776835,-0.7846249,-0.7866564,-0.79373604,-0.80284727,-0.8089111,-0.804848,-0.79373604,-0.7846249,-0.78160834,-0.78160834,-0.77554446,-0.76541746,-0.75633705,-0.75532126,-0.75833786,-0.7522739,-0.74116194,-0.73306656,-0.7320508,-0.7350981,-0.731035,-0.719923,-0.70779526,-0.7027472,-0.70071566,-0.6916045,-0.67846096,-0.66836476,-0.6653174,-0.66328585,-0.65420544,-0.6390304,-0.62487113,-0.6157599,-0.6076952,-0.593536,-0.57432854,-0.557122,-0.5470258,-0.5379146,-0.51972294,-0.49543673,-0.4711812,-0.45400542,-0.43883032,-0.41860718,-0.39435166,-0.37311274,-0.36098504,-0.35489035,-0.34479415,-0.3326664,-0.32758754,-0.3366987,-0.35793763,-0.38320893,-0.41355908,-0.45095807,-0.50153136,-0.557122,-0.60464793,-0.6450943,-0.6815083,-0.71890724,-0.7532897,-0.77554446,-0.78767216,-0.79776835,-0.8119277,-0.82405543,-0.8250712,-0.82002306,-0.814975,-0.8190073,-0.82405543,-0.8230704,-0.81599075,-0.8109119,-0.81294346,-0.8190073,-0.81799155,-0.8119277,-0.8068796,-0.8109119,-0.81799155,-0.81599075,-0.8089111,-0.80383223,-0.8058638,-0.80992687,-0.80789536,-0.79776835,-0.78868794,-0.79068875,-0.7967526,-0.79776835,-0.79170454,-0.78262407,-0.78059256,-0.78059256,-0.7745287,-0.76541746,-0.75833786,-0.75833786,-0.7633859,-0.7624009,-0.75833786,-0.7543055,-0.7573221,-0.76138514,-0.7573221,-0.7472259,-0.7421777,-0.7472259,-0.7573221,-0.7593536,-0.7532897,-0.7462101,-0.7462101,-0.75125813,-0.75125813,-0.74824166,-0.74417853,-0.7472259,-0.7522739,-0.74925745,-0.74116194,-0.7361139,-0.7401462,-0.74824166,-0.74925745,-0.7421777,-0.73709893,-0.7381147,-0.74316275,-0.7421777,-0.7361139,-0.7300192,-0.7320508,-0.7381147,-0.73709893,-0.731035,-0.7259869,-0.7300192,-0.7350981,-0.7350981,-0.7270027,-0.719923,-0.7219546,-0.72903425,-0.72903425,-0.719923,-0.70779526,-0.6996999,-0.6946518,-0.68554056,-0.6713813,-0.65722203,-0.65115815,-0.6450943,-0.6289342,-0.60464793,-0.5844248,-0.5803925,-0.593536,-0.6117276,-0.6289342,-0.6420777,-0.65115815,-0.65620625,-0.65420544,-0.6552212,-0.6703656,-0.70173144,-0.7361139,-0.75833786,-0.7624009,-0.7573221,-0.75633705,-0.75833786,-0.75833786,-0.7532897,-0.7472259,-0.74824166,-0.75125813,-0.74925745,-0.74316275,-0.7381147,-0.73913044,-0.7543055,-0.78262407,-0.8058638,-0.7967526,-0.6996999,-0.46511734,-0.11021155,0.29425168,0.6016315,0.703763,0.5874722,0.30234706,-0.05662173,-0.3973682,-0.6804925,-0.86856484,-0.9464102,-0.93225086,-0.86754906,-0.8058638,-0.7684648,-0.7573221,-0.75833786,-0.7624009,-0.767449,-0.77046555,-0.7644017,-0.7502424,-0.73709893,-0.73408234,-0.7361139,-0.7350981,-0.7300192,-0.7229396,-0.7209388,-0.719923,-0.7138592,-0.7027472,-0.6926203,-0.6916045,-0.6946518,-0.6926203,-0.68350905,-0.6734128,-0.6703656,-0.6703656,-0.66430163,-0.65115815,-0.6369989,-0.63093495,-0.6269027,-0.6177915,-0.6016314,-0.5834091,-0.572297,-0.5652174,-0.5530896,-0.53489804,-0.51467484,-0.5005156,-0.48737204,-0.46816468,-0.4438784,-0.41860718,-0.40140057,-0.38825703,-0.3700654,-0.34682566,-0.3255868,-0.314444,-0.3104117,-0.30333203,-0.29323584,-0.29018855,-0.3053636,-0.33568293,-0.37612927,-0.41962296,-0.4671489,-0.5247711,-0.5834091,-0.6339823,-0.6723971,-0.70576376,-0.74116194,-0.7735129,-0.7957676,-0.80789536,-0.814975,-0.8271027,-0.8392305,-0.8442786,-0.84024626,-0.83519816,-0.83621395,-0.84126204,-0.84227777,-0.8371989,-0.83113503,-0.8321508,-0.8392305,-0.84227777,-0.8382147,-0.8331666,-0.83519816,-0.84227777,-0.8442786,-0.84024626,-0.8341824,-0.83519816,-0.8382147,-0.83621395,-0.8281185,-0.8190073,-0.81799155,-0.8220546,-0.8230704,-0.8169758,-0.80992687,-0.8089111,-0.8109119,-0.8089111,-0.8008157,-0.79170454,-0.79068875,-0.7947518,-0.7947518,-0.78868794,-0.78262407,-0.78262407,-0.7856406,-0.7856406,-0.7795768,-0.7735129,-0.77652943,-0.7846249,-0.78767216,-0.7846249,-0.77652943,-0.7775452,-0.78059256,-0.78160834,-0.77652943,-0.7724971,-0.7745287,-0.78160834,-0.7836091,-0.7795768,-0.7745287,-0.77554446,-0.78059256,-0.78059256,-0.7745287,-0.767449,-0.7694806,-0.77554446,-0.77652943,-0.7694806,-0.7573221,-0.75125813,-0.7472259,-0.74116194,-0.7300192,-0.71789145,-0.71081185,-0.70474803,-0.6875721,-0.6623009,-0.6390304,-0.6289342,-0.6359831,-0.65318966,-0.6703656,-0.68655634,-0.70173144,-0.70779526,-0.70474803,-0.6976683,-0.70071566,-0.7239554,-0.76036936,-0.79170454,-0.8068796,-0.80992687,-0.8119277,-0.81395924,-0.81395924,-0.8068796,-0.8018315,-0.80284727,-0.80789536,-0.8089111,-0.8018315,-0.7947518,-0.7947518,-0.8008157,-0.81799155,-0.84126204,-0.8574221,-0.8341824,-0.70173144,-0.4277184,-0.042462528,0.36704886,0.6501732,0.7209389,0.5803925,0.2780608,-0.094020784,-0.45095807,-0.7361139,-0.9090111,-0.96561754,-0.93831474,-0.8806926,-0.8321508,-0.8109119,-0.8068796,-0.8119277,-0.8220546,-0.8291343,-0.8281185,-0.8169758,-0.80383223,-0.79776835,-0.79776835,-0.7947518,-0.7866564,-0.77652943,-0.7735129,-0.77554446,-0.7724971,-0.7633859,-0.7532897,-0.75125813,-0.7532897,-0.7522739,-0.74116194,-0.72903425,-0.7239554,-0.7239554,-0.71890724,-0.70576376,-0.68957293,-0.6825241,-0.6825241,-0.6804925,-0.6693498,-0.6552212,-0.64611006,-0.6400462,-0.63195074,-0.61375916,-0.59150445,-0.57632935,-0.5642016,-0.54902655,-0.5257869,-0.4994998,-0.48029244,-0.46511734,-0.4489265,-0.42670256,-0.40444785,-0.3913043,-0.38524044,-0.37917662,-0.36904967,-0.36098504,-0.3680339,-0.38927275,-0.41962296,-0.45298964,-0.49242014,-0.54499424,-0.6016314,-0.65318966,-0.6926203,-0.7259869,-0.76138514,-0.7967526,-0.82405543,-0.8371989,-0.8442786,-0.8544055,-0.86754906,-0.8756445,-0.87361294,-0.8695806,-0.8705656,-0.8746287,-0.8756445,-0.86856484,-0.8604694,-0.8604694,-0.8655175,-0.86856484,-0.8645017,-0.8614852,-0.8645017,-0.8705656,-0.87259716,-0.8665333,-0.8574221,-0.8564371,-0.8614852,-0.86351675,-0.8574221,-0.8493575,-0.8473259,-0.85135823,-0.85135823,-0.84227777,-0.83011925,-0.82405543,-0.8250712,-0.8271027,-0.8220546,-0.81599075,-0.81395924,-0.8169758,-0.81799155,-0.8109119,-0.80284727,-0.80284727,-0.8068796,-0.8089111,-0.8018315,-0.79272026,-0.79170454,-0.7947518,-0.79776835,-0.79373604,-0.78868794,-0.79068875,-0.79776835,-0.8018315,-0.79776835,-0.79068875,-0.7897037,-0.7947518,-0.79776835,-0.79373604,-0.78767216,-0.78868794,-0.79373604,-0.79776835,-0.7947518,-0.78868794,-0.7897037,-0.79373604,-0.7957676,-0.7897037,-0.78160834,-0.78059256,-0.7856406,-0.78868794,-0.7846249,-0.7775452,-0.778561,-0.7846249,-0.78767216,-0.7836091,-0.7775452,-0.77652943,-0.78059256,-0.7846249,-0.7795768,-0.77046555,-0.7644017,-0.76036936,-0.7522739,-0.73709893,-0.7219546,-0.71589077,-0.7128434,-0.70474803,-0.68350905,-0.6552212,-0.6349981,-0.62487113,-0.62385535,-0.63093495,-0.64712584,-0.6744286,-0.6996999,-0.71081185,-0.70173144,-0.68957293,-0.6916045,-0.7138592,-0.7472259,-0.77554446,-0.7957676,-0.8119277,-0.8220546,-0.82103884,-0.8109119,-0.7997999,-0.79776835,-0.8018315,-0.804848,-0.7997999,-0.79272026,-0.79272026,-0.79878414,-0.8058638,-0.8190073,-0.8442786,-0.8715814,-0.8594536,-0.731035,-0.44794148,-0.041446745,0.40343213,0.7401463,0.86856484,0.7684648,0.47321272,0.06674874,-0.34076178,-0.6693498,-0.8756445,-0.95552135,-0.94742596,-0.89989996,-0.85338974,-0.8271027,-0.8230704,-0.8341824,-0.8483417,-0.8544055,-0.84631014,-0.83519816,-0.8291343,-0.83113503,-0.83011925,-0.82103884,-0.8109119,-0.8058638,-0.8068796,-0.80789536,-0.79776835,-0.7836091,-0.77554446,-0.7735129,-0.7724971,-0.7644017,-0.7543055,-0.74925745,-0.74925745,-0.7472259,-0.73709893,-0.7229396,-0.7168757,-0.71589077,-0.714875,-0.70373225,-0.68655634,-0.67544436,-0.6693498,-0.66328585,-0.65115815,-0.6329665,-0.619823,-0.6107118,-0.6006156,-0.5793767,-0.5541054,-0.5328665,-0.51467484,-0.49746823,-0.47422856,-0.4499423,-0.4317507,-0.42063868,-0.41051173,-0.3953367,-0.38219315,-0.37917662,-0.38825703,-0.40444785,-0.42063868,-0.4438784,-0.4822932,-0.5328665,-0.5854405,-0.6299192,-0.6693498,-0.7097961,-0.7522739,-0.78767216,-0.80992687,-0.8230704,-0.8382147,-0.85338974,-0.8655175,-0.86754906,-0.8655175,-0.86754906,-0.8746287,-0.8796768,-0.87361294,-0.8645017,-0.86250097,-0.8665333,-0.86856484,-0.8614852,-0.852374,-0.8483417,-0.85034245,-0.85338974,-0.8483417,-0.84024626,-0.8371989,-0.84126204,-0.84529436,-0.84227777,-0.8341824,-0.83113503,-0.8341824,-0.83621395,-0.8321508,-0.8230704,-0.82002306,-0.8220546,-0.8230704,-0.81799155,-0.8089111,-0.8058638,-0.80789536,-0.8109119,-0.8068796,-0.8008157,-0.7997999,-0.8058638,-0.8089111,-0.80284727,-0.79373604,-0.79068875,-0.79373604,-0.7997999,-0.79878414,-0.79272026,-0.79170454,-0.7947518,-0.7967526,-0.79272026,-0.7856406,-0.7856406,-0.79170454,-0.79776835,-0.79373604,-0.7846249,-0.78059256,-0.7846249,-0.78868794,-0.7866564,-0.78059256,-0.7795768,-0.7846249,-0.79068875,-0.7866564,-0.7795768,-0.778561,-0.78262407,-0.78767216,-0.7846249,-0.778561,-0.77652943,-0.78059256,-0.7856406,-0.78160834,-0.77554446,-0.7745287,-0.778561,-0.78160834,-0.77652943,-0.7694806,-0.767449,-0.77046555,-0.7745287,-0.7694806,-0.76138514,-0.7593536,-0.7644017,-0.7694806,-0.76643324,-0.76036936,-0.75833786,-0.7624009,-0.767449,-0.76036936,-0.7462101,-0.73408234,-0.72801846,-0.7239554,-0.714875,-0.70173144,-0.6916045,-0.68350905,-0.6693498,-0.6440785,-0.6157599,-0.59858406,-0.60566366,-0.6289342,-0.6521739,-0.6703656,-0.67947674,-0.68350905,-0.6804925,-0.6744286,-0.67846096,-0.70071566,-0.7381147,-0.77554446,-0.7947518,-0.7967526,-0.7947518,-0.7947518,-0.7947518,-0.79068875,-0.78262407,-0.78059256,-0.7846249,-0.7897037,-0.7846249,-0.77652943,-0.77554446,-0.79373604,-0.83113503,-0.8614852,-0.8564371,-0.7532897,-0.5085802,-0.12941903,0.33266652,0.73408234,0.94136214,0.8958676,0.6329665,0.23155057,-0.19110417,-0.5581378,-0.82103884,-0.9514583,-0.96460176,-0.9130435,-0.8554213,-0.8291343,-0.83113503,-0.8382147,-0.84024626,-0.8392305,-0.84024626,-0.8392305,-0.83011925,-0.8190073,-0.8109119,-0.8109119,-0.80992687,-0.80284727,-0.79272026,-0.7856406,-0.7846249,-0.7846249,-0.77652943,-0.76541746,-0.7593536,-0.7593536,-0.76036936,-0.7522739,-0.73913044,-0.731035,-0.72903425,-0.72903425,-0.719923,-0.70576376,-0.6946518,-0.6905887,-0.6885879,-0.67846096,-0.66328585,-0.6521739,-0.6450943,-0.6390304,-0.62487113,-0.60566366,-0.5894729,-0.57734513,-0.5642016,-0.54096186,-0.5106118,-0.48432475,-0.4671489,-0.45400542,-0.43578303,-0.41555983,-0.39939976,-0.3913043,-0.38825703,-0.3801924,-0.37412852,-0.37714505,-0.3953367,-0.424671,-0.4570219,-0.49242014,-0.535883,-0.5894729,-0.6440785,-0.6875721,-0.7219546,-0.7522739,-0.7836091,-0.8109119,-0.82608694,-0.8331666,-0.8392305,-0.85034245,-0.8614852,-0.8645017,-0.8614852,-0.8604694,-0.8645017,-0.86856484,-0.8645017,-0.8574221,-0.8554213,-0.8594536,-0.86250097,-0.8574221,-0.8473259,-0.84126204,-0.84329355,-0.85034245,-0.8493575,-0.8442786,-0.84227777,-0.84529436,-0.8483417,-0.84227777,-0.83113503,-0.82405543,-0.82608694,-0.83113503,-0.8281185,-0.82002306,-0.814975,-0.81599075,-0.81799155,-0.81294346,-0.80383223,-0.7997999,-0.804848,-0.8109119,-0.8089111,-0.8018315,-0.7957676,-0.7967526,-0.79878414,-0.7947518,-0.7846249,-0.778561,-0.78059256,-0.7846249,-0.7836091,-0.7795768,-0.778561,-0.7846249,-0.79170454,-0.7897037,-0.78160834,-0.7775452,-0.7795768,-0.7846249,-0.78160834,-0.7745287,-0.7694806,-0.77148134,-0.77554446,-0.7724971,-0.76643324,-0.7644017,-0.77046555,-0.7775452,-0.77554446,-0.7684648,-0.76138514,-0.7633859,-0.767449,-0.7644017,-0.75833786,-0.7543055,-0.7593536,-0.76643324,-0.767449,-0.7644017,-0.7633859,-0.767449,-0.7735129,-0.77046555,-0.7624009,-0.7573221,-0.75833786,-0.76138514,-0.7593536,-0.7522739,-0.7472259,-0.74925745,-0.75532126,-0.7543055,-0.7502424,-0.7472259,-0.7502424,-0.7522739,-0.7451943,-0.731035,-0.71789145,-0.71081185,-0.70779526,-0.6976683,-0.6845248,-0.6713813,-0.66430163,-0.65115815,-0.6279184,-0.6016314,-0.58645636,-0.59455174,-0.62083876,-0.6450943,-0.6612851,-0.6693498,-0.6723971,-0.6744286,-0.6744286,-0.6815083,-0.70373225,-0.7381147,-0.77046555,-0.7856406,-0.78160834,-0.7735129,-0.7724971,-0.77554446,-0.7735129,-0.767449,-0.7624009,-0.7644017,-0.7694806,-0.76643324,-0.7573221,-0.74925745,-0.7633859,-0.7997999,-0.8331666,-0.8271027,-0.71789145,-0.4671489,-0.092019975,0.34682572,0.7027471,0.85745287,0.7694806,0.48029244,0.086972,-0.3043478,-0.63093495,-0.8554213,-0.9575221,-0.95247406,-0.8867564,-0.81799155,-0.7846249,-0.7836091,-0.79170454,-0.79373604,-0.79272026,-0.79170454,-0.79272026,-0.7856406,-0.7745287,-0.7644017,-0.7644017,-0.767449,-0.7624009,-0.7532897,-0.7462101,-0.7451943,-0.7462101,-0.74116194,-0.7300192,-0.7209388,-0.71890724,-0.719923,-0.71182764,-0.6986841,-0.68655634,-0.68350905,-0.6845248,-0.67947674,-0.667349,-0.65420544,-0.64712584,-0.6420777,-0.63093495,-0.6157599,-0.59959984,-0.5894729,-0.5814082,-0.5652174,-0.54397845,-0.5237553,-0.509596,-0.49848408,-0.4772451,-0.4519738,-0.4277184,-0.4115275,-0.39939976,-0.3801924,-0.35793763,-0.33974606,-0.33368224,-0.33368224,-0.32758754,-0.31952292,-0.31952292,-0.33873028,-0.37714505,-0.41962296,-0.46511734,-0.51264334,-0.56623316,-0.619823,-0.6623009,-0.69566756,-0.7270027,-0.7593536,-0.78868794,-0.8058638,-0.8109119,-0.81294346,-0.82103884,-0.8281185,-0.8291343,-0.82405543,-0.82103884,-0.8250712,-0.83011925,-0.8291343,-0.8230704,-0.82002306,-0.82405543,-0.83113503,-0.83011925,-0.82405543,-0.82002306,-0.8220546,-0.8271027,-0.82405543,-0.81599075,-0.8089111,-0.80992687,-0.814975,-0.8119277,-0.804848,-0.79878414,-0.7997999,-0.80284727,-0.7997999,-0.79170454,-0.7856406,-0.78767216,-0.79272026,-0.79068875,-0.78059256,-0.77046555,-0.7694806,-0.7724971,-0.77148134,-0.7644017,-0.75633705,-0.75532126,-0.75833786,-0.7573221,-0.7522739,-0.74925745,-0.7532897,-0.76036936,-0.76138514,-0.75633705,-0.7502424,-0.7522739,-0.7573221,-0.75532126,-0.74824166,-0.74316275,-0.7462101,-0.7522739,-0.7522739,-0.7462101,-0.7401462,-0.74417853,-0.7522739,-0.7522739,-0.7472259,-0.74116194,-0.74417853,-0.7502424,-0.75125813,-0.7472259,-0.7421777,-0.7451943,-0.7502424,-0.7502424,-0.7462101,-0.7421777,-0.7451943,-0.74925745,-0.7462101,-0.73709893,-0.72903425,-0.7270027,-0.7249712,-0.71589077,-0.70071566,-0.68957293,-0.68554056,-0.68554056,-0.67544436,-0.65115815,-0.62385535,-0.60363215,-0.593536,-0.59455174,-0.6066795,-0.6279184,-0.6552212,-0.6734128,-0.6723971,-0.6592536,-0.6521739,-0.6653174,-0.69566756,-0.72801846,-0.75125813,-0.76541746,-0.7745287,-0.778561,-0.7735129,-0.76541746,-0.7593536,-0.7624009,-0.767449,-0.76643324,-0.7593536,-0.7522739,-0.7543055,-0.75833786,-0.7593536,-0.77046555,-0.7957676,-0.8220546,-0.80284727,-0.66328585,-0.37917662,0.005063534,0.38828778,0.6349981,0.67239726,0.51162755,0.19716811,-0.17088109,-0.5055636,-0.75833786,-0.9019315,-0.9443786,-0.91609085,-0.8574221,-0.7997999,-0.7644017,-0.7573221,-0.7684648,-0.78160834,-0.78059256,-0.7694806,-0.7573221,-0.7522739,-0.75125813,-0.7472259,-0.7381147,-0.7300192,-0.7300192,-0.73408234,-0.7320508,-0.7229396,-0.7138592,-0.71182764,-0.7128434,-0.70779526,-0.69665253,-0.68655634,-0.6845248,-0.6845248,-0.6774452,-0.66328585,-0.6501424,-0.64712584,-0.64611006,-0.6410619,-0.6258869,-0.60969603,-0.6026164,-0.59858406,-0.5894729,-0.572297,-0.5530896,-0.53994614,-0.5298192,-0.51467484,-0.49140435,-0.4671489,-0.4499423,-0.43578303,-0.41860718,-0.39435166,-0.37108117,-0.35590613,-0.34682566,-0.3366987,-0.3225394,-0.31244326,-0.31647557,-0.3316506,-0.3498422,-0.37209696,-0.40444785,-0.45298964,-0.51264334,-0.56924975,-0.6188072,-0.6623009,-0.70576376,-0.7472259,-0.7775452,-0.7967526,-0.8109119,-0.8281185,-0.8442786,-0.85338974,-0.85135823,-0.8473259,-0.85034245,-0.8564371,-0.8584379,-0.85338974,-0.8483417,-0.85034245,-0.8554213,-0.8544055,-0.84631014,-0.8382147,-0.84024626,-0.8483417,-0.852374,-0.8493575,-0.8442786,-0.84529436,-0.8493575,-0.8493575,-0.84329355,-0.8371989,-0.8382147,-0.84329355,-0.84227777,-0.8341824,-0.82608694,-0.82608694,-0.83011925,-0.83011925,-0.8220546,-0.8119277,-0.8089111,-0.80992687,-0.8058638,-0.7967526,-0.78868794,-0.78767216,-0.79068875,-0.79068875,-0.7836091,-0.7775452,-0.7795768,-0.7866564,-0.7897037,-0.7846249,-0.778561,-0.7795768,-0.7846249,-0.78767216,-0.7836091,-0.7775452,-0.7795768,-0.7856406,-0.7866564,-0.78262407,-0.77652943,-0.778561,-0.7846249,-0.7866564,-0.7795768,-0.7724971,-0.7735129,-0.7795768,-0.78262407,-0.7795768,-0.7745287,-0.7775452,-0.78262407,-0.7836091,-0.778561,-0.77148134,-0.77148134,-0.77148134,-0.76541746,-0.7502424,-0.73408234,-0.7300192,-0.7300192,-0.7229396,-0.70677954,-0.68350905,-0.6663332,-0.6552212,-0.6450943,-0.6380146,-0.6430627,-0.66328585,-0.68957293,-0.70779526,-0.7097961,-0.7027472,-0.70173144,-0.7128434,-0.7320508,-0.75532126,-0.7795768,-0.8058638,-0.82608694,-0.8321508,-0.8250712,-0.814975,-0.8119277,-0.81395924,-0.814975,-0.80992687,-0.804848,-0.8068796,-0.81294346,-0.81294346,-0.80789536,-0.81599075,-0.84631014,-0.8766602,-0.8574221,-0.7168757,-0.43276644,-0.045509815,0.37006545,0.6754445,0.7805927,0.6602694,0.35187387,-0.045509815,-0.424671,-0.71789145,-0.8968834,-0.9676491,-0.9575221,-0.90494806,-0.8483417,-0.8190073,-0.82103884,-0.83621395,-0.84529436,-0.84024626,-0.83113503,-0.8271027,-0.8271027,-0.82405543,-0.814975,-0.804848,-0.8018315,-0.80383223,-0.8018315,-0.79272026,-0.78160834,-0.77652943,-0.7775452,-0.77652943,-0.76643324,-0.75633705,-0.75125813,-0.7502424,-0.7462101,-0.73408234,-0.7219546,-0.714875,-0.7138592,-0.70881104,-0.69566756,-0.67947674,-0.6713813,-0.667349,-0.6602694,-0.6450943,-0.6289342,-0.6177915,-0.60871106,-0.5975683,-0.57632935,-0.5541054,-0.5379146,-0.5257869,-0.509596,-0.48432475,-0.4560061,-0.43578303,-0.4216237,-0.409496,-0.39232016,-0.37714505,-0.37108117,-0.37412852,-0.38117737,-0.38927275,-0.40749514,-0.44184685,-0.49038863,-0.5419469,-0.5874721,-0.6299192,-0.6764294,-0.7249712,-0.76643324,-0.79373604,-0.8119277,-0.83113503,-0.8493575,-0.86351675,-0.86754906,-0.86754906,-0.87259716,-0.8796768,-0.8827241,-0.8766602,-0.86856484,-0.86754906,-0.8715814,-0.8746287,-0.86856484,-0.8594536,-0.8594536,-0.8645017,-0.86856484,-0.86351675,-0.8574221,-0.8564371,-0.8604694,-0.86250097,-0.8564371,-0.8483417,-0.8473259,-0.85338974,-0.8574221,-0.8554213,-0.8493575,-0.8473259,-0.8493575,-0.8493575,-0.84227777,-0.83519816,-0.8341824,-0.8382147,-0.8392305,-0.83113503,-0.82103884,-0.82002306,-0.8230704,-0.82405543,-0.8169758,-0.8058638,-0.80284727,-0.8058638,-0.80789536,-0.80284727,-0.79776835,-0.79878414,-0.804848,-0.8089111,-0.80383223,-0.7957676,-0.7947518,-0.79878414,-0.8008157,-0.7957676,-0.7897037,-0.7897037,-0.7947518,-0.79776835,-0.79272026,-0.7856406,-0.7856406,-0.7897037,-0.79170454,-0.7866564,-0.7795768,-0.78059256,-0.78767216,-0.79170454,-0.7897037,-0.7836091,-0.7836091,-0.79068875,-0.79373604,-0.78868794,-0.78059256,-0.778561,-0.78160834,-0.7836091,-0.778561,-0.77148134,-0.77148134,-0.7775452,-0.78160834,-0.77652943,-0.7694806,-0.76643324,-0.76541746,-0.75833786,-0.74116194,-0.7239554,-0.7168757,-0.71789145,-0.71589077,-0.70373225,-0.68350905,-0.66328585,-0.64915735,-0.6369989,-0.6269027,-0.6289342,-0.64915735,-0.67947674,-0.70173144,-0.70474803,-0.69566756,-0.6916045,-0.70071566,-0.7209388,-0.7451943,-0.7724971,-0.7997999,-0.82405543,-0.8341824,-0.82405543,-0.8058638,-0.7967526,-0.79776835,-0.8018315,-0.8018315,-0.79776835,-0.7967526,-0.79878414,-0.8008157,-0.79878414,-0.81294346,-0.84631014,-0.8796768,-0.8544055,-0.6926203,-0.37714505,0.04754126,0.49038863,0.8078953,0.9110427,0.7795769,0.450958,0.026302457,-0.3801924,-0.693636,-0.8817084,-0.95047325,-0.9352982,-0.8837399,-0.8341824,-0.8119277,-0.81799155,-0.83519816,-0.84631014,-0.84227777,-0.83113503,-0.8250712,-0.8250712,-0.8250712,-0.8169758,-0.804848,-0.79776835,-0.79878414,-0.7997999,-0.79272026,-0.7836091,-0.7694806,-0.76643324,-0.7633859,-0.75633705,-0.75125813,-0.75125813,-0.75125813,-0.7472259,-0.7350981,-0.7229396,-0.71789145,-0.71890724,-0.71589077,-0.70373225,-0.6875721,-0.67846096,-0.6744286,-0.6703656,-0.65620625,-0.6369989,-0.62283957,-0.61375916,-0.60566366,-0.58848786,-0.5652174,-0.54601,-0.5318507,-0.51565987,-0.49140435,-0.46511734,-0.4448942,-0.43276644,-0.4216237,-0.40444785,-0.38625628,-0.37714505,-0.37714505,-0.3842247,-0.3913043,-0.40444785,-0.43378222,-0.4772451,-0.52880335,-0.5753444,-0.6177915,-0.66430163,-0.71182764,-0.7532897,-0.778561,-0.7947518,-0.8109119,-0.83011925,-0.8473259,-0.852374,-0.85338974,-0.8564371,-0.86351675,-0.86856484,-0.86351675,-0.85338974,-0.8483417,-0.85034245,-0.8544055,-0.85135823,-0.84529436,-0.84329355,-0.84529436,-0.8483417,-0.84329355,-0.83621395,-0.83519816,-0.84126204,-0.8473259,-0.84529436,-0.8371989,-0.8341824,-0.8371989,-0.8382147,-0.8341824,-0.8271027,-0.82608694,-0.83113503,-0.83519816,-0.83011925,-0.8220546,-0.8190073,-0.8220546,-0.8271027,-0.8220546,-0.81294346,-0.80789536,-0.8109119,-0.814975,-0.8119277,-0.804848,-0.8018315,-0.80284727,-0.8058638,-0.8018315,-0.79373604,-0.79170454,-0.79776835,-0.80383223,-0.8008157,-0.79272026,-0.7897037,-0.79170454,-0.7957676,-0.79170454,-0.7836091,-0.78059256,-0.7836091,-0.78767216,-0.7846249,-0.778561,-0.77652943,-0.78059256,-0.7836091,-0.778561,-0.77046555,-0.7684648,-0.77148134,-0.778561,-0.7775452,-0.77148134,-0.77046555,-0.7735129,-0.77652943,-0.7735129,-0.7684648,-0.7694806,-0.77554446,-0.78160834,-0.778561,-0.77148134,-0.7684648,-0.77148134,-0.77554446,-0.77148134,-0.7633859,-0.75833786,-0.76036936,-0.7644017,-0.76138514,-0.75633705,-0.75532126,-0.7593536,-0.76138514,-0.7502424,-0.7320508,-0.7168757,-0.71182764,-0.7097961,-0.6996999,-0.6845248,-0.6713813,-0.65722203,-0.6420777,-0.619823,-0.6006156,-0.59959984,-0.62083876,-0.6521739,-0.67544436,-0.6825241,-0.68350905,-0.6845248,-0.6916045,-0.70071566,-0.71789145,-0.7472259,-0.7795768,-0.80383223,-0.80992687,-0.8018315,-0.79373604,-0.79373604,-0.79776835,-0.7957676,-0.78868794,-0.7846249,-0.7866564,-0.79068875,-0.78868794,-0.7846249,-0.7967526,-0.8331666,-0.8705656,-0.86351675,-0.74417853,-0.47826087,-0.087956905,0.37006545,0.75633717,0.94742596,0.8877723,0.60667956,0.19008851,-0.23155063,-0.5834091,-0.8230704,-0.93831474,-0.94844174,-0.8938361,-0.83113503,-0.7997999,-0.80383223,-0.82405543,-0.8341824,-0.8331666,-0.8291343,-0.8281185,-0.8250712,-0.814975,-0.8018315,-0.79170454,-0.7897037,-0.79068875,-0.7856406,-0.77652943,-0.77046555,-0.77046555,-0.7694806,-0.7633859,-0.7532897,-0.74824166,-0.74824166,-0.74824166,-0.7381147,-0.7239554,-0.7138592,-0.71182764,-0.71182764,-0.70474803,-0.6916045,-0.6804925,-0.6764294,-0.6744286,-0.6623009,-0.6450943,-0.63093495,-0.62283957,-0.61477494,-0.5975683,-0.57432854,-0.5541054,-0.53994614,-0.52680266,-0.5045479,-0.4772451,-0.45400542,-0.4398461,-0.42870337,-0.4115275,-0.39232016,-0.37816083,-0.3751135,-0.37714505,-0.37612927,-0.37816083,-0.38927275,-0.41657555,-0.45400542,-0.49140435,-0.53388226,-0.5834091,-0.6400462,-0.6946518,-0.7320508,-0.75833786,-0.7795768,-0.80383223,-0.82608694,-0.8382147,-0.84126204,-0.8442786,-0.852374,-0.8594536,-0.8564371,-0.8473259,-0.84126204,-0.84329355,-0.8493575,-0.8483417,-0.84227777,-0.8382147,-0.84126204,-0.84631014,-0.8442786,-0.8371989,-0.8321508,-0.8341824,-0.8392305,-0.83621395,-0.8271027,-0.8220546,-0.8230704,-0.82608694,-0.8230704,-0.81599075,-0.8109119,-0.8109119,-0.8119277,-0.8068796,-0.79878414,-0.7967526,-0.8008157,-0.8068796,-0.80284727,-0.79373604,-0.78767216,-0.79068875,-0.7957676,-0.79373604,-0.78767216,-0.7846249,-0.78767216,-0.79170454,-0.7866564,-0.778561,-0.7735129,-0.778561,-0.7856406,-0.7836091,-0.77652943,-0.77148134,-0.7745287,-0.78059256,-0.7795768,-0.7724971,-0.76643324,-0.767449,-0.77046555,-0.767449,-0.76036936,-0.7573221,-0.7633859,-0.77046555,-0.7694806,-0.7644017,-0.7593536,-0.76138514,-0.7644017,-0.7593536,-0.75125813,-0.74925745,-0.7532897,-0.7593536,-0.7573221,-0.74824166,-0.74316275,-0.7451943,-0.75125813,-0.7502424,-0.74316275,-0.73913044,-0.7421777,-0.74824166,-0.7451943,-0.7381147,-0.73306656,-0.73709893,-0.74417853,-0.74417853,-0.73913044,-0.7361139,-0.73913044,-0.7401462,-0.7300192,-0.71081185,-0.693636,-0.68655634,-0.68655634,-0.67947674,-0.667349,-0.65420544,-0.6410619,-0.6258869,-0.60363215,-0.5854405,-0.58645636,-0.6117276,-0.64712584,-0.6693498,-0.6744286,-0.66836476,-0.6653174,-0.6703656,-0.68350905,-0.70474803,-0.73408234,-0.76643324,-0.7897037,-0.79272026,-0.7836091,-0.7735129,-0.77148134,-0.7745287,-0.77148134,-0.7644017,-0.76138514,-0.767449,-0.77554446,-0.7745287,-0.767449,-0.7724971,-0.8008157,-0.83519816,-0.83519816,-0.7381147,-0.50153136,-0.1476106,0.2679646,0.6208389,0.7907194,0.7259871,0.45905352,0.07078111,-0.31244326,-0.6289342,-0.84329355,-0.95047325,-0.9615852,-0.9069796,-0.83519816,-0.7856406,-0.77554446,-0.7866564,-0.7967526,-0.7957676,-0.79068875,-0.79068875,-0.79272026,-0.78868794,-0.7775452,-0.7694806,-0.7684648,-0.77148134,-0.7684648,-0.7573221,-0.7451943,-0.7401462,-0.73913044,-0.73306656,-0.7239554,-0.71589077,-0.7128434,-0.71182764,-0.70474803,-0.693636,-0.68350905,-0.6825241,-0.6825241,-0.67544436,-0.6623009,-0.6481416,-0.6410619,-0.6380146,-0.6269027,-0.60969603,-0.59150445,-0.5793767,-0.5682647,-0.5500423,-0.5278184,-0.50657946,-0.49343592,-0.48029244,-0.45905352,-0.43073487,-0.40343207,-0.38625628,-0.3751135,-0.3599692,-0.3417468,-0.324571,-0.31850708,-0.31952292,-0.31952292,-0.32355523,-0.3377145,-0.3700654,-0.41555983,-0.46308583,-0.509596,-0.5591535,-0.61375916,-0.6663332,-0.70677954,-0.7361139,-0.76138514,-0.78767216,-0.8119277,-0.8281185,-0.8331666,-0.83519816,-0.84329355,-0.852374,-0.85338974,-0.8483417,-0.84329355,-0.84631014,-0.85135823,-0.85034245,-0.8442786,-0.8392305,-0.84329355,-0.85135823,-0.85338974,-0.8483417,-0.84227777,-0.84329355,-0.8483417,-0.8483417,-0.84126204,-0.8321508,-0.83113503,-0.8321508,-0.8291343,-0.82103884,-0.81395924,-0.81599075,-0.8220546,-0.82103884,-0.81395924,-0.80789536,-0.80789536,-0.8109119,-0.8068796,-0.7967526,-0.78868794,-0.7897037,-0.7947518,-0.7957676,-0.78868794,-0.78059256,-0.78160834,-0.7866564,-0.78767216,-0.7836091,-0.78059256,-0.7836091,-0.78767216,-0.7866564,-0.78059256,-0.77554446,-0.778561,-0.7836091,-0.78262407,-0.77652943,-0.7724971,-0.77652943,-0.78262407,-0.7846249,-0.778561,-0.7735129,-0.77554446,-0.78160834,-0.78262407,-0.7775452,-0.7735129,-0.77554446,-0.78160834,-0.78262407,-0.778561,-0.7735129,-0.77652943,-0.78262407,-0.78262407,-0.77652943,-0.77148134,-0.7745287,-0.78059256,-0.78059256,-0.7724971,-0.76036936,-0.7532897,-0.74925745,-0.74116194,-0.72903425,-0.71589077,-0.70779526,-0.6996999,-0.6804925,-0.65420544,-0.63093495,-0.62487113,-0.6390304,-0.6602694,-0.67947674,-0.693636,-0.70173144,-0.70576376,-0.70373225,-0.70173144,-0.7128434,-0.74316275,-0.78059256,-0.80789536,-0.81799155,-0.8169758,-0.81799155,-0.82002306,-0.8190073,-0.81395924,-0.8089111,-0.8119277,-0.81799155,-0.81799155,-0.8119277,-0.804848,-0.8058638,-0.8190073,-0.8442786,-0.8705656,-0.8746287,-0.8058638,-0.60363215,-0.26694882,0.15268946,0.5217545,0.70982695,0.6663331,0.42974985,0.071796894,-0.29929972,-0.6258869,-0.8604694,-0.9787611,-0.99190456,-0.941362,-0.8817084,-0.8442786,-0.8321508,-0.8321508,-0.8341824,-0.8382147,-0.84024626,-0.83519816,-0.8250712,-0.8169758,-0.81599075,-0.82002306,-0.81799155,-0.80992687,-0.7997999,-0.79878414,-0.8008157,-0.8008157,-0.79272026,-0.7836091,-0.78160834,-0.78160834,-0.77652943,-0.7644017,-0.7502424,-0.7451943,-0.74417853,-0.73913044,-0.7270027,-0.7138592,-0.70779526,-0.70576376,-0.6976683,-0.6815083,-0.66430163,-0.65318966,-0.64712584,-0.6359831,-0.6177915,-0.5975683,-0.5834091,-0.57128125,-0.55207384,-0.5257869,-0.49848408,-0.4792766,-0.46410155,-0.4438784,-0.4175914,-0.39232016,-0.37917662,-0.37311274,-0.36501735,-0.35489035,-0.3498422,-0.3599692,-0.38625628,-0.41962296,-0.4570219,-0.5005156,-0.557122,-0.6177915,-0.6723971,-0.714875,-0.75125813,-0.78767216,-0.8220546,-0.84529436,-0.8584379,-0.86754906,-0.8817084,-0.8978684,-0.9069796,-0.9039323,-0.8978684,-0.8978684,-0.9029473,-0.9029473,-0.8978684,-0.8907888,-0.8907888,-0.8938361,-0.89485186,-0.88980377,-0.8857407,-0.8867564,-0.8918045,-0.8907888,-0.8827241,-0.8746287,-0.8766602,-0.8827241,-0.8847249,-0.87764525,-0.86856484,-0.8655175,-0.86856484,-0.86754906,-0.8604694,-0.85135823,-0.85135823,-0.8544055,-0.8554213,-0.8483417,-0.84024626,-0.8392305,-0.84227777,-0.84329355,-0.8382147,-0.83113503,-0.83113503,-0.83519816,-0.83519816,-0.8281185,-0.82103884,-0.8220546,-0.8291343,-0.8331666,-0.83011925,-0.82405543,-0.8250712,-0.8291343,-0.83011925,-0.8230704,-0.8169758,-0.8169758,-0.82103884,-0.8220546,-0.814975,-0.8068796,-0.8058638,-0.80992687,-0.8109119,-0.8058638,-0.7997999,-0.8018315,-0.8089111,-0.8109119,-0.804848,-0.7967526,-0.79776835,-0.80383223,-0.8068796,-0.8008157,-0.79373604,-0.79272026,-0.79776835,-0.7997999,-0.7947518,-0.78868794,-0.7897037,-0.7947518,-0.7967526,-0.79068875,-0.7846249,-0.7836091,-0.7846249,-0.778561,-0.76138514,-0.74316275,-0.73306656,-0.72903425,-0.7229396,-0.70881104,-0.6885879,-0.6713813,-0.65722203,-0.6440785,-0.6339823,-0.6380146,-0.6602694,-0.6905887,-0.71182764,-0.7128434,-0.70373225,-0.70071566,-0.71182764,-0.73408234,-0.75833786,-0.78262407,-0.80789536,-0.8281185,-0.83519816,-0.8291343,-0.8190073,-0.81799155,-0.8220546,-0.8230704,-0.81599075,-0.8068796,-0.8058638,-0.80992687,-0.81294346,-0.81294346,-0.8281185,-0.8655175,-0.8978684,-0.8665333,-0.69566756,-0.37311274,0.055606008,0.49343598,0.7977992,0.88272417,0.735098,0.3953675,-0.030334651,-0.4297191,-0.73306656,-0.9130435,-0.97676027,-0.96056944,-0.9100269,-0.8614852,-0.84024626,-0.84529436,-0.8604694,-0.8695806,-0.86250097,-0.85135823,-0.84529436,-0.8442786,-0.84329355,-0.83519816,-0.82608694,-0.8220546,-0.8230704,-0.8220546,-0.8119277,-0.7997999,-0.79373604,-0.79373604,-0.79272026,-0.7836091,-0.7724971,-0.76643324,-0.76643324,-0.7644017,-0.75532126,-0.74316275,-0.73709893,-0.7350981,-0.7300192,-0.71789145,-0.70373225,-0.69566756,-0.6905887,-0.6825241,-0.6653174,-0.6450943,-0.6329665,-0.62487113,-0.61477494,-0.5955676,-0.5733128,-0.5551212,-0.5419469,-0.5247711,-0.4994998,-0.47321278,-0.4549904,-0.44286263,-0.4317507,-0.41355908,-0.39435166,-0.38625628,-0.38927275,-0.39838398,-0.40749514,-0.4216237,-0.4519738,-0.49746823,-0.54902655,-0.5975683,-0.6440785,-0.6926203,-0.7401462,-0.7795768,-0.80383223,-0.82103884,-0.84024626,-0.8614852,-0.87764525,-0.8827241,-0.8806926,-0.8817084,-0.8857407,-0.888788,-0.8837399,-0.87764525,-0.87866104,-0.8857407,-0.8907888,-0.8867564,-0.87866104,-0.8756445,-0.8766602,-0.8756445,-0.86754906,-0.8574221,-0.8564371,-0.8604694,-0.8645017,-0.8604694,-0.8544055,-0.85338974,-0.8554213,-0.8554213,-0.8473259,-0.8382147,-0.83621395,-0.84024626,-0.84329355,-0.8382147,-0.83011925,-0.8281185,-0.83113503,-0.8341824,-0.8281185,-0.82002306,-0.8169758,-0.8190073,-0.82002306,-0.81395924,-0.8058638,-0.80383223,-0.80789536,-0.8119277,-0.8068796,-0.7997999,-0.79776835,-0.8018315,-0.80383223,-0.79878414,-0.79170454,-0.79068875,-0.7957676,-0.7997999,-0.79373604,-0.7846249,-0.78262407,-0.78767216,-0.79272026,-0.7897037,-0.7836091,-0.78262407,-0.78767216,-0.79068875,-0.7856406,-0.7775452,-0.77652943,-0.78262407,-0.78868794,-0.7856406,-0.778561,-0.7775452,-0.78160834,-0.7866564,-0.7846249,-0.7795768,-0.78059256,-0.78868794,-0.79373604,-0.79068875,-0.7836091,-0.78160834,-0.7856406,-0.7897037,-0.7836091,-0.77554446,-0.77148134,-0.7745287,-0.7775452,-0.7735129,-0.767449,-0.76541746,-0.76541746,-0.7593536,-0.74316275,-0.7239554,-0.7138592,-0.71182764,-0.70881104,-0.69566756,-0.6723971,-0.6501424,-0.6329665,-0.62185454,-0.6157599,-0.62487113,-0.6521739,-0.6845248,-0.70576376,-0.70373225,-0.6905887,-0.68655634,-0.6986841,-0.7259869,-0.7522739,