-0.6393924,-0.6323318,-0.62676895,-0.61818016,-0.60506773,-0.5914357,-0.5818382,-0.57627535,-0.57071245,-0.560626,-0.5505089,-0.5424397,-0.5353486,-0.52627075,-0.5126387,-0.50050426,-0.4954611,-0.49497205,-0.4969893,-0.49292415,-0.48687232,-0.48586363,-0.48687232,-0.48940915,-0.4898982,-0.49041784,-0.49848706,-0.51211905,-0.53082496,-0.55001986,-0.5692148,-0.59042704,-0.6126479,-0.6328515,-0.64950943,-0.66515875,-0.6818168,-0.69951403,-0.7136351,-0.72121525,-0.7272978,-0.73738426,-0.74951863,-0.7611334,-0.76516795,-0.76666564,-0.7681939,-0.77121985,-0.7742458,-0.77323717,-0.7722285,-0.7752545,-0.7782804,-0.7803283,-0.7782804,-0.7762631,-0.7767827,-0.77980864,-0.7813369,-0.7777914,-0.77375674,-0.77375674,-0.77727175,-0.7803283,-0.77727175,-0.7717395,-0.7676743,-0.76516795,-0.7641593,-0.7616224,-0.7601247,-0.762142,-0.7641593,-0.7636397,-0.7581074,-0.7525445,-0.7515359,-0.75557053,-0.7575878,-0.7550509,-0.7510163,-0.75052726,-0.7515359,-0.7510163,-0.74698174,-0.74242747,-0.74343616,-0.74799037,-0.7515359,-0.7500076,-0.74597305,-0.7444448,-0.7454534,-0.74496436,-0.74092984,-0.73738426,-0.73738426,-0.73790383,-0.74092984,-0.74141884,-0.74092984,-0.7404102,-0.73992115,-0.7368646,-0.7318214,-0.7303237,-0.732341,-0.7363756,-0.73738426,-0.7333497,-0.7283064,-0.7272978,-0.72931504,-0.7303237,-0.7277868,-0.72476083,-0.72476083,-0.7272978,-0.72931504,-0.7252499,-0.72072625,-0.719198,-0.72072625,-0.7217349,-0.719198,-0.71617204,-0.7146438,-0.71718067,-0.719198,-0.71718067,-0.7141547,-0.7141547,-0.7146438,-0.71718067,-0.71565247,-0.7146438,-0.71516335,-0.71516335,-0.7136351,-0.7096005,-0.7075832,-0.7096005,-0.7146438,-0.7166916,-0.71213746,-0.7081028,-0.70608556,-0.7070942,-0.7075832,-0.7045573,-0.70052266,-0.700003,-0.7035486,-0.7070942,-0.70657456,-0.7045573,-0.7050463,-0.70403767,-0.7045573,-0.7015313,-0.69951403,-0.700003,-0.7045573,-0.7055659,-0.7020204,-0.69798577,-0.6985054,-0.7010117,-0.7035486,-0.700003,-0.6954794,-0.69444025,-0.69596845,-0.6985054,-0.69444025,-0.68991655,-0.689397,-0.69242287,-0.69596845,-0.69444025,-0.6889079,-0.68536234,-0.6818168,-0.6787908,-0.6737476,-0.6691934,-0.6661674,-0.6631415,-0.6550723,-0.636886,-0.6186998,-0.6126479,-0.6212367,-0.64192927,-0.6570896,-0.6575786,-0.6454748,-0.6247517,-0.60858274,-0.60405904,-0.6126479,-0.63636637,-0.670202,-0.7010117,-0.72121525,-0.7303237,-0.7333497,-0.73536694,-0.73738426,-0.7338387,-0.7272978,-0.7217349,-0.7202066,-0.7217349,-0.7262585,-0.7368646,-0.7560595,-0.7752545,-0.7722285,-0.72121525,-0.6020417,-0.39496285,-0.10251552,0.24950337,0.59696794,0.8621206,0.95708644,0.83687377,0.5419202,0.17324328,-0.17070633,-0.42323565,-0.5782926,-0.68536234,-0.7803283,-0.86566615,-0.9272855,-0.9560779,-0.9545496,-0.9353547,-0.9166794,-0.90708196,-0.90454507,-0.90252775,-0.89393896,-0.8803069,-0.86869216,-0.8616316,-0.85658836,-0.84747994,-0.83840203,-0.8292936,-0.8232417,-0.81767887,-0.8075924,-0.79747534,-0.79142344,-0.78992575,-0.78888655,-0.7848519,-0.77577406,-0.7692026,-0.7646483,-0.76061374,-0.75404227,-0.7454534,-0.73992115,-0.73738426,-0.73536694,-0.7308127,-0.7237522,-0.71870893,-0.7141547,-0.7075832,-0.696488,-0.6833451,-0.6752758,-0.6717303,-0.6676957,-0.6585873,-0.6485008,-0.639912,-0.6343491,-0.62878627,-0.61818016,-0.60607636,-0.59647894,-0.59042704,-0.5863618,-0.5787817,-0.56768656,-0.5575695,-0.54748297,-0.53687686,-0.5252621,-0.51514506,-0.5075954,-0.5045389,-0.50252163,-0.49747837,-0.49243516,-0.48888958,-0.48840052,-0.4873919,-0.48537457,-0.4838463,-0.4863832,-0.4934438,-0.50252163,-0.5111104,-0.5242535,-0.5434483,-0.5692148,-0.5924443,-0.60959136,-0.62172574,-0.63737506,-0.65608096,-0.67677355,-0.6904056,-0.7010117,-0.71213746,-0.72424126,-0.7368646,-0.74496436,-0.75052726,-0.75557053,-0.7631507,-0.77073085,-0.7727481,-0.7742458,-0.77727175,-0.78182596,-0.7863802,-0.7848519,-0.78182596,-0.7777914,-0.7762631,-0.7767827,-0.77476543,-0.7742458,-0.7777914,-0.78182596,-0.78182596,-0.77577406,-0.7676743,-0.76263106,-0.7641593,-0.7661766,-0.76516795,-0.762142,-0.76263106,-0.7636397,-0.7641593,-0.75911605,-0.75202495,-0.74850994,-0.7515359,-0.7560595,-0.75456184,-0.75052726,-0.74698174,-0.7464621,-0.74698174,-0.7444448,-0.74343616,-0.74597305,-0.75052726,-0.75404227,-0.7510163,-0.7454534,-0.74242747,-0.74395573,-0.7454534,-0.74242747,-0.73790383,-0.73585594,-0.7368646,-0.73891246,-0.7368646,-0.7338387,-0.732341,-0.7348473,-0.73536694,-0.7308127,-0.72677815,-0.7262585,-0.7308127,-0.73536694,-0.7338387,-0.7283064,-0.72424126,-0.72424126,-0.72677815,-0.7237522,-0.719198,-0.71770024,-0.71818936,-0.72072625,-0.719198,-0.71516335,-0.71262646,-0.7146438,-0.71565247,-0.71262646,-0.70911145,-0.7081028,-0.7101201,-0.7111288,-0.70911145,-0.70403767,-0.7035486,-0.70657456,-0.7096005,-0.7081028,-0.7050463,-0.70608556,-0.7101201,-0.71262646,-0.70911145,-0.7010117,-0.69798577,-0.7020204,-0.70608556,-0.7070942,-0.70403767,-0.7010117,-0.70254,-0.7055659,-0.70302904,-0.6989944,-0.69444025,-0.6954794,-0.69697714,-0.6974967,-0.69697714,-0.6974967,-0.6985054,-0.7010117,-0.6985054,-0.6949598,-0.69343156,-0.69343156,-0.69395113,-0.69092524,-0.68991655,-0.69141424,-0.69444025,-0.69697714,-0.6929425,-0.68789923,-0.6868906,-0.68838835,-0.69092524,-0.6889079,-0.6868906,-0.6843537,-0.685882,-0.6868906,-0.68487334,-0.68487334,-0.6838341,-0.6868906,-0.6868906,-0.68282545,-0.67931044,-0.6777822,-0.6797995,-0.6803191,-0.6747562,-0.6671761,-0.66262186,-0.66262186,-0.66262186,-0.6585873,-0.65051806,-0.64092064,-0.62979496,-0.62071705,-0.61668247,-0.623743,-0.64092064,-0.6550723,-0.6540636,-0.6338601,-0.60757405,-0.5939419,-0.60152215,-0.6247517,-0.653544,-0.6823364,-0.70657456,-0.7262585,-0.73585594,-0.7338387,-0.7287954,-0.7252499,-0.7252499,-0.7262585,-0.7237522,-0.719198,-0.72121525,-0.7318214,-0.74850994,-0.762142,-0.76061374,-0.7303237,-0.6555613,-0.501513,-0.24999237,0.08432913,0.45049977,0.77073085,0.96264935,0.9530519,0.73585594,0.3742398,-0.015649319,-0.33991498,-0.55102855,-0.6712107,-0.7631507,-0.8490082,-0.9151512,-0.950026,-0.9520433,-0.93941987,-0.92881376,-0.9232509,-0.917199,-0.90708196,-0.89546716,-0.8848611,-0.87526363,-0.86416847,-0.8530428,-0.84497356,-0.84041935,-0.83687377,-0.82981324,-0.8196962,-0.8096097,-0.80456644,-0.7990036,-0.7909344,-0.7813369,-0.7742458,-0.7717395,-0.7692026,-0.762142,-0.7535532,-0.74343616,-0.7394016,-0.73790383,-0.7338387,-0.7262585,-0.72121525,-0.71818936,-0.7141547,-0.7085919,-0.69951403,-0.6904056,-0.68637097,-0.6818168,-0.67273897,-0.66262186,-0.6545527,-0.65152675,-0.64798117,-0.64092064,-0.6323318,-0.623743,-0.6191888,-0.61515415,-0.6055567,-0.5924443,-0.5808295,-0.57373846,-0.5686952,-0.56163466,-0.55353487,-0.5459547,-0.5384052,-0.5318336,-0.5217165,-0.5126387,-0.5086041,-0.5111104,-0.5141364,-0.5126387,-0.5086041,-0.5045389,-0.5040499,-0.5075954,-0.50961274,-0.5126387,-0.5192102,-0.53082496,-0.5439374,-0.5565608,-0.5686952,-0.5838555,-0.60353947,-0.62527126,-0.6424489,-0.65656996,-0.6712107,-0.68737966,-0.70403767,-0.71617204,-0.72323257,-0.72931504,-0.73790383,-0.7464621,-0.7535532,-0.7596051,-0.76666564,-0.7752545,-0.7813369,-0.77931964,-0.7727481,-0.77073085,-0.7742458,-0.77980864,-0.77980864,-0.77476543,-0.7692026,-0.7692026,-0.7702112,-0.7681939,-0.762142,-0.75657916,-0.75557053,-0.75657916,-0.75557053,-0.7510163,-0.7464621,-0.7464621,-0.74850994,-0.748999,-0.74597305,-0.7429471,-0.7419385,-0.74141884,-0.73738426,-0.7343583,-0.7333497,-0.7383929,-0.7454534,-0.7464621,-0.74242747,-0.73738426,-0.73585594,-0.73585594,-0.7363756,-0.7343583,-0.732341,-0.7343583,-0.7343583,-0.7338387,-0.732341,-0.7338387,-0.7368646,-0.73992115,-0.7394016,-0.7348473,-0.7333497,-0.73536694,-0.7363756,-0.7333497,-0.7272978,-0.72424126,-0.72677815,-0.7318214,-0.7333497,-0.7308127,-0.7287954,-0.7303237,-0.7313323,-0.72931504,-0.7252499,-0.7217349,-0.72222394,-0.7237522,-0.72072625,-0.71565247,-0.71213746,-0.71262646,-0.7146438,-0.7136351,-0.7096005,-0.7101201,-0.7166916,-0.72121525,-0.7197176,-0.7101201,-0.7020204,-0.69951403,-0.7035486,-0.7075832,-0.70911145,-0.7096005,-0.7116178,-0.7136351,-0.71213746,-0.70608556,-0.7010117,-0.7010117,-0.70254,-0.70302904,-0.7020204,-0.7015313,-0.70254,-0.7045573,-0.7035486,-0.6989944,-0.69596845,-0.6989944,-0.70254,-0.7020204,-0.69951403,-0.69697714,-0.6985054,-0.7010117,-0.7015313,-0.7010117,-0.6989944,-0.6985054,-0.6974967,-0.69092524,-0.68487334,-0.6818168,-0.68637097,-0.69395113,-0.6974967,-0.69596845,-0.69444025,-0.6949598,-0.69596845,-0.696488,-0.69343156,-0.6904056,-0.6919339,-0.69343156,-0.6919339,-0.68737966,-0.6833451,-0.68282545,-0.68132776,-0.6772932,-0.6717303,-0.6676957,-0.66818476,-0.6661674,-0.6540636,-0.63636637,-0.62527126,-0.63132316,-0.6489898,-0.6631415,-0.6631415,-0.6489898,-0.63184273,-0.6186998,-0.6141455,-0.6186998,-0.63838375,-0.670202,-0.700003,-0.72121525,-0.7272978,-0.7237522,-0.7217349,-0.72121525,-0.7227435,-0.72121525,-0.72121525,-0.7237522,-0.7252499,-0.72677815,-0.7313323,-0.7429471,-0.7550509,-0.7454534,-0.696488,-0.5843445,-0.39040864,-0.11666721,0.21970224,0.5570804,0.82171345,0.9197054,0.80150986,0.504539,0.13029921,-0.21514809,-0.46969467,-0.62527126,-0.7283064,-0.81566155,-0.8853807,-0.9282942,-0.9449522,-0.9399089,-0.92526823,-0.9126448,-0.9055537,-0.9000214,-0.89445853,-0.8828438,-0.8682031,-0.85658836,-0.85102546,-0.8469909,-0.8409084,-0.8303023,-0.8202158,-0.81315523,-0.8075924,-0.8015405,-0.79496896,-0.7883975,-0.78787786,-0.7868692,-0.7813369,-0.77073085,-0.76061374,-0.75456184,-0.75052726,-0.74698174,-0.74092984,-0.7343583,-0.7318214,-0.72931504,-0.72323257,-0.7141547,-0.70657456,-0.7020204,-0.6989944,-0.69395113,-0.68536234,-0.6797995,-0.6777822,-0.6747562,-0.6671761,-0.6550723,-0.64345753,-0.6389034,-0.636886,-0.63132316,-0.6222453,-0.6136565,-0.60959136,-0.60506773,-0.59647894,-0.5828468,-0.5697038,-0.5626433,-0.55860865,-0.55252624,-0.5439374,-0.53586817,-0.5318336,-0.5292967,-0.5247425,-0.52021885,-0.5176819,-0.5196992,-0.5232448,-0.5242535,-0.5212275,-0.5217165,-0.527799,-0.5378855,-0.54696333,-0.5555521,-0.5656692,-0.5843445,-0.60506773,-0.62527126,-0.640401,-0.653544,-0.670202,-0.68789923,-0.7020204,-0.7106092,-0.71818936,-0.7277868,-0.7383929,-0.74850994,-0.75404227,-0.75706816,-0.7631507,-0.76666564,-0.7692026,-0.77073085,-0.77121985,-0.77476543,-0.7762631,-0.77375674,-0.7681939,-0.7646483,-0.76666564,-0.7702112,-0.77121985,-0.7676743,-0.7646483,-0.7646483,-0.7646483,-0.762142,-0.75657916,-0.75052726,-0.748999,-0.7500076,-0.748999,-0.74799037,-0.74496436,-0.74395573,-0.7454534,-0.74395573,-0.74141884,-0.74092984,-0.7419385,-0.74343616,-0.7419385,-0.73790383,-0.73536694,-0.7348473,-0.7368646,-0.73738426,-0.7338387,-0.7318214,-0.7343583,-0.73790383,-0.74092984,-0.7394016,-0.7368646,-0.7368646,-0.73790383,-0.7383929,-0.7348473,-0.7338387,-0.73536694,-0.73790383,-0.73585594,-0.7318214,-0.7283064,-0.7303237,-0.7343583,-0.7363756,-0.7333497,-0.7283064,-0.7283064,-0.7298041,-0.7287954,-0.7252499,-0.72476083,-0.7262585,-0.72931504,-0.7287954,-0.7227435,-0.7166916,-0.7166916,-0.7202066,-0.7227435,-0.7217349,-0.71818936,-0.7166916,-0.71718067,-0.71516335,-0.7116178,-0.7101201,-0.71213746,-0.71516335,-0.71718067,-0.71516335,-0.71262646,-0.7146438,-0.71818936,-0.71818936,-0.7136351,-0.7085919,-0.7055659,-0.70608556,-0.70657456,-0.7035486,-0.7015313,-0.70302904,-0.7045573,-0.7055659,-0.70302904,-0.7010117,-0.7035486,-0.7075832,-0.7096005,-0.7075832,-0.7035486,-0.70254,-0.7035486,-0.7035486,-0.70254,-0.69951403,-0.69951403,-0.70052266,-0.70052266,-0.6985054,-0.6974967,-0.70052266,-0.70302904,-0.70254,-0.6985054,-0.69343156,-0.6929425,-0.6954794,-0.696488,-0.69444025,-0.6929425,-0.69395113,-0.69596845,-0.69596845,-0.6929425,-0.6904056,-0.69242287,-0.696488,-0.696488,-0.69092524,-0.685882,-0.68536234,-0.68789923,-0.6904056,-0.68991655,-0.68737966,-0.68991655,-0.69242287,-0.69395113,-0.6904056,-0.68487334,-0.6823364,-0.6797995,-0.6777822,-0.67221934,-0.6676957,-0.666687,-0.66466975,-0.65656996,-0.640401,-0.6247517,-0.6222453,-0.63184273,-0.6489898,-0.65608096,-0.653544,-0.64140964,-0.62676895,-0.61769116,-0.61668247,-0.62627995,-0.6489898,-0.67931044,-0.70657456,-0.7252499,-0.7343583,-0.73790383,-0.73891246,-0.7368646,-0.7313323,-0.7262585,-0.72476083,-0.7257695,-0.7272978,-0.732341,-0.7429471,-0.762142,-0.7762631,-0.7601247,-0.696488,-0.5636519,-0.342941,-0.04444176,0.30253386,0.63282084,0.8702203,0.93031144,0.7868693,0.48788095,0.13534248,-0.1838494,-0.4181924,-0.56817555,-0.68789923,-0.7994926,-0.8934499,-0.9555583,-0.9782988,-0.9676927,-0.94446313,-0.92627686,-0.91921633,-0.917199,-0.91365343,-0.90252775,-0.88941526,-0.8792982,-0.87171805,-0.86416847,-0.85356236,-0.84445393,-0.83840203,-0.8348565,-0.8292936,-0.8196962,-0.8096097,-0.8040468,-0.80102086,-0.7969863,-0.7894061,-0.78182596,-0.7782804,-0.7762631,-0.77073085,-0.7611334,-0.75052726,-0.7444448,-0.74141884,-0.7383929,-0.7318214,-0.72476083,-0.7197176,-0.71617204,-0.7116178,-0.7035486,-0.69444025,-0.689397,-0.68536234,-0.6777822,-0.669713,-0.6595959,-0.653544,-0.6489898,-0.640401,-0.62930584,-0.61769116,-0.61011094,-0.60405904,-0.59647894,-0.5833359,-0.57071245,-0.5641409,-0.5575695,-0.5495003,-0.5384052,-0.5272794,-0.52070785,-0.5186906,-0.5161842,-0.5090931,-0.50252163,-0.50050426,-0.501513,-0.501513,-0.49848706,-0.49598068,-0.49848706,-0.5075954,-0.51719296,-0.52373385,-0.53082496,-0.5434483,-0.5626433,-0.5828468,-0.6025308,-0.6212367,-0.64192927,-0.6616132,-0.6777822,-0.68789923,-0.69596845,-0.7070942,-0.72121525,-0.7343583,-0.74141884,-0.7464621,-0.7530336,-0.7596051,-0.765657,-0.765657,-0.765657,-0.7692026,-0.77323717,-0.7762631,-0.77375674,-0.7702112,-0.7702112,-0.7752545,-0.7777914,-0.77577406,-0.77121985,-0.7692026,-0.7702112,-0.77121985,-0.7681939,-0.765657,-0.7641593,-0.76516795,-0.7646483,-0.7601247,-0.7550509,-0.7560595,-0.7581074,-0.7585965,-0.75557053,-0.75052726,-0.748999,-0.7510163,-0.7510163,-0.74698174,-0.7454534,-0.74747074,-0.7510163,-0.75404227,-0.74951863,-0.74496436,-0.74395573,-0.74597305,-0.74850994,-0.7464621,-0.74343616,-0.74395573,-0.74698174,-0.74799037,-0.74395573,-0.73790383,-0.73536694,-0.7368646,-0.73738426,-0.73536694,-0.7333497,-0.7343583,-0.7383929,-0.74141884,-0.73738426,-0.732341,-0.7303237,-0.7308127,-0.72931504,-0.72476083,-0.719198,-0.7197176,-0.7227435,-0.7272978,-0.72677815,-0.72121525,-0.72072625,-0.72121525,-0.72222394,-0.7217349,-0.72121525,-0.72072625,-0.7227435,-0.7202066,-0.7146438,-0.7096005,-0.70911145,-0.71213746,-0.7146438,-0.71213746,-0.70911145,-0.70911145,-0.71213746,-0.7141547,-0.71213746,-0.7081028,-0.7070942,-0.7106092,-0.71213746,-0.7085919,-0.7045573,-0.7015313,-0.7020204,-0.7050463,-0.7055659,-0.70608556,-0.70657456,-0.7075832,-0.70657456,-0.7020204,-0.69951403,-0.7020204,-0.7050463,-0.7070942,-0.7010117,-0.69444025,-0.69343156,-0.69596845,-0.70052266,-0.7015313,-0.6989944,-0.6974967,-0.6985054,-0.6985054,-0.6954794,-0.69395113,-0.6949598,-0.69798577,-0.700003,-0.6989944,-0.69697714,-0.6985054,-0.70254,-0.7055659,-0.70254,-0.6985054,-0.69697714,-0.6974967,-0.69798577,-0.6954794,-0.6904056,-0.6868906,-0.68838835,-0.689397,-0.6889079,-0.68838835,-0.68991655,-0.69242287,-0.69242287,-0.6868906,-0.6803191,-0.6737476,-0.67221934,-0.6717303,-0.6717303,-0.67072165,-0.6687044,-0.6636611,-0.64950943,-0.62979496,-0.6171715,-0.6201974,-0.6393924,-0.6585873,-0.6631415,-0.6520158,-0.6333405,-0.6201974,-0.61769116,-0.62325394,-0.640401,-0.666687,-0.696488,-0.72424126,-0.7404102,-0.74496436,-0.74395573,-0.74092984,-0.7383929,-0.7338387,-0.7308127,-0.7308127,-0.7333497,-0.7363756,-0.7429471,-0.7560595,-0.7727481,-0.77121985,-0.7283064,-0.6141455,-0.40908396,-0.11767584,0.23131716,0.57373834,0.8409083,0.9439436,0.8348565,0.54748297,0.18082345,-0.1580829,-0.40807527,-0.5631323,-0.6742672,-0.7813369,-0.87526363,-0.94091755,-0.97022957,-0.9687013,-0.95103467,-0.9318397,-0.91820765,-0.9116362,-0.9086102,-0.90252775,-0.890913,-0.8778005,-0.86921173,-0.8646575,-0.8601033,-0.8515145,-0.84142804,-0.8338479,-0.8292936,-0.8242504,-0.8146529,-0.8050555,-0.80001223,-0.7979949,-0.795458,-0.7868692,-0.77577406,-0.7676743,-0.765657,-0.7631507,-0.7560595,-0.74747074,-0.7419385,-0.7404102,-0.7363756,-0.7262585,-0.71262646,-0.70403767,-0.7010117,-0.70254,-0.69798577,-0.68838835,-0.6787908,-0.670202,-0.6636611,-0.6540636,-0.64345753,-0.63636637,-0.6308036,-0.6247517,-0.6161629,-0.60607636,-0.59797657,-0.5924443,-0.5843445,-0.5727297,-0.560626,-0.55353487,-0.55102855,-0.5459547,-0.53687686,-0.5247425,-0.5141364,-0.50961274,-0.5065868,-0.4994957,-0.49292415,-0.49243516,-0.49497205,-0.49799794,-0.49799794,-0.49747837,-0.501513,-0.51163006,-0.5232448,-0.531314,-0.5399028,-0.55353487,-0.574258,-0.59647894,-0.6156738,-0.63132316,-0.64697254,-0.66515875,-0.6818168,-0.69395113,-0.7035486,-0.71516335,-0.72931504,-0.74092984,-0.74747074,-0.7510163,-0.7530336,-0.75706816,-0.76061374,-0.76263106,-0.76263106,-0.765657,-0.7702112,-0.7742458,-0.77323717,-0.77073085,-0.7692026,-0.77073085,-0.77073085,-0.7681939,-0.7646483,-0.7631507,-0.76516795,-0.7661766,-0.7631507,-0.75911605,-0.7575878,-0.7575878,-0.75706816,-0.75202495,-0.74698174,-0.74395573,-0.7454534,-0.74698174,-0.7454534,-0.74343616,-0.7444448,-0.74850994,-0.7515359,-0.74747074,-0.7404102,-0.7368646,-0.7383929,-0.7394016,-0.7404102,-0.7394016,-0.7368646,-0.73790383,-0.73738426,-0.7333497,-0.7303237,-0.732341,-0.7363756,-0.7383929,-0.73536694,-0.7313323,-0.7303237,-0.73283005,-0.7348473,-0.732341,-0.7277868,-0.72677815,-0.7318214,-0.7338387,-0.7313323,-0.7257695,-0.72121525,-0.72121525,-0.72222394,-0.7217349,-0.7217349,-0.7202066,-0.719198,-0.71818936,-0.7136351,-0.7111288,-0.7146438,-0.719198,-0.72072625,-0.71718067,-0.7111288,-0.7085919,-0.7106092,-0.71262646,-0.71213746,-0.7096005,-0.7075832,-0.70911145,-0.7101201,-0.70657456,-0.70403767,-0.70403767,-0.7085919,-0.71213746,-0.7101201,-0.7050463,-0.7010117,-0.70052266,-0.7010117,-0.6985054,-0.696488,-0.69596845,-0.6985054,-0.70302904,-0.70254,-0.700003,-0.69798577,-0.6989944,-0.700003,-0.6989944,-0.69697714,-0.69444025,-0.69395113,-0.6929425,-0.68991655,-0.68838835,-0.68991655,-0.69395113,-0.6974967,-0.6949598,-0.689397,-0.685882,-0.68789923,-0.69141424,-0.6919339,-0.69141424,-0.6889079,-0.68838835,-0.68789923,-0.68282545,-0.6772932,-0.6787908,-0.6833451,-0.68737966,-0.68536234,-0.6808082,-0.6777822,-0.67931044,-0.6833451,-0.6823364,-0.6777822,-0.6777822,-0.68282545,-0.68838835,-0.6889079,-0.6843537,-0.6752758,-0.666687,-0.6616132,-0.6570896,-0.6555613,-0.6580982,-0.6595959,-0.653544,-0.63737506,-0.61818016,-0.61111957,-0.6191888,-0.6389034,-0.6525354,-0.6510072,-0.63838375,-0.62325394,-0.61163926,-0.607085,-0.61466515,-0.63535774,-0.6676957,-0.7020204,-0.7252499,-0.7338387,-0.7338387,-0.732341,-0.7303237,-0.7252499,-0.719198,-0.71565247,-0.71617204,-0.71818936,-0.7227435,-0.7318214,-0.74747074,-0.75706816,-0.7404102,-0.6772932,-0.5439374,-0.32172877,-0.02020353,0.33484125,0.6727389,0.9106276,0.9545497,0.7782804,0.43637872,0.04645908,-0.28991044,-0.5227252,-0.6585873,-0.75404227,-0.83586514,-0.90051043,-0.9374026,-0.9474891,-0.9378916,-0.92172265,-0.9090992,-0.904056,-0.9035364,-0.9015191,-0.89042395,-0.87728095,-0.8646575,-0.85606873,-0.8494972,-0.8409084,-0.828285,-0.8202158,-0.81767887,-0.81566155,-0.8100987,-0.80001223,-0.7909344,-0.7873888,-0.7848519,-0.77931964,-0.77121985,-0.762142,-0.7575878,-0.7560595,-0.7515359,-0.74395573,-0.7363756,-0.7313323,-0.7277868,-0.72222394,-0.71718067,-0.7131461,-0.7101201,-0.70403767,-0.6929425,-0.6808082,-0.6712107,-0.6676957,-0.6636611,-0.6575786,-0.64950943,-0.64345753,-0.64092064,-0.63737506,-0.62878627,-0.61818016,-0.60656536,-0.60002446,-0.5939419,-0.58535314,-0.57627535,-0.56768656,-0.5651496,-0.56212366,-0.5565608,-0.5484916,-0.5388941,-0.5333313,-0.5292967,-0.5242535,-0.5192102,-0.5192102,-0.5217165,-0.5232448,-0.52021885,-0.51514506,-0.51566464,-0.52223617,-0.531314,-0.53739643,-0.54192007,-0.5480026,-0.561115,-0.577284,-0.59192467,-0.6055567,-0.62071705,-0.6393924,-0.65656996,-0.67273897,-0.6868906,-0.7010117,-0.7166916,-0.7287954,-0.7343583,-0.7383929,-0.7454534,-0.75706816,-0.765657,-0.7661766,-0.7641593,-0.76516795,-0.76972216,-0.77727175,-0.7762631,-0.7702112,-0.7661766,-0.7661766,-0.7671853,-0.7646483,-0.762142,-0.7616224,-0.7636397,-0.765657,-0.7616224,-0.7530336,-0.74951863,-0.74951863,-0.74850994,-0.74343616,-0.7363756,-0.7333497,-0.73738426,-0.7419385,-0.74395573,-0.73992115,-0.7363756,-0.7363756,-0.7368646,-0.7348473,-0.7318214,-0.73283005,-0.73585594,-0.73891246,-0.7363756,-0.7313323,-0.7287954,-0.73283005,-0.73790383,-0.7383929,-0.73536694,-0.73283005,-0.7368646,-0.74141884,-0.74141884,-0.73585594,-0.7308127,-0.7303237,-0.73283005,-0.7338387,-0.7333497,-0.7313323,-0.7313323,-0.7318214,-0.72931504,-0.7257695,-0.72424126,-0.7287954,-0.7338387,-0.732341,-0.7287954,-0.72476083,-0.72476083,-0.7252499,-0.7237522,-0.72072625,-0.71770024,-0.7197176,-0.72323257,-0.72222394,-0.71870893,-0.71617204,-0.71718067,-0.719198,-0.71870893,-0.71617204,-0.71516335,-0.7166916,-0.71870893,-0.7166916,-0.7141547,-0.7136351,-0.7166916,-0.71870893,-0.71617204,-0.7096005,-0.70608556,-0.7085919,-0.7131461,-0.7136351,-0.7101201,-0.70608556,-0.7050463,-0.70608556,-0.70403767,-0.6985054,-0.6974967,-0.7010117,-0.70608556,-0.7085919,-0.7055659,-0.70254,-0.70403767,-0.7055659,-0.7045573,-0.7015313,-0.6989944,-0.70052266,-0.70403767,-0.7035486,-0.700003,-0.69798577,-0.69697714,-0.6954794,-0.69141424,-0.68789923,-0.689397,-0.69697714,-0.70403767,-0.7050463,-0.70052266,-0.696488,-0.6985054,-0.70052266,-0.6985054,-0.69242287,-0.685882,-0.68282545,-0.68282545,-0.67931044,-0.67677355,-0.6762845,-0.6777822,-0.6772932,-0.6656784,-0.6454748,-0.62878627,-0.6272886,-0.64192927,-0.66213286,-0.6717303,-0.666687,-0.65051806,-0.6323318,-0.6197084,-0.6197084,-0.6338601,-0.66213286,-0.69395113,-0.719198,-0.73585594,-0.74242747,-0.74597305,-0.7454534,-0.74092984,-0.73536694,-0.7318214,-0.7333497,-0.7348473,-0.7348473,-0.73790383,-0.74799037,-0.7671853,-0.77727175,-0.75404227,-0.6777822,-0.52880764,-0.29648197,0.014640689,0.36060762,0.67374766,0.8757527,0.8808265,0.68536234,0.35455573,-0.0060518384,-0.31112272,-0.52070785,-0.6489898,-0.748999,-0.8388911,-0.91111654,-0.9560779,-0.96818167,-0.9540606,-0.933857,-0.91820765,-0.9106275,-0.9055537,-0.8980041,-0.8868784,-0.8767919,-0.8732463,-0.8682031,-0.8601033,-0.8490082,-0.8388911,-0.83235013,-0.8288046,-0.8227527,-0.8141639,-0.80707276,-0.80456644,-0.8030382,-0.79747534,-0.7894061,-0.7782804,-0.7717395,-0.7661766,-0.7585965,-0.75202495,-0.74698174,-0.74597305,-0.7464621,-0.7429471,-0.7338387,-0.7252499,-0.719198,-0.7136351,-0.7075832,-0.7015313,-0.696488,-0.6919339,-0.68637097,-0.6762845,-0.6641501,-0.6555613,-0.653544,-0.65152675,-0.64345753,-0.63184273,-0.62071705,-0.6126479,-0.607085,-0.5989852,-0.5888988,-0.5798209,-0.5752667,-0.5712321,-0.5636519,-0.55353487,-0.5439374,-0.5399028,-0.53586817,-0.5318336,-0.5252621,-0.5212275,-0.52373385,-0.527799,-0.52880764,-0.5257511,-0.52373385,-0.5272794,-0.53232265,-0.53687686,-0.54192007,-0.55151755,-0.5686952,-0.59091604,-0.61212826,-0.62878627,-0.6439466,-0.6616132,-0.6797995,-0.69343156,-0.7050463,-0.71516335,-0.7287954,-0.74141884,-0.7500076,-0.7550509,-0.7585965,-0.765657,-0.7727481,-0.7762631,-0.77727175,-0.7777914,-0.7813369,-0.7833542,-0.7813369,-0.7762631,-0.7752545,-0.7803283,-0.7848519,-0.7868692,-0.7813369,-0.77476543,-0.7727481,-0.7722285,-0.7702112,-0.76666564,-0.7646483,-0.765657,-0.76871353,-0.7676743,-0.76263106,-0.7585965,-0.75911605,-0.76061374,-0.76061374,-0.7560595,-0.7510163,-0.7500076,-0.7510163,-0.75052726,-0.74799037,-0.74747074,-0.7510163,-0.75557053,-0.7575878,-0.7550509,-0.7515359,-0.7515359,-0.7515359,-0.75052726,-0.74747074,-0.74698174,-0.7510163,-0.75657916,-0.75657916,-0.7510163,-0.74496436,-0.74343616,-0.74496436,-0.74698174,-0.74597305,-0.74242747,-0.74395573,-0.74496436,-0.74597305,-0.74343616,-0.74092984,-0.74092984,-0.7419385,-0.74141884,-0.73891246,-0.73738426,-0.73738426,-0.73790383,-0.7368646,-0.7348473,-0.7343583,-0.7363756,-0.73738426,-0.7338387,-0.7272978,-0.72323257,-0.72424126,-0.7262585,-0.7257695,-0.72323257,-0.72121525,-0.72222394,-0.7237522,-0.7217349,-0.71617204,-0.7141547,-0.71818936,-0.7237522,-0.7252499,-0.72072625,-0.71565247,-0.7146438,-0.71516335,-0.71565247,-0.7146438,-0.71262646,-0.71516335,-0.71617204,-0.71213746,-0.70657456,-0.70403767,-0.7081028,-0.7131461,-0.7146438,-0.7101201,-0.70608556,-0.7070942,-0.7101201,-0.71262646,-0.7085919,-0.70608556,-0.70657456,-0.7081028,-0.7075832,-0.7045573,-0.700003,-0.70052266,-0.70302904,-0.7045573,-0.7050463,-0.7050463,-0.70608556,-0.70657456,-0.70254,-0.69697714,-0.69444025,-0.6989944,-0.7050463,-0.70657456,-0.70254,-0.69697714,-0.6954794,-0.69697714,-0.6974967,-0.6954794,-0.6929425,-0.69141424,-0.68991655,-0.68487334,-0.6757649,-0.6712107,-0.6747562,-0.6818168,-0.6833451,-0.6757649,-0.6595959,-0.6429379,-0.6308036,-0.6282972,-0.6358774,-0.6510072,-0.66466975,-0.6656784,-0.64950943,-0.62627995,-0.6126479,-0.61818016,-0.63737506,-0.666687,-0.69596845,-0.72072625,-0.74092984,-0.748999,-0.7454534,-0.73536694,-0.72677815,-0.7262585,-0.7298041,-0.732341,-0.7313323,-0.7338387,-0.7444448,-0.762142,-0.7803283,-0.7848519,-0.7575878,-0.68536234,-0.5394138,-0.30100554,0.019684076,0.37677658,0.6929424,0.89595616,0.9086102,0.7247608,0.40202343,0.04141581,-0.26567227,-0.47525752,-0.60353947,-0.71213746,-0.82122445,-0.91313386,-0.96717304,-0.97777915,-0.9616407,-0.9434545,-0.9328484,-0.9267965,-0.91921633,-0.9116362,-0.90506464,-0.8980041,-0.8888957,-0.87578326,-0.8646575,-0.85658836,-0.85001683,-0.84191704,-0.8303023,-0.8222331,-0.81566155,-0.811627,-0.80557513,-0.7959776,-0.7909344,-0.7909344,-0.7894061,-0.7838433,-0.77323717,-0.76263106,-0.7596051,-0.75657916,-0.7530336,-0.74496436,-0.7368646,-0.732341,-0.72931504,-0.72323257,-0.71262646,-0.70302904,-0.6985054,-0.6954794,-0.69141424,-0.6808082,-0.6691934,-0.6611242,-0.65656996,-0.65152675,-0.6454748,-0.63789463,-0.63184273,-0.62627995,-0.61818016,-0.6055567,-0.5949507,-0.58837914,-0.5833359,-0.5747471,-0.5626433,-0.5495003,-0.54192007,-0.5384052,-0.53485954,-0.5272794,-0.5217165,-0.52021885,-0.5161842,-0.5131277,-0.50557816,-0.5020326,-0.50606716,-0.5136473,-0.5176819,-0.5186906,-0.5212275,-0.5303053,-0.5454657,-0.56010634,-0.57324934,-0.58837914,-0.6080936,-0.63184273,-0.65152675,-0.6661674,-0.67931044,-0.6949598,-0.7111288,-0.72476083,-0.73283005,-0.7383929,-0.74597305,-0.7550509,-0.76263106,-0.76666564,-0.7681939,-0.7717395,-0.7752545,-0.77727175,-0.7777914,-0.77727175,-0.78081733,-0.7828346,-0.7828346,-0.7777914,-0.7727481,-0.77323717,-0.7762631,-0.7777914,-0.7762631,-0.7727481,-0.77073085,-0.77073085,-0.7692026,-0.7646483,-0.75911605,-0.7575878,-0.75706816,-0.75706816,-0.7560595,-0.7550509,-0.75706816,-0.75911605,-0.75657916,-0.75052726,-0.74597305,-0.74799037,-0.7525445,-0.7575878,-0.75557053,-0.7515359,-0.75052726,-0.7510163,-0.7515359,-0.7500076,-0.74747074,-0.74698174,-0.74747074,-0.74850994,-0.74597305,-0.74343616,-0.7444448,-0.7464621,-0.74747074,-0.7444448,-0.7419385,-0.7404102,-0.74092984,-0.74092984,-0.7394016,-0.73790383,-0.7383929,-0.7394016,-0.7363756,-0.7313323,-0.7277868,-0.7287954,-0.7338387,-0.73585594,-0.732341,-0.7287954,-0.72677815,-0.7272978,-0.7262585,-0.7217349,-0.71770024,-0.71818936,-0.719198,-0.7202066,-0.71818936,-0.71565247,-0.71718067,-0.7197176,-0.72072625,-0.71718067,-0.71262646,-0.71262646,-0.71213746,-0.7106092,-0.70657456,-0.7035486,-0.7081028,-0.7146438,-0.7197176,-0.7197176,-0.71770024,-0.7166916,-0.71565247,-0.7106092,-0.70403767,-0.6985054,-0.69951403,-0.7050463,-0.7085919,-0.7075832,-0.7055659,-0.7050463,-0.70608556,-0.7045573,-0.69951403,-0.69697714,-0.70052266,-0.7050463,-0.7081028,-0.7045573,-0.7010117,-0.700003,-0.70052266,-0.70052266,-0.696488,-0.69395113,-0.696488,-0.7015313,-0.70254,-0.69951403,-0.6929425,-0.69242287,-0.69343156,-0.6954794,-0.69444025,-0.6919339,-0.6919339,-0.6929425,-0.6929425,-0.6904056,-0.68838835,-0.69092524,-0.69092524,-0.68737966,-0.67931044,-0.670202,-0.66818476,-0.6717303,-0.6747562,-0.67273897,-0.6661674,-0.6570896,-0.6429379,-0.6257603,-0.6126479,-0.6141455,-0.6328515,-0.6540636,-0.6656784,-0.6545527,-0.6328515,-0.6156738,-0.61212826,-0.6186998,-0.6343491,-0.65910685,-0.6889079,-0.719198,-0.73891246,-0.7444448,-0.7383929,-0.7348473,-0.7343583,-0.7343583,-0.732341,-0.72931504,-0.7272978,-0.7308127,-0.7394016,-0.7530336,-0.7692026,-0.7717395,-0.73992115,-0.6485008,-0.46617967,-0.19042087,0.15203106,0.5050585,0.79496896,0.94495213,0.88635874,0.6313232,0.26616144,-0.095974624,-0.37222242,-0.5429287,-0.65305495,-0.75706816,-0.8555797,-0.92881376,-0.96313846,-0.96717304,-0.9555583,-0.94091755,-0.9227313,-0.90252775,-0.88788706,-0.8782896,-0.87627226,-0.8767919,-0.8792982,-0.8813155,-0.8808265,-0.87122905,-0.85658836,-0.8394107,-0.8288046,-0.8232417,-0.8171898,-0.80808145,-0.7959776,-0.7868692,-0.7838433,-0.7823456,-0.77727175,-0.77121985,-0.7646483,-0.7585965,-0.7530336,-0.74395573,-0.7348473,-0.7313323,-0.72424126,-0.71516335,-0.70403767,-0.69444025,-0.69141424,-0.69242287,-0.6889079,-0.6777822,-0.666687,-0.6606046,-0.6575786,-0.6520158,-0.64140964,-0.6308036,-0.62527126,-0.623743,-0.62071705,-0.6091023,-0.59345293,-0.5798209,-0.5692148,-0.5631323,-0.55961734,-0.5575695,-0.5580891,-0.5575695,-0.5495003,-0.5333313,-0.5186906,-0.5101018,-0.5090931,-0.5065868,-0.5000153,-0.49191546,-0.48940915,-0.4934438,-0.49848706,-0.49848706,-0.50102395,-0.50707585,-0.51566464,-0.52627075,-0.5333313,-0.54143107,-0.5570804,-0.5808295,-0.6045481,-0.62426263,-0.640401,-0.6585873,-0.6783018,-0.69242287,-0.69951403,-0.7045573,-0.71213746,-0.7272978,-0.74242747,-0.75052726,-0.7530336,-0.75404227,-0.75557053,-0.76061374,-0.7636397,-0.7681939,-0.77375674,-0.77727175,-0.7788,-0.77577406,-0.7722285,-0.77073085,-0.7702112,-0.7671853,-0.7611334,-0.7585965,-0.7601247,-0.7646483,-0.7661766,-0.7601247,-0.75404227,-0.7515359,-0.7525445,-0.75052726,-0.74799037,-0.7454534,-0.7454534,-0.748999,-0.74850994,-0.74092984,-0.73536694,-0.7368646,-0.74242747,-0.7464621,-0.74395573,-0.7394016,-0.73585594,-0.7368646,-0.73738426,-0.732341,-0.7287954,-0.7308127,-0.7394016,-0.7454534,-0.7404102,-0.72931504,-0.71870893,-0.7146438,-0.71565247,-0.71617204,-0.71565247,-0.71617204,-0.71617204,-0.7136351,-0.7070942,-0.70403767,-0.7070942,-0.71565247,-0.7217349,-0.72072625,-0.71213746,-0.7085919,-0.7101201,-0.7141547,-0.71565247,-0.71262646,-0.7106092,-0.7106092,-0.7106092,-0.7070942,-0.700003,-0.6949598,-0.69343156,-0.69444025,-0.69343156,-0.6919339,-0.69141424,-0.69444025,-0.69798577,-0.6989944,-0.6989944,-0.70254,-0.7081028,-0.7101201,-0.7035486,-0.6949598,-0.6904056,-0.69343156,-0.6974967,-0.69798577,-0.69596845,-0.69596845,-0.69798577,-0.6989944,-0.6954794,-0.68991655,-0.68838835,-0.69141424,-0.6954794,-0.69596845,-0.69395113,-0.69395113,-0.69395113,-0.6929425,-0.68737966,-0.6823364,-0.6797995,-0.6803191,-0.6838341,-0.6843537,-0.68487334,-0.685882,-0.68838835,-0.68838835,-0.685882,-0.68487334,-0.68536234,-0.68789923,-0.68789923,-0.6838341,-0.67931044,-0.6772932,-0.6787908,-0.67931044,-0.67677355,-0.6737476,-0.6752758,-0.67931044,-0.6823364,-0.6783018,-0.6717303,-0.6641501,-0.6601156,-0.6601156,-0.6616132,-0.6636611,-0.6656784,-0.66262186,-0.6489898,-0.62930584,-0.61515415,-0.61515415,-0.6303145,-0.6474922,-0.653544,-0.6459639,-0.6303145,-0.61818016,-0.6106305,-0.61111957,-0.62325394,-0.6485008,-0.6803191,-0.70911145,-0.72424126,-0.7237522,-0.7202066,-0.71870893,-0.719198,-0.71617204,-0.7116178,-0.7106092,-0.7136351,-0.7197176,-0.7262585,-0.7343583,-0.7429471,-0.73891246,-0.7045573,-0.61515415,-0.4434392,-0.18485802,0.14393127,0.4898982,0.78234553,0.92224216,0.84747994,0.5712321,0.18384945,-0.19243813,-0.4777944,-0.64798117,-0.7429471,-0.81061834,-0.8606229,-0.8934499,-0.90760154,-0.9086102,-0.90506464,-0.9000214,-0.89546716,-0.88788706,-0.8808265,-0.8707094,-0.857597,-0.8459822,-0.83840203,-0.83283925,-0.82727635,-0.81868756,-0.8090901,-0.8025491,-0.7994926,-0.79646665,-0.7909344,-0.7828346,-0.7717395,-0.7641593,-0.75706816,-0.75052726,-0.74747074,-0.74799037,-0.7500076,-0.74747074,-0.73891246,-0.7277868,-0.719198,-0.71262646,-0.7075832,-0.6989944,-0.6919339,-0.68838835,-0.68838835,-0.6889079,-0.6823364,-0.6737476,-0.6687044,-0.6661674,-0.6611242,-0.65152675,-0.64140964,-0.6343491,-0.63132316,-0.6282972,-0.6191888,-0.6080936,-0.5995048,-0.59547025,-0.5924443,-0.58486414,-0.57627535,-0.57071245,-0.56768656,-0.5641409,-0.5580891,-0.5495003,-0.5439374,-0.54192007,-0.5399028,-0.5343399,-0.5298163,-0.52828807,-0.53082496,-0.5338509,-0.5333313,-0.527799,-0.5252621,-0.5292967,-0.53739643,-0.54696333,-0.5590977,-0.5727297,-0.5878901,-0.6025308,-0.6136565,-0.62426263,-0.6393924,-0.65608096,-0.669713,-0.6787908,-0.685882,-0.696488,-0.71262646,-0.7283064,-0.7363756,-0.7419385,-0.74951863,-0.7575878,-0.7646483,-0.76516795,-0.7636397,-0.7641593,-0.76666564,-0.7681939,-0.765657,-0.7616224,-0.762142,-0.7641593,-0.765657,-0.7611334,-0.75202495,-0.7454534,-0.74496436,-0.74597305,-0.7464621,-0.74496436,-0.74395573,-0.7444448,-0.7444448,-0.7419385,-0.73790383,-0.7363756,-0.7363756,-0.7368646,-0.7343583,-0.7333497,-0.73283005,-0.7348473,-0.7363756,-0.7338387,-0.7298041,-0.7287954,-0.732341,-0.7333497,-0.7303237,-0.7257695,-0.72424126,-0.72677815,-0.7318214,-0.7318214,-0.7303237,-0.7303237,-0.73283005,-0.7348473,-0.73283005,-0.72931504,-0.72677815,-0.7283064,-0.7303237,-0.7257695,-0.71770024,-0.7070942,-0.6989944,-0.6949598,-0.70052266,-0.7136351,-0.732341,-0.74850994,-0.75052726,-0.7368646,-0.72222394,-0.7131461,-0.7141547,-0.7197176,-0.7202066,-0.7166916,-0.7131461,-0.7131461,-0.7141547,-0.71262646,-0.7101201,-0.7101201,-0.71262646,-0.71516335,-0.7131461,-0.7111288,-0.7106092,-0.7141547,-0.71770024,-0.71617204,-0.7131461,-0.7111288,-0.7131461,-0.71565247,-0.7166916,-0.7146438,-0.71262646,-0.71262646,-0.71262646,-0.70911145,-0.7070942,-0.7081028,-0.7101201,-0.7136351,-0.7106092,-0.7050463,-0.7045573,-0.7075832,-0.7116178,-0.71262646,-0.7096005,-0.70657456,-0.70657456,-0.7070942,-0.70608556,-0.7035486,-0.70403767,-0.70608556,-0.7070942,-0.7055659,-0.7020204,-0.700003,-0.70052266,-0.700003,-0.6974967,-0.69343156,-0.68991655,-0.6889079,-0.68536234,-0.6803191,-0.6762845,-0.6762845,-0.6808082,-0.6803191,-0.67273897,-0.6580982,-0.64140964,-0.63132316,-0.63132316,-0.64140964,-0.6555613,-0.6676957,-0.67072165,-0.6585873,-0.6389034,-0.62172574,-0.6171715,-0.63132316,-0.6570896,-0.685882,-0.7111288,-0.7272978,-0.7348473,-0.7363756,-0.73283005,-0.7298041,-0.7313323,-0.7338387,-0.7343583,-0.7298041,-0.72677815,-0.7313323,-0.748999,-0.7702112,-0.7762631,-0.7510163,-0.68282545,-0.5495003,-0.33031756,-0.027264178,0.31971145,0.6383836,0.85506,0.89192164,0.73383856,0.43231356,0.0828315,-0.23183662,-0.4565822,-0.5959593,-0.7045573,-0.8090901,-0.8974845,-0.953541,-0.9692209,-0.95656693,-0.936883,-0.9257573,-0.9227313,-0.9166794,-0.9086102,-0.8934499,-0.8788092,-0.8661858,-0.85606873,-0.85252315,-0.85356236,-0.85457104,-0.8505058,-0.83840203,-0.82477003,-0.81517255,-0.81263566,-0.8090901,-0.8015405,-0.78787786,-0.77727175,-0.7722285,-0.77073085,-0.7671853,-0.7601247,-0.75404227,-0.75202495,-0.75052726,-0.74395573,-0.7338387,-0.72424126,-0.719198,-0.71617204,-0.7081028,-0.69395113,-0.6808082,-0.6757649,-0.67931044,-0.68487334,-0.68789923,-0.68487334,-0.6762845,-0.6636611,-0.64697254,-0.6323318,-0.62325394,-0.61818016,-0.61515415,-0.60656536,-0.5939419,-0.58232725,-0.5757557,-0.57071245,-0.5636519,-0.55353487,-0.5429287,-0.53687686,-0.5328423,-0.52880764,-0.5242535,-0.5212275,-0.5196992,-0.5196992,-0.51566464,-0.51163006,-0.5086041,-0.51163006,-0.5166733,-0.52070785,-0.52627075,-0.5363573,-0.55353487,-0.5747471,-0.5949507,-0.61515415,-0.6338601,-0.6540636,-0.669713,-0.6783018,-0.6868906,-0.6989944,-0.7166916,-0.732341,-0.7419385,-0.74747074,-0.7535532,-0.7616224,-0.7676743,-0.76666564,-0.7636397,-0.7641593,-0.76972216,-0.77476543,-0.7742458,-0.7702112,-0.76972216,-0.77375674,-0.7782804,-0.7782804,-0.77577406,-0.77375674,-0.77931964,-0.78537154,-0.7833542,-0.7777914,-0.7692026,-0.7611334,-0.75911605,-0.7596051,-0.7601247,-0.7661766,-0.77121985,-0.7742458,-0.76871353,-0.7596051,-0.75456184,-0.7550509,-0.7575878,-0.75706816,-0.75456184,-0.75202495,-0.75404227,-0.7560595,-0.7550509,-0.7510163,-0.74698174,-0.74747074,-0.74951863,-0.74799037,-0.74496436,-0.74343616,-0.74496436,-0.74698174,-0.74597305,-0.74092984,-0.7383929,-0.73891246,-0.7419385,-0.74242747,-0.7404102,-0.7383929,-0.7394016,-0.73992115,-0.7368646,-0.7308127,-0.7283064,-0.7303237,-0.7338387,-0.73585594,-0.7343583,-0.7313323,-0.7308127,-0.7308127,-0.7277868,-0.72476083,-0.72424126,-0.7277868,-0.7313323,-0.7283064,-0.7237522,-0.719198,-0.72072625,-0.72323257,-0.7237522,-0.7202066,-0.71770024,-0.7202066,-0.7227435,-0.72323257,-0.7237522,-0.7227435,-0.72476083,-0.7252499,-0.72072625,-0.7146438,-0.7111288,-0.7116178,-0.7136351,-0.71262646,-0.7111288,-0.7111288,-0.7146438,-0.71770024,-0.71617204,-0.71213746,-0.7081028,-0.70911145,-0.7111288,-0.7106092,-0.7085919,-0.70608556,-0.7101201,-0.7131461,-0.71262646,-0.70911145,-0.70302904,-0.7010117,-0.7010117,-0.7010117,-0.69951403,-0.69798577,-0.700003,-0.70403767,-0.7035486,-0.7015313,-0.69951403,-0.700003,-0.7015313,-0.70052266,-0.6974967,-0.69444025,-0.6949598,-0.6949598,-0.69343156,-0.6904056,-0.68789923,-0.689397,-0.69141424,-0.6904056,-0.68838835,-0.68637097,-0.685882,-0.685882,-0.6818168,-0.6772932,-0.6757649,-0.6783018,-0.6797995,-0.6757649,-0.6636611,-0.6464835,-0.6308036,-0.62172574,-0.623743,-0.63636637,-0.6540636,-0.66515875,-0.6595959,-0.6389034,-0.61668247,-0.6080936,-0.6197084,-0.6454748,-0.67273897,-0.6985054,-0.7202066,-0.73585594,-0.7444448,-0.74343616,-0.73738426,-0.7338387,-0.7338387,-0.7343583,-0.7283064,-0.7227435,-0.7252499,-0.7404102,-0.7646483,-0.7848519,-0.78081733,-0.7394016,-0.6464835,-0.47272062,-0.20756793,0.12828183,0.47525752,0.75960505,0.90405595,0.8500167,0.61515415,0.2742306,-0.07121688,-0.3454473,-0.52070785,-0.63737506,-0.74850994,-0.85506004,-0.933857,-0.9676927,-0.96313846,-0.9434545,-0.92982244,-0.92526823,-0.92022496,-0.9106275,-0.89901274,-0.89192164,-0.88586974,-0.8782896,-0.86869216,-0.8586056,-0.85252315,-0.8469909,-0.83840203,-0.82727635,-0.81667024,-0.811627,-0.8075924,-0.8005318,-0.7909344,-0.7833542,-0.78081733,-0.7782804,-0.7727481,-0.7641593,-0.75404227,-0.74951863,-0.7454534,-0.7383929,-0.7298041,-0.7237522,-0.72476083,-0.72323257,-0.71770024,-0.7075832,-0.696488,-0.69092524,-0.685882,-0.67931044,-0.669713,-0.6611242,-0.65608096,-0.6499985,-0.64192927,-0.6303145,-0.6201974,-0.61466515,-0.6091023,-0.6005135,-0.5888988,-0.57777303,-0.5717211,-0.5661583,-0.55607176,-0.5429287,-0.5298163,-0.52223617,-0.5182016,-0.51514506,-0.5101018,-0.5050585,-0.5045389,-0.50353026,-0.4994957,-0.49497205,-0.4909069,-0.49191546,-0.4954611,-0.49799794,-0.5000153,-0.5065868,-0.5217165,-0.54143107,-0.561115,-0.5793013,-0.5989852,-0.6191888,-0.63789463,-0.6520158,-0.66213286,-0.6742672,-0.6904056,-0.7075832,-0.72072625,-0.7298041,-0.73790383,-0.74799037,-0.75706816,-0.7616224,-0.7616224,-0.7631507,-0.7692026,-0.77375674,-0.7752545,-0.7722285,-0.7727481,-0.77727175,-0.7828346,-0.7843629,-0.77931964,-0.7752545,-0.77476543,-0.77577406,-0.77476543,-0.7717395,-0.7671853,-0.76871353,-0.7717395,-0.7717395,-0.76972216,-0.7671853,-0.76666564,-0.765657,-0.7641593,-0.76061374,-0.75911605,-0.7611334,-0.7601247,-0.75706816,-0.75202495,-0.75052726,-0.75456184,-0.7601247,-0.76061374,-0.75657916,-0.7515359,-0.75456184,-0.75657916,-0.75557053,-0.7500076,-0.74395573,-0.74343616,-0.7464621,-0.74799037,-0.7454534,-0.74242747,-0.74141884,-0.7429471,-0.74343616,-0.7404102,-0.7394016,-0.74343616,-0.74698174,-0.74698174,-0.74343616,-0.74141884,-0.74242747,-0.74092984,-0.73790383,-0.7298041,-0.72222394,-0.72323257,-0.72677815,-0.72931504,-0.7277868,-0.7257695,-0.7277868,-0.7298041,-0.7283064,-0.72323257,-0.7197176,-0.72072625,-0.7237522,-0.72476083,-0.7217349,-0.71770024,-0.71770024,-0.7202066,-0.71770024,-0.71213746,-0.7055659,-0.7050463,-0.7075832,-0.7096005,-0.7096005,-0.7096005,-0.7111288,-0.71262646,-0.7116178,-0.7085919,-0.7075832,-0.7101201,-0.7141547,-0.71565247,-0.7101201,-0.7055659,-0.7050463,-0.7055659,-0.70403767,-0.70052266,-0.6985054,-0.700003,-0.7045573,-0.7045573,-0.700003,-0.6954794,-0.6949598,-0.6974967,-0.69798577,-0.696488,-0.69395113,-0.6949598,-0.69697714,-0.696488,-0.6919339,-0.68838835,-0.689397,-0.69092524,-0.69141424,-0.68838835,-0.6889079,-0.6929425,-0.69951403,-0.69951403,-0.6929425,-0.68536234,-0.6838341,-0.68536234,-0.6868906,-0.6838341,-0.6808082,-0.6797995,-0.6803191,-0.6772932,-0.67072165,-0.6656784,-0.6671761,-0.6717303,-0.67072165,-0.6611242,-0.6439466,-0.62676895,-0.61769116,-0.6186998,-0.63132316,-0.64798117,-0.6580982,-0.653544,-0.6338601,-0.6106305,-0.5989852,-0.60656536,-0.62878627,-0.65910685,-0.68838835,-0.7131461,-0.7318214,-0.73992115,-0.73738426,-0.72931504,-0.7217349,-0.72072625,-0.72072625,-0.719198,-0.71617204,-0.71617204,-0.7262585,-0.7444448,-0.7631507,-0.7631507,-0.72931504,-0.6464835,-0.4813094,-0.22071087,0.12070179,0.48485494,0.7934406,0.9606321,0.9197054,0.6777822,0.3121313,-0.0691995,-0.37576795,-0.57022345,-0.685882,-0.7762631,-0.8601033,-0.9232509,-0.95152366,-0.94901735,-0.9353547,-0.9247486,-0.9186967,-0.91313386,-0.9020387,-0.8899043,-0.8818351,-0.8747746,-0.8646575,-0.8520341,-0.8409084,-0.83586514,-0.8333588,-0.8292936,-0.8222331,-0.8136443,-0.80808145,-0.8030382,-0.795458,-0.78537154,-0.77727175,-0.7752545,-0.7727481,-0.7641593,-0.7500076,-0.7383929,-0.73536694,-0.7394016,-0.74141884,-0.73585594,-0.7262585,-0.7197176,-0.71565247,-0.7116178,-0.7020204,-0.69343156,-0.6868906,-0.6838341,-0.67931044,-0.6717303,-0.6636611,-0.6585873,-0.653544,-0.64697254,-0.63486874,-0.6222453,-0.61466515,-0.60959136,-0.60506773,-0.5989852,-0.5939419,-0.5914357,-0.5868814,-0.577284,-0.5626433,-0.5484916,-0.54143107,-0.54042244,-0.5399028,-0.5363573,-0.5328423,-0.5333313,-0.5328423,-0.531314,-0.5257511,-0.52070785,-0.5212275,-0.5227252,-0.5242535,-0.5232448,-0.5232448,-0.5303053,-0.5424397,-0.5545435,-0.56466055,-0.5782926,-0.59797657,-0.6212367,-0.64092064,-0.6540636,-0.6636611,-0.6752758,-0.689397,-0.70403767,-0.7141547,-0.72424126,-0.7368646,-0.748999,-0.7581074,-0.7611334,-0.7616224,-0.765657,-0.7717395,-0.77476543,-0.7762631,-0.7762631,-0.77980864,-0.7823456,-0.78081733,-0.7722285,-0.7671853,-0.7681939,-0.77073085,-0.76972216,-0.7631507,-0.75557053,-0.7525445,-0.75404227,-0.7530336,-0.748999,-0.74698174,-0.74850994,-0.7510163,-0.74747074,-0.73790383,-0.7313323,-0.7318214,-0.7383929,-0.74496436,-0.74496436,-0.74242747,-0.7419385,-0.74141884,-0.7404102,-0.7368646,-0.7348473,-0.7348473,-0.73738426,-0.73891246,-0.7348473,-0.7338387,-0.7338387,-0.73585594,-0.7363756,-0.7313323,-0.7303237,-0.7313323,-0.7348473,-0.7383929,-0.7363756,-0.7338387,-0.7343583,-0.7338387,-0.7313323,-0.7252499,-0.71718067,-0.71718067,-0.72121525,-0.72476083,-0.7237522,-0.72072625,-0.7202066,-0.7202066,-0.719198,-0.7166916,-0.7131461,-0.71516335,-0.71818936,-0.71818936,-0.71565247,-0.71213746,-0.7136351,-0.7166916,-0.7146438,-0.7081028,-0.7015313,-0.7015313,-0.7045573,-0.7081028,-0.7081028,-0.7075832,-0.7101201,-0.71262646,-0.7136351,-0.70911145,-0.70403767,-0.70254,-0.7035486,-0.7050463,-0.70254,-0.7010117,-0.7010117,-0.7045573,-0.70657456,-0.7045573,-0.7015313,-0.7010117,-0.70254,-0.7020204,-0.6985054,-0.69596845,-0.696488,-0.69951403,-0.70254,-0.6989944,-0.69444025,-0.6929425,-0.69343156,-0.69444025,-0.69343156,-0.6919339,-0.6949598,-0.6985054,-0.69951403,-0.69596845,-0.69343156,-0.6949598,-0.700003,-0.7020204,-0.69798577,-0.6929425,-0.6919339,-0.69242287,-0.6919339,-0.685882,-0.6772932,-0.6747562,-0.6747562,-0.6762845,-0.67221934,-0.66466975,-0.6611242,-0.6545527,-0.64697254,-0.63838375,-0.6358774,-0.6474922,-0.6636611,-0.6712107,-0.66213286,-0.64192927,-0.62627995,-0.6212367,-0.62627995,-0.63838375,-0.6580982,-0.6868906,-0.7166916,-0.73738426,-0.74395573,-0.73992115,-0.73790383,-0.7368646,-0.73536694,-0.7303237,-0.72476083,-0.7227435,-0.7277868,-0.73790383,-0.7500076,-0.7641593,-0.7676743,-0.73891246,-0.65910685,-0.49799794,-0.24950331,0.07020807,0.41363823,0.713146,0.8904239,0.8661858,0.6389034,0.2838279,-0.085368395,-0.38133085,-0.57071245,-0.6838341,-0.7777914,-0.8601033,-0.9197054,-0.950026,-0.9545496,-0.94547176,-0.9318397,-0.9186967,-0.9086102,-0.9015191,-0.89445853,-0.8853807,-0.8732463,-0.8621206,-0.85506004,-0.8505058,-0.84396493,-0.83283925,-0.8222331,-0.81566155,-0.81315523,-0.8096097,-0.8020295,-0.7929517,-0.7873888,-0.7838433,-0.78081733,-0.7752545,-0.7676743,-0.7631507,-0.7585965,-0.7535532,-0.74597305,-0.73738426,-0.732341,-0.7287954,-0.72424126,-0.71718067,-0.7106092,-0.70608556,-0.7020204,-0.69697714,-0.6889079,-0.6808082,-0.6757649,-0.670202,-0.6636611,-0.653544,-0.6449552,-0.64140964,-0.63737506,-0.63132316,-0.62071705,-0.61011094,-0.60353947,-0.60002446,-0.5959593,-0.58587277,-0.57627535,-0.5692148,-0.5636519,-0.56010634,-0.55252624,-0.5449461,-0.54143107,-0.54192007,-0.5394138,-0.5338509,-0.5292967,-0.5267904,-0.5298163,-0.53232265,-0.531314,-0.5303053,-0.53485954,-0.54445696,-0.5555521,-0.5651496,-0.57627535,-0.59192467,-0.6106305,-0.62627995,-0.640401,-0.6525354,-0.6676957,-0.68487334,-0.700003,-0.7085919,-0.71718067,-0.7287954,-0.74141884,-0.75202495,-0.75557053,-0.75911605,-0.7641593,-0.76972216,-0.77375674,-0.7717395,-0.7692026,-0.76972216,-0.77323717,-0.77577406,-0.7742458,-0.77121985,-0.77121985,-0.7717395,-0.77073085,-0.7641593,-0.7585965,-0.7575878,-0.7596051,-0.76061374,-0.75557053,-0.75052726,-0.748999,-0.7500076,-0.7500076,-0.74496436,-0.73992115,-0.73992115,-0.7444448,-0.7464621,-0.74343616,-0.7394016,-0.73891246,-0.74242747,-0.74496436,-0.7419385,-0.73790383,-0.73738426,-0.7404102,-0.74242747,-0.7394016,-0.73536694,-0.7343583,-0.73585594,-0.73738426,-0.7363756,-0.7338387,-0.7343583,-0.73790383,-0.73891246,-0.73585594,-0.72931504,-0.72677815,-0.7298041,-0.73283005,-0.73283005,-0.7313323,-0.7303237,-0.7313323,-0.7338387,-0.732341,-0.7298041,-0.72931504,-0.7308127,-0.732341,-0.7287954,-0.7262585,-0.7252499,-0.7262585,-0.7262585,-0.7217349,-0.71770024,-0.71770024,-0.7202066,-0.7217349,-0.7197176,-0.71718067,-0.71818936,-0.72121525,-0.7227435,-0.71870893,-0.7136351,-0.71213746,-0.71262646,-0.71262646,-0.7101201,-0.7070942,-0.7075832,-0.7116178,-0.7131461,-0.70911145,-0.70608556,-0.70608556,-0.7085919,-0.7111288,-0.7085919,-0.7045573,-0.7045573,-0.7075832,-0.7085919,-0.7055659,-0.7010117,-0.7015313,-0.70403767,-0.7070942,-0.7055659,-0.7020204,-0.7020204,-0.7045573,-0.7075832,-0.7070942,-0.7050463,-0.70403767,-0.70302904,-0.7010117,-0.69596845,-0.69343156,-0.69697714,-0.700003,-0.7010117,-0.6974967,-0.69395113,-0.6954794,-0.7015313,-0.7045573,-0.7010117,-0.6954794,-0.69242287,-0.69242287,-0.69343156,-0.69141424,-0.689397,-0.68991655,-0.6919339,-0.6919339,-0.68536234,-0.6783018,-0.6757649,-0.67677355,-0.6777822,-0.6737476,-0.666687,-0.6555613,-0.6439466,-0.62979496,-0.61818016,-0.61818016,-0.6343491,-0.65305495,-0.66466975,-0.65656996,-0.6358774,-0.6186998,-0.6131369,-0.6197084,-0.63486874,-0.6595959,-0.68991655,-0.71818936,-0.7368646,-0.74141884,-0.7368646,-0.7333497,-0.7318214,-0.7313323,-0.72677815,-0.72121525,-0.7227435,-0.732341,-0.74747074,-0.762142,-0.77476543,-0.7722285,-0.7368646,-0.6454748,-0.4656601,-0.19393587,0.14747679,0.49344385,0.7788,0.9252682,0.8671944,0.62120605,0.26918733,-0.08029467,-0.35152978,-0.5252621,-0.64192927,-0.75404227,-0.85658836,-0.9282942,-0.96112114,-0.96112114,-0.94800866,-0.9343461,-0.920714,-0.91111654,-0.904056,-0.8984932,-0.8914326,-0.8808265,-0.86869216,-0.861112,-0.85658836,-0.8515145,-0.84142804,-0.8303023,-0.8207048,-0.81566155,-0.8111379,-0.8025491,-0.79496896,-0.7904148,-0.7883975,-0.7868692,-0.77931964,-0.76972216,-0.7641593,-0.762142,-0.75911605,-0.7530336,-0.7454534,-0.73790383,-0.7338387,-0.7283064,-0.71870893,-0.7101201,-0.7045573,-0.70254,-0.6989944,-0.689397,-0.6783018,-0.6687044,-0.66466975,-0.6631415,-0.65608096,-0.6474922,-0.6389034,-0.63184273,-0.6247517,-0.6136565,-0.60152215,-0.59042704,-0.5838555,-0.577284,-0.56768656,-0.5575695,-0.5495003,-0.5449461,-0.54042244,-0.53082496,-0.5196992,-0.51211905,-0.50961274,-0.50707585,-0.50353026,-0.5000153,-0.49900663,-0.50353026,-0.50606716,-0.5045389,-0.50304127,-0.50557816,-0.51566464,-0.5292967,-0.54091144,-0.55353487,-0.57022345,-0.5924443,-0.6156738,-0.63486874,-0.6510072,-0.6656784,-0.6818168,-0.69798577,-0.7085919,-0.71770024,-0.7287954,-0.73891246,-0.7464621,-0.748999,-0.7510163,-0.75706816,-0.76666564,-0.7727481,-0.77323717,-0.7702112,-0.7692026,-0.77323717,-0.77727175,-0.7762631,-0.7722285,-0.76972216,-0.76972216,-0.7702112,-0.7676743,-0.765657,-0.76666564,-0.76972216,-0.77121985,-0.76871353,-0.76263106,-0.7601247,-0.7596051,-0.7601247,-0.75706816,-0.75404227,-0.75557053,-0.7581074,-0.7596051,-0.75404227,-0.74747074,-0.74395573,-0.7464621,-0.75052726,-0.75052726,-0.74799037,-0.7464621,-0.748999,-0.7510163,-0.748999,-0.7454534,-0.7429471,-0.74395573,-0.74496436,-0.7404102,-0.73738426,-0.73790383,-0.7404102,-0.74698174,-0.7464621,-0.7419385,-0.7383929,-0.73738426,-0.73891246,-0.73790383,-0.7348473,-0.7333497,-0.7338387,-0.73536694,-0.7338387,-0.7313323,-0.7303237,-0.7313323,-0.732341,-0.7308127,-0.7262585,-0.7237522,-0.7252499,-0.7262585,-0.72424126,-0.7227435,-0.7227435,-0.7257695,-0.7287954,-0.72677815,-0.72222394,-0.72121525,-0.72323257,-0.72476083,-0.7217349,-0.7166916,-0.7136351,-0.71818936,-0.7217349,-0.72072625,-0.71617204,-0.7141547,-0.71617204,-0.71870893,-0.71718067,-0.7131461,-0.7111288,-0.71262646,-0.7146438,-0.7141547,-0.7111288,-0.7101201,-0.71262646,-0.7131461,-0.7106092,-0.7070942,-0.7055659,-0.7081028,-0.7111288,-0.7085919,-0.70403767,-0.7020204,-0.7045573,-0.7070942,-0.7075832,-0.70302904,-0.69951403,-0.69951403,-0.70052266,-0.69798577,-0.6954794,-0.6929425,-0.6949598,-0.6974967,-0.696488,-0.6949598,-0.6929425,-0.6949598,-0.6974967,-0.6974967,-0.69596845,-0.69596845,-0.69798577,-0.69798577,-0.69343156,-0.68991655,-0.68789923,-0.689397,-0.6904056,-0.68487334,-0.67677355,-0.67221934,-0.67273897,-0.6752758,-0.6747562,-0.666687,-0.6555613,-0.6424489,-0.6282972,-0.62071705,-0.62527126,-0.640401,-0.6570896,-0.6611242,-0.6464835,-0.6247517,-0.6126479,-0.61769116,-0.636886,-0.6601156,-0.68487334,-0.7075832,-0.72677815,-0.7394016,-0.74092984,-0.7368646,-0.7348473,-0.7363756,-0.7394016,-0.7368646,-0.7318214,-0.7287954,-0.7343583,-0.748999,-0.76516795,-0.7762631,-0.7646483,-0.71262646,-0.5914357,-0.37375063,-0.06617361,0.2944342,0.6338601,0.88030684,0.9520432,0.81162703,0.49900663,0.117186785,-0.22425652,-0.46315372,-0.60002446,-0.69798577,-0.7979949,-0.8888957,-0.9459608,-0.9661644,-0.9616407,-0.95051503,-0.94091755,-0.9293028,-0.91567075,-0.9020387,-0.89293027,-0.88586974,-0.8778005,-0.86921173,-0.86312926,-0.8586056,-0.85356236,-0.8429563,-0.83082193,-0.8196962,-0.8146529,-0.8111379,-0.8040468,-0.79496896,-0.78787786,-0.7823456,-0.77727175,-0.77073085,-0.7636397,-0.7575878,-0.75557053,-0.7525445,-0.7464621,-0.73790383,-0.7313323,-0.72931504,-0.7257695,-0.71770024,-0.7075832,-0.6989944,-0.6954794,-0.69141424,-0.6833451,-0.6717303,-0.6611242,-0.6575786,-0.65656996,-0.65152675,-0.64345753,-0.6333405,-0.6272886,-0.6197084,-0.6091023,-0.59696794,-0.5863618,-0.58131856,-0.57627535,-0.56768656,-0.5575695,-0.55001986,-0.54647434,-0.5439374,-0.53739643,-0.5303053,-0.5252621,-0.52223617,-0.5192102,-0.51211905,-0.50304127,-0.5000153,-0.50353026,-0.5101018,-0.51465595,-0.5176819,-0.5217165,-0.53082496,-0.54143107,-0.5520372,-0.5636519,-0.57777303,-0.59696794,-0.61818016,-0.6333405,-0.6485008,-0.6631415,-0.6803191,-0.696488,-0.7085919,-0.71870893,-0.7298041,-0.7429471,-0.7535532,-0.7585965,-0.7601247,-0.7641593,-0.77375674,-0.78081733,-0.7823456,-0.77931964,-0.7767827,-0.7782804,-0.77931964,-0.7762631,-0.7717395,-0.7702112,-0.77323717,-0.77577406,-0.77323717,-0.76871353,-0.76666564,-0.76972216,-0.7727481,-0.7692026,-0.7611334,-0.75404227,-0.7525445,-0.7535532,-0.7515359,-0.74850994,-0.74799037,-0.75202495,-0.75657916,-0.75456184,-0.74747074,-0.7419385,-0.74343616,-0.748999,-0.7515359,-0.748999,-0.7454534,-0.7444448,-0.74496436,-0.74395573,-0.74092984,-0.73891246,-0.74092984,-0.74496436,-0.74698174,-0.7454534,-0.7444448,-0.74496436,-0.74395573,-0.74092984,-0.7368646,-0.7348473,-0.73738426,-0.74092984,-0.73891246,-0.7338387,-0.72931504,-0.7287954,-0.7313323,-0.7308127,-0.7277868,-0.7237522,-0.7227435,-0.7217349,-0.719198,-0.71718067,-0.71770024,-0.72072625,-0.72424126,-0.7227435,-0.71770024,-0.7146438,-0.71770024,-0.72072625,-0.72072625,-0.71770024,-0.7136351,-0.7131461,-0.7141547,-0.7131461,-0.7096005,-0.7070942,-0.7085919,-0.7101201,-0.7096005,-0.7085919,-0.7085919,-0.7116178,-0.7146438,-0.7131461,-0.7081028,-0.70403767,-0.7045573,-0.70608556,-0.7055659,-0.70403767,-0.70254,-0.7050463,-0.7081028,-0.7070942,-0.70302904,-0.69798577,-0.6985054,-0.69798577,-0.6974967,-0.69697714,-0.69697714,-0.7010117,-0.70254,-0.6989944,-0.6919339,-0.689397,-0.69141424,-0.6949598,-0.69343156,-0.6868906,-0.6797995,-0.6777822,-0.6772932,-0.6742672,-0.6687044,-0.6636611,-0.6611242,-0.6606046,-0.6601156,-0.6601156,-0.66515875,-0.6737476,-0.6772932,-0.6737476,-0.6671761,-0.66262186,-0.6671761,-0.67677355,-0.6843537,-0.68737966,-0.68487334,-0.6803191,-0.67273897,-0.66262186,-0.65656996,-0.65910685,-0.6691934,-0.68637097,-0.70302904,-0.71565247,-0.7252499,-0.7308127,-0.732341,-0.7303237,-0.7333497,-0.74496436,-0.7611334,-0.7641593,-0.7313323,-0.6454748,-0.48537457,-0.24140352,0.07879698,0.43182445,0.74698174,0.93333733,0.9116361,0.6787908,0.31112266,-0.074762344,-0.39040864,-0.59345293,-0.70911145,-0.79142344,-0.8590947,-0.91212523,-0.94192624,-0.9459608,-0.93333745,-0.9176881,-0.90607333,-0.9015191,-0.8969954,-0.88840663,-0.8778005,-0.86869216,-0.86416847,-0.8586056,-0.8479995,-0.8348565,-0.8227527,-0.8181985,-0.8171898,-0.81315523,-0.80456644,-0.79496896,-0.7894061,-0.7838433,-0.77931964,-0.7727481,-0.76666564,-0.76516795,-0.762142,-0.7560595,-0.74799037,-0.74092984,-0.73585594,-0.7318214,-0.72424126,-0.71617204,-0.7101201,-0.70911145,-0.7085919,-0.70254,-0.6929425,-0.6843537,-0.6783018,-0.6737476,-0.6656784,-0.6545527,-0.6449552,-0.64092064,-0.640401,-0.6358774,-0.6277776,-0.6186998,-0.6136565,-0.607085,-0.60002446,-0.5899074,-0.5818382,-0.57777303,-0.5747471,-0.56817555,-0.55860865,-0.55151755,-0.5505089,-0.55001986,-0.5480026,-0.5424397,-0.53687686,-0.53739643,-0.5394138,-0.5394138,-0.53687686,-0.53586817,-0.5388941,-0.5434483,-0.5484916,-0.5540545,-0.5626433,-0.5782926,-0.59748757,-0.61212826,-0.62426263,-0.63789463,-0.65305495,-0.6676957,-0.6803191,-0.6889079,-0.69798577,-0.71262646,-0.7283064,-0.73992115,-0.74698174,-0.75404227,-0.76263106,-0.77073085,-0.77476543,-0.7742458,-0.77375674,-0.7767827,-0.77980864,-0.77931964,-0.77727175,-0.77577406,-0.77931964,-0.7828346,-0.78182596,-0.77577406,-0.77073085,-0.7702112,-0.77323717,-0.77476543,-0.7727481,-0.7681939,-0.7636397,-0.75706816,-0.7510163,-0.74850994,-0.7500076,-0.7560595,-0.7596051,-0.7560595,-0.7510163,-0.74850994,-0.75052726,-0.7530336,-0.75202495,-0.74698174,-0.7444448,-0.74747074,-0.75052726,-0.7510163,-0.74747074,-0.74343616,-0.74597305,-0.7500076,-0.7510163,-0.748999,-0.74747074,-0.7500076,-0.75202495,-0.7510163,-0.74597305,-0.74092984,-0.73992115,-0.74242747,-0.7429471,-0.7419385,-0.74242747,-0.7464621,-0.7500076,-0.748999,-0.7429471,-0.7368646,-0.7363756,-0.73891246,-0.7383929,-0.7343583,-0.7308127,-0.7287954,-0.7303237,-0.7318214,-0.7313323,-0.72931504,-0.7313323,-0.73283005,-0.732341,-0.7298041,-0.7277868,-0.7277868,-0.7298041,-0.7287954,-0.7252499,-0.7217349,-0.72072625,-0.72222394,-0.7227435,-0.72121525,-0.7202066,-0.7217349,-0.7217349,-0.72072625,-0.71718067,-0.7141547,-0.71565247,-0.71818936,-0.71818936,-0.7146438,-0.71213746,-0.7131461,-0.7146438,-0.7141547,-0.7106092,-0.7075832,-0.7096005,-0.7116178,-0.71213746,-0.70911145,-0.7096005,-0.7106092,-0.7116178,-0.70657456,-0.69798577,-0.6929425,-0.696488,-0.70254,-0.70608556,-0.70403767,-0.7020204,-0.7020204,-0.70403767,-0.70302904,-0.69951403,-0.696488,-0.69951403,-0.70254,-0.7010117,-0.69596845,-0.69141424,-0.6919339,-0.6949598,-0.69697714,-0.696488,-0.69596845,-0.69798577,-0.7010117,-0.69951403,-0.69395113,-0.689397,-0.69092524,-0.69343156,-0.696488,-0.69444025,-0.6904056,-0.689397,-0.6868906,-0.68132776,-0.6717303,-0.6687044,-0.670202,-0.6757649,-0.6762845,-0.66466975,-0.6449552,-0.62878627,-0.623743,-0.63184273,-0.6485008,-0.66262186,-0.6661674,-0.65608096,-0.63636637,-0.6197084,-0.6186998,-0.6323318,-0.6570896,-0.68487334,-0.7085919,-0.7272978,-0.74141884,-0.74698174,-0.74496436,-0.7383929,-0.7333497,-0.732341,-0.73283005,-0.732341,-0.7313323,-0.73536694,-0.7510163,-0.7702112,-0.7803283,-0.7611334,-0.6974967,-0.5666779,-0.34697556,-0.039887547,0.31717455,0.64697254,0.8752636,0.9202249,0.76263106,0.45606267,0.09646368,-0.22575414,-0.45606261,-0.59547025,-0.7050463,-0.81061834,-0.90506464,-0.96818167,-0.98737663,-0.9722468,-0.9474891,-0.93232876,-0.9257573,-0.9212336,-0.91313386,-0.90252775,-0.89393896,-0.8853807,-0.8767919,-0.86566615,-0.85606873,-0.8515145,-0.8469909,-0.8394107,-0.82727635,-0.81667024,-0.81263566,-0.8100987,-0.80707276,-0.7994926,-0.7909344,-0.7843629,-0.7813369,-0.77727175,-0.77073085,-0.7641593,-0.7611334,-0.7560595,-0.7464621,-0.7363756,-0.7283064,-0.7262585,-0.7277868,-0.72424126,-0.7141547,-0.70254,-0.69444025,-0.68838835,-0.6818168,-0.67221934,-0.6616132,-0.65656996,-0.65152675,-0.64446616,-0.6338601,-0.62426263,-0.6197084,-0.6141455,-0.60607636,-0.59345293,-0.5803099,-0.57324934,-0.5697038,-0.5641409,-0.5550631,-0.5459547,-0.54042244,-0.53739643,-0.5318336,-0.5242535,-0.5182016,-0.5166733,-0.5176819,-0.5161842,-0.51163006,-0.50808454,-0.5090931,-0.5131277,-0.5176819,-0.5192102,-0.5247425,-0.5378855,-0.5540545,-0.57022345,-0.5828468,-0.5944616,-0.61163926,-0.6328515,-0.65152675,-0.6661674,-0.67931044,-0.6929425,-0.7070942,-0.71770024,-0.72476083,-0.7308127,-0.7404102,-0.75202495,-0.7611334,-0.7646483,-0.76516795,-0.7681939,-0.7722285,-0.77476543,-0.77476543,-0.77476543,-0.7767827,-0.7782804,-0.7777914,-0.77476543,-0.77073085,-0.7717395,-0.7742458,-0.7752545,-0.77073085,-0.76666564,-0.7646483,-0.76263106,-0.76061374,-0.7585965,-0.7575878,-0.76061374,-0.7636397,-0.7631507,-0.7585965,-0.7535532,-0.7530336,-0.7535532,-0.7530336,-0.7500076,-0.74747074,-0.74951863,-0.7525445,-0.75404227,-0.75202495,-0.7500076,-0.7510163,-0.7535532,-0.7530336,-0.74850994,-0.7464621,-0.74799037,-0.7510163,-0.7525445,-0.74850994,-0.74395573,-0.74395573,-0.74496436,-0.74395573,-0.73992115,-0.73585594,-0.7348473,-0.73790383,-0.7383929,-0.7368646,-0.7363756,-0.73891246,-0.74141884,-0.7404102,-0.7338387,-0.7283064,-0.7287954,-0.73283005,-0.73585594,-0.7343583,-0.732341,-0.7318214,-0.73283005,-0.7318214,-0.7277868,-0.72476083,-0.72677815,-0.72931504,-0.72931504,-0.72323257,-0.7202066,-0.7197176,-0.7237522,-0.72476083,-0.7217349,-0.71870893,-0.719198,-0.72121525,-0.72222394,-0.7197176,-0.71718067,-0.71818936,-0.7202066,-0.72072625,-0.71718067,-0.7146438,-0.7166916,-0.7197176,-0.71818936,-0.7136351,-0.70911145,-0.7101201,-0.7141547,-0.7146438,-0.7116178,-0.7085919,-0.7096005,-0.71213746,-0.71262646,-0.7070942,-0.7035486,-0.7050463,-0.7106092,-0.71262646,-0.70911145,-0.7045573,-0.70302904,-0.7055659,-0.7070942,-0.7055659,-0.70254,-0.7035486,-0.7050463,-0.7045573,-0.7015313,-0.6985054,-0.69951403,-0.70302904,-0.70254,-0.6989944,-0.6949598,-0.69596845,-0.6989944,-0.70052266,-0.69697714,-0.6919339,-0.6919339,-0.69395113,-0.69395113,-0.69092524,-0.6889079,-0.68838835,-0.689397,-0.685882,-0.6762845,-0.6687044,-0.6691934,-0.673228,-0.6737476,-0.66466975,-0.6474922,-0.6303145,-0.6197084,-0.6201974,-0.6323318,-0.65051806,-0.66262186,-0.6595959,-0.64092064,-0.61818016,-0.60757405,-0.61668247,-0.63789463,-0.6656784,-0.69092524,-0.7131461,-0.732341,-0.74343616,-0.74343616,-0.7363756,-0.7298041,-0.7277868,-0.7303237,-0.7313323,-0.7277868,-0.7272978,-0.73790383,-0.75657916,-0.7777914,-0.7813369,-0.74747074,-0.6606046,-0.49142653,-0.22777152,0.11263251,0.46920562,0.7676743,0.92829406,0.8858696,0.6515268,0.29898834,-0.06363654,-0.35302746,-0.53586817,-0.6449552,-0.74242747,-0.84142804,-0.92172265,-0.9641471,-0.96567535,-0.94800866,-0.9328484,-0.92526823,-0.9212336,-0.91365343,-0.9015191,-0.89042395,-0.8813155,-0.8707094,-0.85707736,-0.8479995,-0.8424367,-0.8394107,-0.83537614,-0.8262677,-0.81566155,-0.8096097,-0.80557513,-0.80102086,-0.79396033,-0.7863802,-0.7828346,-0.7813369,-0.7777914,-0.7692026,-0.7601247,-0.7560595,-0.7525445,-0.74799037,-0.73790383,-0.7272978,-0.72072625,-0.719198,-0.71617204,-0.7075832,-0.69798577,-0.69092524,-0.685882,-0.6808082,-0.67221934,-0.66213286,-0.65608096,-0.6510072,-0.6449552,-0.6358774,-0.6247517,-0.61769116,-0.6126479,-0.60607636,-0.59647894,-0.5878901,-0.58131856,-0.5752667,-0.56768656,-0.5570804,-0.54748297,-0.5424397,-0.5394138,-0.5343399,-0.5247425,-0.5161842,-0.5136473,-0.51465595,-0.5166733,-0.51514506,-0.5126387,-0.51163006,-0.5131277,-0.51514506,-0.5161842,-0.5217165,-0.5303053,-0.5424397,-0.5555521,-0.56768656,-0.5838555,-0.60656536,-0.62979496,-0.6489898,-0.6606046,-0.6687044,-0.68132776,-0.696488,-0.7111288,-0.72121525,-0.7277868,-0.73738426,-0.74799037,-0.7575878,-0.7636397,-0.76666564,-0.77073085,-0.7742458,-0.7752545,-0.7717395,-0.77073085,-0.7727481,-0.7762631,-0.7782804,-0.7752545,-0.77375674,-0.77476543,-0.7777914,-0.7777914,-0.7717395,-0.7661766,-0.76516795,-0.76666564,-0.765657,-0.7601247,-0.75456184,-0.75404227,-0.75706816,-0.7585965,-0.75557053,-0.7515359,-0.75052726,-0.7530336,-0.7550509,-0.75202495,-0.74698174,-0.74597305,-0.7464621,-0.74850994,-0.7464621,-0.74395573,-0.74343616,-0.74496436,-0.7454534,-0.74343616,-0.74141884,-0.7419385,-0.7464621,-0.7500076,-0.74698174,-0.74141884,-0.73738426,-0.73585594,-0.7363756,-0.73536694,-0.7343583,-0.73585594,-0.7383929,-0.7394016,-0.7363756,-0.732341,-0.7318214,-0.7298041,-0.7308127,-0.7277868,-0.7262585,-0.7277868,-0.7313323,-0.7318214,-0.7283064,-0.72424126,-0.72323257,-0.72476083,-0.7262585,-0.72424126,-0.72121525,-0.7217349,-0.72424126,-0.72476083,-0.7197176,-0.7146438,-0.7141547,-0.71818936,-0.7227435,-0.7217349,-0.71770024,-0.71565247,-0.7166916,-0.7166916,-0.71213746,-0.7055659,-0.7020204,-0.7020204,-0.70403767,-0.70254,-0.7015313,-0.7020204,-0.7045573,-0.70657456,-0.70608556,-0.7055659,-0.7075832,-0.7106092,-0.71213746,-0.7081028,-0.7015313,-0.6985054,-0.6985054,-0.69951403,-0.69798577,-0.69697714,-0.696488,-0.6974967,-0.700003,-0.6985054,-0.69798577,-0.700003,-0.70403767,-0.7045573,-0.700003,-0.69343156,-0.68991655,-0.6904056,-0.69242287,-0.68991655,-0.685882,-0.68487334,-0.68789923,-0.69092524,-0.689397,-0.68536234,-0.6833451,-0.68536234,-0.68637097,-0.68282545,-0.6762845,-0.670202,-0.666687,-0.66466975,-0.6616132,-0.65910685,-0.6570896,-0.6510072,-0.636886,-0.6161629,-0.6005135,-0.6020417,-0.6222453,-0.6439466,-0.6520158,-0.6429379,-0.6257603,-0.6106305,-0.607085,-0.6136565,-0.6308036,-0.6575786,-0.6889079,-0.7166916,-0.73283005,-0.7383929,-0.73891246,-0.73790383,-0.7333497,-0.7257695,-0.7197176,-0.71770024,-0.7202066,-0.7252499,-0.7303237,-0.7419385,-0.7601247,-0.77073085,-0.74799037,-0.66818476,-0.50304127,-0.24192315,0.09747231,0.46364284,0.7853714,0.970199,0.94192624,0.70354867,0.33181536,-0.04899597,-0.35302746,-0.54748297,-0.66213286,-0.7560595,-0.8429563,-0.90961885,-0.9484977,-0.95757556,-0.9474891,-0.93132013,-0.9166794,-0.9080906,-0.9035364,-0.8974845,-0.8868784,-0.87526363,-0.86566615,-0.8601033,-0.8540514,-0.84497356,-0.83436745,-0.8267873,-0.8222331,-0.81667024,-0.8075924,-0.7979949,-0.7909344,-0.7873888,-0.7833542,-0.7752545,-0.76666564,-0.7616224,-0.7601247,-0.7585965,-0.7515359,-0.7429471,-0.7363756,-0.73283005,-0.7298041,-0.7237522,-0.7141547,-0.7070942,-0.6985054,-0.69141424,-0.6823364,-0.673228,-0.66818476,-0.66466975,-0.6595959,-0.6499985,-0.64140964,-0.636886,-0.6343491,-0.6308036,-0.62071705,-0.60858274,-0.5995048,-0.5914357,-0.58535314,-0.57627535,-0.5686952,-0.5636519,-0.56010634,-0.5555521,-0.54445696,-0.5333313,-0.5272794,-0.52627075,-0.5267904,-0.5252621,-0.5212275,-0.5192102,-0.5192102,-0.5212275,-0.5186906,-0.51566464,-0.51514506,-0.5176819,-0.5232448,-0.5272794,-0.5353486,-0.54901123,-0.56768656,-0.5873705,-0.60405904,-0.61818016,-0.6338601,-0.65051806,-0.6676957,-0.6818168,-0.6949598,-0.7081028,-0.72476083,-0.7348473,-0.73992115,-0.74496436,-0.74951863,-0.7585965,-0.76666564,-0.77073085,-0.7717395,-0.77323717,-0.7777914,-0.77980864,-0.77577406,-0.7717395,-0.7681939,-0.7676743,-0.7676743,-0.765657,-0.7616224,-0.7601247,-0.7616224,-0.762142,-0.7596051,-0.7560595,-0.7550509,-0.75404227,-0.7530336,-0.74951863,-0.74597305,-0.7454534,-0.74799037,-0.748999,-0.7464621,-0.74395573,-0.7444448,-0.7454534,-0.7464621,-0.7429471,-0.7383929,-0.73585594,-0.73585594,-0.73790383,-0.7383929,-0.7394016,-0.74242747,-0.74496436,-0.7429471,-0.73585594,-0.7298041,-0.7287954,-0.7338387,-0.73891246,-0.73891246,-0.7368646,-0.73585594,-0.7368646,-0.73738426,-0.7338387,-0.7298041,-0.7298041,-0.7333497,-0.73585594,-0.732341,-0.7257695,-0.72222394,-0.72323257,-0.72476083,-0.72424126,-0.72072625,-0.71818936,-0.7202066,-0.72323257,-0.72222394,-0.7202066,-0.71870893,-0.719198,-0.7197176,-0.7146438,-0.7106092,-0.7101201,-0.7131461,-0.71718067,-0.71770024,-0.71213746,-0.70657456,-0.7055659,-0.70657456,-0.7075832,-0.7075832,-0.7081028,-0.70911145,-0.7085919,-0.7050463,-0.700003,-0.6985054,-0.70254,-0.7055659,-0.7045573,-0.7020204,-0.7010117,-0.7035486,-0.70657456,-0.7045573,-0.69951403,-0.6954794,-0.696488,-0.696488,-0.6929425,-0.689397,-0.68838835,-0.6919339,-0.696488,-0.69697714,-0.69444025,-0.6929425,-0.69596845,-0.6985054,-0.69697714,-0.69395113,-0.69242287,-0.6929425,-0.69141424,-0.68789923,-0.6843537,-0.6868906,-0.69343156,-0.69697714,-0.69395113,-0.68789923,-0.685882,-0.68838835,-0.69242287,-0.68838835,-0.6797995,-0.6717303,-0.670202,-0.67273897,-0.6747562,-0.6757649,-0.6747562,-0.66818476,-0.6550723,-0.6358774,-0.6222453,-0.6247517,-0.64446616,-0.6636611,-0.6671761,-0.653544,-0.63132316,-0.6156738,-0.6126479,-0.6191888,-0.63789463,-0.6631415,-0.6919339,-0.71617204,-0.7283064,-0.7308127,-0.7298041,-0.7287954,-0.72677815,-0.72222394,-0.719198,-0.71818936,-0.72222394,-0.7303237,-0.73790383,-0.748999,-0.7601247,-0.75456184,-0.71213746,-0.60858274,-0.41767275,-0.14243358,0.1974814,0.54091156,0.81868744,0.9338571,0.8318305,0.5373659,0.15203106,-0.20756793,-0.47171193,-0.62979496,-0.7287954,-0.8136443,-0.8818351,-0.9247486,-0.9414372,-0.94091755,-0.9308311,-0.9186967,-0.9090992,-0.90051043,-0.89393896,-0.887398,-0.87728095,-0.8661858,-0.85707736,-0.85102546,-0.84445393,-0.8348565,-0.82376134,-0.81566155,-0.8141639,-0.8136443,-0.8096097,-0.80102086,-0.791943,-0.7823456,-0.77727175,-0.76972216,-0.76516795,-0.7601247,-0.7581074,-0.75557053,-0.748999,-0.74141884,-0.7348473,-0.7318214,-0.7272978,-0.7202066,-0.71213746,-0.7050463,-0.7015313,-0.69798577,-0.69141424,-0.6833451,-0.6777822,-0.6747562,-0.67221934,-0.666687,-0.65910685,-0.65051806,-0.6439466,-0.63535774,-0.6222453,-0.61111957,-0.6045481,-0.6030504,-0.6030504,-0.5939419,-0.5808295,-0.57022345,-0.5651496,-0.56466055,-0.561115,-0.55353487,-0.5449461,-0.54042244,-0.5399028,-0.5388941,-0.53739643,-0.5378855,-0.5399028,-0.54091144,-0.5384052,-0.5363573,-0.5378855,-0.5439374,-0.55151755,-0.5555521,-0.56163466,-0.57373846,-0.5929333,-0.61466515,-0.63132316,-0.6459639,-0.6606046,-0.6757649,-0.6919339,-0.7020204,-0.7085919,-0.7166916,-0.7308127,-0.74343616,-0.75202495,-0.75706816,-0.7596051,-0.76516795,-0.77073085,-0.77476543,-0.77577406,-0.7782804,-0.78182596,-0.7833542,-0.7788,-0.77323717,-0.77073085,-0.7727481,-0.7762631,-0.7752545,-0.77121985,-0.7681939,-0.7671853,-0.765657,-0.762142,-0.75706816,-0.7535532,-0.75404227,-0.75456184,-0.75202495,-0.74951863,-0.74799037,-0.7500076,-0.75202495,-0.74951863,-0.74698174,-0.7444448,-0.74597305,-0.74747074,-0.7464621,-0.74242747,-0.74141884,-0.74343616,-0.7444448,-0.74343616,-0.74092984,-0.74092984,-0.74343616,-0.74698174,-0.7464621,-0.74395573,-0.74343616,-0.74496436,-0.7464621,-0.7444448,-0.7404102,-0.7383929,-0.7383929,-0.73891246,-0.73585594,-0.73283005,-0.73283005,-0.7368646,-0.73992115,-0.73790383,-0.7343583,-0.7313323,-0.732341,-0.7333497,-0.7318214,-0.7287954,-0.72677815,-0.7287954,-0.7303237,-0.7277868,-0.72476083,-0.72424126,-0.7283064,-0.732341,-0.7313323,-0.72677815,-0.7227435,-0.7217349,-0.72323257,-0.7217349,-0.719198,-0.71565247,-0.71818936,-0.71870893,-0.71770024,-0.7166916,-0.7141547,-0.71770024,-0.7202066,-0.71818936,-0.7141547,-0.7111288,-0.7116178,-0.7141547,-0.7131461,-0.7096005,-0.7075832,-0.7081028,-0.7101201,-0.7106092,-0.7085919,-0.7081028,-0.70911145,-0.7106092,-0.7085919,-0.7050463,-0.70302904,-0.7050463,-0.7075832,-0.7070942,-0.7050463,-0.7045573,-0.7050463,-0.7055659,-0.7015313,-0.69798577,-0.696488,-0.6989944,-0.7015313,-0.700003,-0.696488,-0.69444025,-0.6974967,-0.7010117,-0.7015313,-0.6954794,-0.69242287,-0.6929425,-0.69596845,-0.696488,-0.69444025,-0.689397,-0.685882,-0.6823364,-0.6783018,-0.6742672,-0.67221934,-0.6717303,-0.66515875,-0.6510072,-0.63184273,-0.623743,-0.63184273,-0.6510072,-0.6641501,-0.6636611,-0.6499985,-0.63132316,-0.6191888,-0.61818016,-0.6282972,-0.6499985,-0.68132776,-0.7106092,-0.7313323,-0.7419385,-0.74395573,-0.7419385,-0.7383929,-0.7348473,-0.7318214,-0.732341,-0.7348473,-0.73585594,-0.7368646,-0.7464621,-0.7631507,-0.77980864,-0.7717395,-0.71516335,-0.59091604,-0.3808112,-0.08839446,0.2591008,0.59696794,0.85102546,0.93737197,0.8136443,0.5217166,0.16413498,-0.16263711,-0.40456033,-0.5570804,-0.67221934,-0.7823456,-0.8792982,-0.94648045,-0.97576183,-0.9737446,-0.9555583,-0.9374026,-0.9272855,-0.9227313,-0.9176881,-0.90708196,-0.8934499,-0.8828438,-0.8732463,-0.8671944,-0.85606873,-0.84497356,-0.83687377,-0.8348565,-0.83183056,-0.82477003,-0.8146529,-0.8060641,-0.8020295,-0.79848397,-0.7929517,-0.7843629,-0.7767827,-0.77375674,-0.77073085,-0.7636397,-0.75404227,-0.74698174,-0.74395573,-0.74141884,-0.7348473,-0.7257695,-0.7166916,-0.7116178,-0.7081028,-0.7020204,-0.69395113,-0.685882,-0.68132776,-0.6762845,-0.6691934,-0.65910685,-0.64950943,-0.6424489,-0.63535774,-0.62627995,-0.6171715,-0.6091023,-0.6045481,-0.5995048,-0.5899074,-0.5782926,-0.5686952,-0.56163466,-0.5555521,-0.54445696,-0.5333313,-0.5257511,-0.52223617,-0.52223617,-0.5186906,-0.5111104,-0.50557816,-0.50606716,-0.50808454,-0.5086041,-0.50808454,-0.50961274,-0.51566464,-0.5242535,-0.5328423,-0.54143107,-0.5545435,-0.5747471,-0.59547025,-0.61466515,-0.63132316,-0.6474922,-0.666687,-0.685882,-0.6985054,-0.7085919,-0.71870893,-0.7308127,-0.74395573,-0.7535532,-0.7585965,-0.7636397,-0.7702112,-0.77577406,-0.77727175,-0.7752545,-0.7752545,-0.77931964,-0.7828346,-0.7828346,-0.77980864,-0.77727175,-0.7813369,-0.7848519,-0.7833542,-0.7777914,-0.7727481,-0.7722285,-0.77476543,-0.77476543,-0.7722285,-0.7692026,-0.76871353,-0.7681939,-0.7646483,-0.76061374,-0.7596051,-0.7631507,-0.7661766,-0.7646483,-0.7601247,-0.75657916,-0.7581074,-0.7596051,-0.7575878,-0.7525445,-0.7500076,-0.7530336,-0.75557053,-0.7525445,-0.74850994,-0.74496436,-0.74799037,-0.7525445,-0.7530336,-0.74951863,-0.7444448,-0.74496436,-0.74597305,-0.74597305,-0.7429471,-0.74141884,-0.74242747,-0.74242747,-0.7404102,-0.7368646,-0.7343583,-0.7368646,-0.7394016,-0.73790383,-0.7333497,-0.72931504,-0.7287954,-0.7318214,-0.7303237,-0.7272978,-0.72476083,-0.7252499,-0.7283064,-0.7277868,-0.72424126,-0.72121525,-0.72222394,-0.7252499,-0.7252499,-0.7227435,-0.72121525,-0.7237522,-0.7262585,-0.72424126,-0.71870893,-0.7146438,-0.71770024,-0.7217349,-0.7227435,-0.71870893,-0.71213746,-0.7101201,-0.71213746,-0.7116178,-0.7106092,-0.70911145,-0.7111288,-0.7146438,-0.71516335,-0.7131461,-0.7111288,-0.71213746,-0.7136351,-0.7116178,-0.7075832,-0.70403767,-0.7055659,-0.7081028,-0.7075832,-0.7045573,-0.7020204,-0.70302904,-0.7035486,-0.7020204,-0.6985054,-0.69596845,-0.700003,-0.70403767,-0.70302904,-0.69798577,-0.69395113,-0.696488,-0.7015313,-0.70302904,-0.6989944,-0.6949598,-0.69395113,-0.6954794,-0.69395113,-0.69092524,-0.689397,-0.6929425,-0.6974967,-0.6974967,-0.6929425,-0.6868906,-0.6843537,-0.6818168,-0.6772932,-0.6712107,-0.6687044,-0.669713,-0.66818476,-0.6601156,-0.6429379,-0.62426263,-0.61515415,-0.6197084,-0.63535774,-0.6525354,-0.66213286,-0.6575786,-0.639912,-0.6191888,-0.60757405,-0.6136565,-0.636886,-0.6687044,-0.69697714,-0.7202066,-0.73585594,-0.7444448,-0.74395573,-0.73536694,-0.7262585,-0.72121525,-0.72476083,-0.72931504,-0.7298041,-0.7298041,-0.7363756,-0.75404227,-0.7742458,-0.77980864,-0.74799037,-0.66466975,-0.50353026,-0.24898374,0.08384025,0.44444788,0.7530335,0.92777455,0.8969649,0.66818464,0.31665492,-0.046978652,-0.34040403,-0.5292967,-0.64192927,-0.73992115,-0.8363848,-0.9166794,-0.9606321,-0.96567535,-0.94800866,-0.92881376,-0.92022496,-0.91921633,-0.9141425,-0.9030473,-0.89042395,-0.87981784,-0.8722377,-0.8646575,-0.85506004,-0.84445393,-0.8388911,-0.8338479,-0.82727635,-0.8196962,-0.8111379,-0.8040468,-0.7994926,-0.79243207,-0.7833542,-0.7767827,-0.77577406,-0.7742458,-0.7692026,-0.7585965,-0.74850994,-0.74242747,-0.73891246,-0.7348473,-0.7272978,-0.7202066,-0.7146438,-0.7096005,-0.7015313,-0.6904056,-0.6818168,-0.6762845,-0.6717303,-0.6636611,-0.6540636,-0.6459639,-0.6454748,-0.64140964,-0.63184273,-0.6171715,-0.60353947,-0.59647894,-0.5944616,-0.5888988,-0.577284,-0.5641409,-0.5555521,-0.54647434,-0.5394138,-0.52828807,-0.52021885,-0.51566464,-0.5141364,-0.50961274,-0.50252163,-0.49497205,-0.49243516,-0.49142653,-0.48888958,-0.48485494,-0.48485494,-0.48840052,-0.4934438,-0.49848706,-0.5020326,-0.50961274,-0.5247425,-0.5439374,-0.5656692,-0.5833359,-0.6020417,-0.62172574,-0.63838375,-0.6520158,-0.6636611,-0.6762845,-0.69141424,-0.70608556,-0.71770024,-0.7252499,-0.7338387,-0.74597305,-0.75706816,-0.7631507,-0.7636397,-0.7631507,-0.76666564,-0.7702112,-0.7717395,-0.7692026,-0.7661766,-0.76666564,-0.7681939,-0.7681939,-0.765657,-0.7631507,-0.76516795,-0.765657,-0.76263106,-0.7585965,-0.75657916,-0.75657916,-0.75657916,-0.7525445,-0.74496436,-0.73992115,-0.7404102,-0.7444448,-0.7464621,-0.7464621,-0.74799037,-0.7500076,-0.748999,-0.7444448,-0.73536694,-0.7303237,-0.732341,-0.73585594,-0.7368646,-0.73536694,-0.7338387,-0.73585594,-0.7383929,-0.73790383,-0.7333497,-0.72931504,-0.7303237,-0.7313323,-0.7298041,-0.7272978,-0.7252499,-0.72677815,-0.7283064,-0.7283064,-0.7252499,-0.72121525,-0.7217349,-0.72323257,-0.7227435,-0.7197176,-0.719198,-0.7202066,-0.72072625,-0.7202066,-0.71617204,-0.7111288,-0.7096005,-0.7075832,-0.70608556,-0.7045573,-0.7055659,-0.7116178,-0.71718067,-0.71718067,-0.7096005,-0.7035486,-0.700003,-0.70052266,-0.7020204,-0.7020204,-0.70254,-0.7055659,-0.7075832,-0.7055659,-0.7015313,-0.69798577,-0.69951403,-0.7015313,-0.7010117,-0.69798577,-0.69444025,-0.6949598,-0.696488,-0.6954794,-0.69343156,-0.69141424,-0.69242287,-0.6929425,-0.68991655,-0.685882,-0.6838341,-0.68789923,-0.69343156,-0.69444025,-0.69141424,-0.6889079,-0.6904056,-0.6929425,-0.69092524,-0.68487334,-0.67931044,-0.6783018,-0.68282545,-0.68536234,-0.6843537,-0.6823364,-0.68282545,-0.68487334,-0.6838341,-0.6808082,-0.6772932,-0.67677355,-0.67931044,-0.6818168,-0.6777822,-0.6742672,-0.67221934,-0.6687044,-0.66466975,-0.6606046,-0.65910685,-0.6611242,-0.6601156,-0.6499985,-0.63184273,-0.6136565,-0.60656536,-0.6136565,-0.6308036,-0.6439466,-0.6459639,-0.63737506,-0.6197084,-0.60353947,-0.59748757,-0.60607636,-0.6308036,-0.6631415,-0.6929425,-0.7111288,-0.71870893,-0.72072625,-0.7202066,-0.7197176,-0.71818936,-0.71565247,-0.7166916,-0.71565247,-0.71262646,-0.7106092,-0.71617204,-0.7338387,-0.7525445,-0.74698174,-0.6989944,-0.5914357,-0.40153438,-0.1277929,0.21566772,0.56768644,0.8494972,0.9651557,0.8621206,0.5722407,0.1914295,-0.1696977,-0.4409023,-0.60656536,-0.7101201,-0.7944494,-0.8682031,-0.92022496,-0.9414372,-0.936883,-0.91921633,-0.9030473,-0.8959868,-0.89445853,-0.8888957,-0.8792982,-0.8682031,-0.85961425,-0.8530428,-0.8434453,-0.83082193,-0.81517255,-0.8075924,-0.8040468,-0.8005318,-0.795458,-0.78787786,-0.7828346,-0.7767827,-0.7692026,-0.7601247,-0.7510163,-0.74850994,-0.74799037,-0.7444448,-0.73738426,-0.7283064,-0.7227435,-0.719198,-0.7136351,-0.7055659,-0.70052266,-0.69951403,-0.6985054,-0.69242287,-0.6803191,-0.6691934,-0.66262186,-0.6585873,-0.6545527,-0.6459639,-0.636886,-0.6328515,-0.6282972,-0.6191888,-0.60607636,-0.5944616,-0.5899074,-0.58837914,-0.5833359,-0.5727297,-0.56212366,-0.5555521,-0.5530458,-0.55001986,-0.5439374,-0.53739643,-0.5353486,-0.5353486,-0.5333313,-0.527799,-0.52223617,-0.5196992,-0.5182016,-0.51719296,-0.51514506,-0.5136473,-0.51566464,-0.51719296,-0.5166733,-0.5182016,-0.5242535,-0.54091144,-0.560626,-0.5798209,-0.59547025,-0.61011094,-0.62676895,-0.64345753,-0.6570896,-0.6676957,-0.67931044,-0.69444025,-0.7101201,-0.72121525,-0.7272978,-0.732341,-0.74141884,-0.75202495,-0.75911605,-0.7601247,-0.7596051,-0.76263106,-0.76871353,-0.7717395,-0.77073085,-0.7661766,-0.7646483,-0.7646483,-0.7636397,-0.75911605,-0.75706816,-0.75706816,-0.7575878,-0.75657916,-0.7515359,-0.74799037,-0.74850994,-0.74951863,-0.74698174,-0.73992115,-0.7343583,-0.7333497,-0.73738426,-0.74092984,-0.7394016,-0.73790383,-0.73738426,-0.7394016,-0.7383929,-0.7343583,-0.7308127,-0.7303237,-0.7318214,-0.7338387,-0.7313323,-0.7287954,-0.7287954,-0.7308127,-0.7318214,-0.7303237,-0.7287954,-0.732341,-0.7363756,-0.73738426,-0.73283005,-0.7287954,-0.7277868,-0.7272978,-0.7262585,-0.72323257,-0.7202066,-0.72222394,-0.7257695,-0.7283064,-0.72424126,-0.72072625,-0.72072625,-0.7217349,-0.72222394,-0.719198,-0.71770024,-0.719198,-0.7217349,-0.7227435,-0.719198,-0.71770024,-0.71818936,-0.72072625,-0.72121525,-0.7166916,-0.7136351,-0.7141547,-0.7166916,-0.71770024,-0.7146438,-0.7111288,-0.71213746,-0.71516335,-0.71565247,-0.71213746,-0.7096005,-0.7085919,-0.7085919,-0.7081028,-0.70403767,-0.7020204,-0.7050463,-0.70911145,-0.7106092,-0.70657456,-0.7020204,-0.70052266,-0.7020204,-0.7020204,-0.6989944,-0.696488,-0.6974967,-0.7010117,-0.70302904,-0.7010117,-0.69798577,-0.6974967,-0.6985054,-0.69951403,-0.696488,-0.6949598,-0.69798577,-0.700003,-0.700003,-0.69395113,-0.6889079,-0.68991655,-0.69343156,-0.69596845,-0.69395113,-0.69092524,-0.68991655,-0.68991655,-0.68487334,-0.6772932,-0.670202,-0.6691934,-0.673228,-0.6752758,-0.6712107,-0.6631415,-0.6520158,-0.639912,-0.62878627,-0.62325394,-0.63184273,-0.65051806,-0.6636611,-0.6631415,-0.6449552,-0.62325394,-0.6136565,-0.6191888,-0.63486874,-0.6575786,-0.68536234,-0.7141547,-0.73738426,-0.74698174,-0.7419385,-0.7333497,-0.7283064,-0.72931504,-0.7308127,-0.7298041,-0.72931504,-0.73283005,-0.74242747,-0.75657916,-0.7692026,-0.7722285,-0.74698174,-0.6762845,-0.52880764,-0.28737354,0.032307386,0.3833481,0.6954489,0.89494765,0.90405595,0.71213734,0.38029158,0.018675327,-0.28486717,-0.48687232,-0.61111957,-0.71818936,-0.8242504,-0.9055537,-0.94901735,-0.95757556,-0.94800866,-0.9353547,-0.92627686,-0.917199,-0.9080906,-0.90051043,-0.8934499,-0.88333285,-0.8697008,-0.8606229,-0.8555797,-0.8505058,-0.8429563,-0.8303023,-0.81920713,-0.81517255,-0.8141639,-0.81061834,-0.8005318,-0.78992575,-0.7843629,-0.77931964,-0.77476543,-0.7646483,-0.75557053,-0.7500076,-0.74850994,-0.74747074,-0.7429471,-0.7383929,-0.7343583,-0.7298041,-0.72323257,-0.71262646,-0.7035486,-0.6985054,-0.69395113,-0.6868906,-0.6777822,-0.669713,-0.66515875,-0.6616132,-0.6555613,-0.6439466,-0.6343491,-0.62930584,-0.6272886,-0.6222453,-0.6106305,-0.59797657,-0.58837914,-0.58232725,-0.57627535,-0.5666779,-0.5570804,-0.55102855,-0.54647434,-0.54192007,-0.5338509,-0.52627075,-0.52223617,-0.52021885,-0.5176819,-0.51163006,-0.5075954,-0.50808454,-0.51211905,-0.51566464,-0.5182016,-0.52223617,-0.531314,-0.5449461,-0.55961734,-0.5722407,-0.5863618,-0.6045481,-0.62527126,-0.64446616,-0.65910685,-0.67221934,-0.68838835,-0.70608556,-0.7197176,-0.72677815,-0.73283005,-0.73992115,-0.74951863,-0.75911605,-0.7641593,-0.7661766,-0.7692026,-0.77323717,-0.7752545,-0.77476543,-0.77577406,-0.7782804,-0.78182596,-0.7838433,-0.78182596,-0.77980864,-0.77980864,-0.7803283,-0.7777914,-0.7722285,-0.7681939,-0.7692026,-0.77323717,-0.7752545,-0.7727481,-0.76871353,-0.7671853,-0.7676743,-0.76666564,-0.762142,-0.75657916,-0.75404227,-0.75456184,-0.75404227,-0.75202495,-0.7515359,-0.75557053,-0.7596051,-0.76061374,-0.7581074,-0.7530336,-0.7515359,-0.7525445,-0.75202495,-0.748999,-0.7464621,-0.74747074,-0.748999,-0.74951863,-0.7454534,-0.7429471,-0.74496436,-0.74747074,-0.74747074,-0.74343616,-0.7383929,-0.7368646,-0.7383929,-0.73790383,-0.7333497,-0.72931504,-0.7298041,-0.7343583,-0.7368646,-0.7343583,-0.72931504,-0.7277868,-0.72931504,-0.7298041,-0.7272978,-0.72323257,-0.72323257,-0.7262585,-0.72931504,-0.7272978,-0.72476083,-0.7237522,-0.7252499,-0.7257695,-0.72222394,-0.719198,-0.71870893,-0.7197176,-0.719198,-0.7141547,-0.7096005,-0.7116178,-0.7146438,-0.71617204,-0.7131461,-0.7101201,-0.7106092,-0.71262646,-0.7131461,-0.70608556,-0.7015313,-0.7020204,-0.70657456,-0.7111288,-0.7101201,-0.7055659,-0.7045573,-0.7050463,-0.7050463,-0.7015313,-0.6989944,-0.6985054,-0.7010117,-0.7035486,-0.70302904,-0.7010117,-0.70254,-0.7035486,-0.7010117,-0.6949598,-0.68991655,-0.69092524,-0.696488,-0.7020204,-0.7015313,-0.69798577,-0.69596845,-0.6949598,-0.69395113,-0.6919339,-0.689397,-0.69141424,-0.6949598,-0.69697714,-0.69444025,-0.6919339,-0.6929425,-0.696488,-0.6974967,-0.69444025,-0.68991655,-0.6868906,-0.6843537,-0.68282545,-0.6762845,-0.670202,-0.670202,-0.6737476,-0.6752758,-0.6712107,-0.6611242,-0.6474922,-0.6333405,-0.6212367,-0.61818016,-0.62930584,-0.6489898,-0.66262186,-0.6601156,-0.64092064,-0.6201974,-0.6136565,-0.6222453,-0.64092064,-0.66466975,-0.6904056,-0.71617204,-0.73738426,-0.748999,-0.7464621,-0.7394016,-0.7338387,-0.7313323,-0.7303237,-0.7283064,-0.7272978,-0.7318214,-0.74242747,-0.76061374,-0.77727175,-0.7803283,-0.74747074,-0.6606046,-0.48788095,-0.22123057,0.11565852,0.46617973,0.75859654,0.9192163,0.8818351,0.65100706,0.30152524,-0.05807376,-0.34495825,-0.5257511,-0.6389034,-0.7444448,-0.8479995,-0.9293028,-0.9692209,-0.9722468,-0.9591038,-0.9449522,-0.9343461,-0.92373997,-0.9106275,-0.90051043,-0.89393896,-0.88840663,-0.8778005,-0.8671944,-0.858086,-0.85102546,-0.84445393,-0.83586514,-0.8262677,-0.81920713,-0.8141639,-0.8096097,-0.8025491,-0.7944494,-0.7873888,-0.7828346,-0.77727175,-0.7676743,-0.76061374,-0.7581074,-0.7575878,-0.7560595,-0.7500076,-0.7419385,-0.7363756,-0.7318214,-0.72677815,-0.71870893,-0.7081028,-0.700003,-0.6949598,-0.6904056,-0.6808082,-0.6712107,-0.6631415,-0.65656996,-0.65051806,-0.64192927,-0.6328515,-0.6272886,-0.62325394,-0.6191888,-0.61011094,-0.59748757,-0.5868814,-0.57777303,-0.5692148,-0.55961734,-0.55151755,-0.54696333,-0.5439374,-0.5388941,-0.52880764,-0.5186906,-0.51566464,-0.51514506,-0.5141364,-0.50707585,-0.49848706,-0.49445242,-0.4954611,-0.4994957,-0.50353026,-0.50808454,-0.5176819,-0.531314,-0.54696333,-0.55961734,-0.5747471,-0.5949507,-0.61668247,-0.63789463,-0.653544,-0.6671761,-0.6818168,-0.69798577,-0.71262646,-0.72222394,-0.7318214,-0.74141884,-0.75052726,-0.75911605,-0.762142,-0.7641593,-0.7676743,-0.77323717,-0.7752545,-0.77577406,-0.7782804,-0.7828346,-0.7868692,-0.7873888,-0.78182596,-0.7767827,-0.77577406,-0.7782804,-0.7788,-0.7767827,-0.77476543,-0.7767827,-0.77980864,-0.7803283,-0.7752545,-0.7676743,-0.7641593,-0.7636397,-0.76263106,-0.7585965,-0.75557053,-0.75557053,-0.7585965,-0.76061374,-0.7581074,-0.75456184,-0.7535532,-0.7550509,-0.75657916,-0.7535532,-0.74951863,-0.74951863,-0.7515359,-0.75202495,-0.74850994,-0.74343616,-0.7419385,-0.74496436,-0.748999,-0.74951863,-0.7464621,-0.74496436,-0.74496436,-0.7444448,-0.7419385,-0.73891246,-0.73738426,-0.7383929,-0.7368646,-0.7343583,-0.7333497,-0.7348473,-0.7383929,-0.7394016,-0.73536694,-0.7283064,-0.7262585,-0.7272978,-0.7303237,-0.7303237,-0.7287954,-0.7287954,-0.72931504,-0.7303237,-0.7277868,-0.72476083,-0.72476083,-0.7257695,-0.7283064,-0.72476083,-0.72072625,-0.719198,-0.7202066,-0.7217349,-0.7202066,-0.71770024,-0.71718067,-0.719198,-0.71870893,-0.7146438,-0.7101201,-0.70911145,-0.7111288,-0.7116178,-0.7081028,-0.7035486,-0.70403767,-0.7081028,-0.7136351,-0.7116178,-0.7070942,-0.70403767,-0.7045573,-0.7070942,-0.7070942,-0.7050463,-0.70403767,-0.7045573,-0.7050463,-0.70254,-0.6985054,-0.69596845,-0.69596845,-0.696488,-0.6949598,-0.69242287,-0.69242287,-0.69444025,-0.6954794,-0.69343156,-0.69141424,-0.69242287,-0.6949598,-0.6949598,-0.69092524,-0.68536234,-0.6843537,-0.68737966,-0.69092524,-0.69092524,-0.68838835,-0.68789923,-0.68789923,-0.68737966,-0.68487334,-0.6833451,-0.68487334,-0.68737966,-0.68637097,-0.67931044,-0.67072165,-0.6641501,-0.6636611,-0.6661674,-0.66466975,-0.6601156,-0.6499985,-0.6358774,-0.6197084,-0.61011094,-0.6141455,-0.6323318,-0.6520158,-0.65656996,-0.6424489,-0.61818016,-0.6030504,-0.60353947,-0.61818016,-0.64092064,-0.6676957,-0.6974967,-0.7227435,-0.7368646,-0.73738426,-0.7318214,-0.72677815,-0.7277868,-0.7277868,-0.7237522,-0.7197176,-0.71818936,-0.7252499,-0.7394016,-0.7560595,-0.77073085,-0.765657,-0.7202066,-0.60858274,-0.39948648,-0.09646362,0.2626158,0.607574,0.8671944,0.9585842,0.8378824,0.5378854,0.16010022,-0.18941224,-0.4409023,-0.58837914,-0.68838835,-0.7873888,-0.87578326,-0.93232876,-0.95152366,-0.94446313,-0.93031144,-0.92022496,-0.9126448,-0.9055537,-0.89901274,-0.8934499,-0.8853807,-0.87373537,-0.86312926,-0.8530428,-0.8454626,-0.8363848,-0.8242504,-0.8121466,-0.8060641,-0.8040468,-0.8015405,-0.7944494,-0.7868692,-0.7813369,-0.77931964,-0.77577406,-0.7671853,-0.7581074,-0.75052726,-0.74747074,-0.74395573,-0.73790383,-0.72931504,-0.7237522,-0.72072625,-0.71718067,-0.70911145,-0.700003,-0.69395113,-0.6904056,-0.6868906,-0.6783018,-0.6671761,-0.6580982,-0.6525354,-0.6474922,-0.6389034,-0.63132316,-0.62426263,-0.6186998,-0.61111957,-0.5984962,-0.58587277,-0.5787817,-0.5752667,-0.5712321,-0.560626,-0.5480026,-0.53687686,-0.53082496,-0.52627075,-0.5182016,-0.51211905,-0.50961274,-0.51163006,-0.5136473,-0.5101018,-0.50353026,-0.49747837,-0.4969893,-0.49900663,-0.49598068,-0.4969893,-0.50102395,-0.51062137,-0.5247425,-0.53687686,-0.5484916,-0.5651496,-0.58587277,-0.60757405,-0.62527126,-0.64140964,-0.6595959,-0.6772932,-0.69343156,-0.70254,-0.7085919,-0.71870893,-0.7303237,-0.74141884,-0.74747074,-0.7510163,-0.75706816,-0.7661766,-0.7722285,-0.77073085,-0.7661766,-0.7631507,-0.7661766,-0.7692026,-0.7671853,-0.7646483,-0.76263106,-0.7646483,-0.7676743,-0.765657,-0.7636397,-0.7611334,-0.7601247,-0.76061374,-0.75657916,-0.75202495,-0.7510163,-0.75202495,-0.7535532,-0.748999,-0.7454534,-0.74395573,-0.7454534,-0.74597305,-0.74343616,-0.7394016,-0.7383929,-0.74242747,-0.74597305,-0.74496436,-0.7404102,-0.73585594,-0.7343583,-0.73585594,-0.7363756,-0.7368646,-0.73790383,-0.73992115,-0.73891246,-0.7343583,-0.7308127,-0.7303237,-0.7338387,-0.73790383,-0.7383929,-0.73790383,-0.73891246,-0.7394016,-0.7368646,-0.7272978,-0.719198,-0.71565247,-0.72072625,-0.7257695,-0.7262585,-0.72222394,-0.719198,-0.71818936,-0.71818936,-0.7166916,-0.7146438,-0.7136351,-0.71565247,-0.71565247,-0.71262646,-0.70911145,-0.7075832,-0.7106092,-0.7141547,-0.7141547,-0.71262646,-0.7096005,-0.70911145,-0.7070942,-0.70254,-0.70052266,-0.7015313,-0.70657456,-0.7111288,-0.7116178,-0.70657456,-0.7015313,-0.70052266,-0.69951403,-0.6974967,-0.696488,-0.69798577,-0.7015313,-0.70403767,-0.7010117,-0.69798577,-0.696488,-0.69951403,-0.7015313,-0.69798577,-0.6954794,-0.69395113,-0.69697714,-0.69951403,-0.6949598,-0.68737966,-0.68536234,-0.689397,-0.6949598,-0.69596845,-0.69444025,-0.6919339,-0.6929425,-0.69343156,-0.6919339,-0.68737966,-0.6843537,-0.68637097,-0.68838835,-0.6868906,-0.68487334,-0.68282545,-0.68487334,-0.68838835,-0.68991655,-0.68789923,-0.68487334,-0.68487334,-0.6843537,-0.68132776,-0.6762845,-0.6712107,-0.6691934,-0.6691934,-0.6671761,-0.6641501,-0.6595959,-0.65152675,-0.636886,-0.6197084,-0.61111957,-0.61818016,-0.6393924,-0.6570896,-0.6580982,-0.64140964,-0.6191888,-0.607085,-0.60656536,-0.6161629,-0.63838375,-0.669713,-0.70254,-0.7272978,-0.73536694,-0.7308127,-0.72424126,-0.72323257,-0.72424126,-0.72424126,-0.72121525,-0.71770024,-0.71870893,-0.72424126,-0.7333497,-0.7464621,-0.7581074,-0.74698174,-0.69242287,-0.56817555,-0.35201883,-0.050004542,0.3040316,0.64192927,0.89192164,0.96011245,0.80960965,0.48534405,0.09646368,-0.24999237,-0.4954611,-0.64092064,-0.74343616,-0.8313109,-0.9015191,-0.9429349,-0.95506924,-0.94901735,-0.9353547,-0.91921633,-0.9065929,-0.89901274,-0.8959868,-0.890913,-0.8803069,-0.8676835,-0.85707736,-0.8494972,-0.84191704,-0.8313109,-0.8222331,-0.81566155,-0.8136443,-0.81061834,-0.8015405,-0.7904148,-0.7833542,-0.77980864,-0.7767827,-0.77121985,-0.7641593,-0.75706816,-0.7550509,-0.7525445,-0.74496436,-0.73738426,-0.7308127,-0.7272978,-0.7227435,-0.7141547,-0.7050463,-0.6974967,-0.6919339,-0.68737966,-0.6787908,-0.67273897,-0.67072165,-0.669713,-0.66515875,-0.6540636,-0.64140964,-0.6338601,-0.63132316,-0.6282972,-0.6191888,-0.6080936,-0.5995048,-0.5949507,-0.59192467,-0.5843445,-0.57373846,-0.5666779,-0.56163466,-0.55860865,-0.55001986,-0.5424397,-0.5384052,-0.5384052,-0.5394138,-0.5353486,-0.52828807,-0.52373385,-0.52373385,-0.5267904,-0.5242535,-0.52223617,-0.5217165,-0.5267904,-0.5338509,-0.5424397,-0.5540545,-0.56817555,-0.5878901,-0.6080936,-0.623743,-0.63737506,-0.65305495,-0.6717303,-0.6889079,-0.70052266,-0.7085919,-0.71617204,-0.7277868,-0.73891246,-0.7464621,-0.7525445,-0.75911605,-0.7681939,-0.7762631,-0.7788,-0.77931964,-0.77577406,-0.7762631,-0.7767827,-0.77323717,-0.7692026,-0.7692026,-0.7722285,-0.7762631,-0.77577406,-0.77073085,-0.76516795,-0.7631507,-0.7636397,-0.7596051,-0.7535532,-0.74799037,-0.7464621,-0.74799037,-0.74799037,-0.74747074,-0.7454534,-0.74698174,-0.74850994,-0.74698174,-0.7454534,-0.7454534,-0.74747074,-0.74850994,-0.7454534,-0.74092984,-0.7394016,-0.74242747,-0.7454534,-0.74343616,-0.73891246,-0.73585594,-0.73738426,-0.73992115,-0.7419385,-0.7404102,-0.73891246,-0.73992115,-0.74092984,-0.73790383,-0.7343583,-0.732341,-0.7343583,-0.7348473,-0.732341,-0.72931504,-0.7262585,-0.7287954,-0.7308127,-0.7303237,-0.7287954,-0.7262585,-0.7283064,-0.7287954,-0.7272978,-0.72424126,-0.7237522,-0.7257695,-0.7272978,-0.7252499,-0.72121525,-0.7202066,-0.7237522,-0.72677815,-0.7237522,-0.71870893,-0.71516335,-0.71516335,-0.71770024,-0.71718067,-0.7136351,-0.7116178,-0.7141547,-0.71565247,-0.7146438,-0.71262646,-0.71213746,-0.7146438,-0.71565247,-0.71262646,-0.7081028,-0.70657456,-0.7106092,-0.7141547,-0.7131461,-0.7075832,-0.7035486,-0.70403767,-0.7050463,-0.7045573,-0.7020204,-0.6985054,-0.7020204,-0.7055659,-0.70657456,-0.7055659,-0.7045573,-0.7055659,-0.70657456,-0.7055659,-0.7015313,-0.700003,-0.70302904,-0.7055659,-0.70608556,-0.70302904,-0.69951403,-0.700003,-0.70254,-0.70403767,-0.7020204,-0.700003,-0.6989944,-0.6985054,-0.69596845,-0.69343156,-0.6919339,-0.69242287,-0.6919339,-0.685882,-0.6787908,-0.6742672,-0.67677355,-0.6797995,-0.6757649,-0.666687,-0.653544,-0.6429379,-0.6343491,-0.63132316,-0.6389034,-0.6525354,-0.6656784,-0.666687,-0.6520158,-0.62930584,-0.61818016,-0.6222453,-0.63789463,-0.6606046,-0.6833451,-0.70657456,-0.7262585,-0.73738426,-0.73790383,-0.7318214,-0.7272978,-0.7283064,-0.7303237,-0.7303237,-0.7277868,-0.7272978,-0.7343583,-0.74747074,-0.7616224,-0.76516795,-0.7419385,-0.6783018,-0.5459547,-0.3237461,-0.019684017,0.32830036,0.6459638,0.8646575,0.9025277,0.74141884,0.42928755,0.06666267,-0.2520402,-0.47476852,-0.60959136,-0.71565247,-0.8181985,-0.9015191,-0.94901735,-0.9591038,-0.9459608,-0.93232876,-0.92425954,-0.917199,-0.9090992,-0.90051043,-0.89293027,-0.8838524,-0.87171805,-0.8586056,-0.8479995,-0.8424367,-0.83840203,-0.8288046,-0.81517255,-0.8050555,-0.8015405,-0.8020295,-0.80001223,-0.79496896,-0.78787786,-0.7833542,-0.7782804,-0.76871353,-0.7575878,-0.74951863,-0.74747074,-0.74698174,-0.7429471,-0.73536694,-0.7287954,-0.72424126,-0.72072625,-0.71262646,-0.7035486,-0.6949598,-0.69092524,-0.68737966,-0.6803191,-0.670202,-0.6611242,-0.6550723,-0.64950943,-0.64192927,-0.6323318,-0.62527126,-0.6222453,-0.6197084,-0.6126479,-0.60152215,-0.5873705,-0.5787817,-0.57071245,-0.5626433,-0.5550631,-0.54901123,-0.5459547,-0.5434483,-0.5363573,-0.5267904,-0.52070785,-0.5192102,-0.52070785,-0.5182016,-0.5131277,-0.5090931,-0.5111104,-0.51465595,-0.5166733,-0.5182016,-0.5217165,-0.53232265,-0.5459547,-0.56163466,-0.57777303,-0.59696794,-0.6201974,-0.64092064,-0.6550723,-0.66515875,-0.6762845,-0.69242287,-0.7096005,-0.72072625,-0.7277868,-0.73283005,-0.73992115,-0.74747074,-0.75052726,-0.7530336,-0.75456184,-0.762142,-0.76972216,-0.7727481,-0.7722285,-0.7717395,-0.7742458,-0.7752545,-0.77375674,-0.7676743,-0.7636397,-0.7641593,-0.7671853,-0.7676743,-0.7646483,-0.76061374,-0.7601247,-0.76061374,-0.7601247,-0.7585965,-0.75557053,-0.7535532,-0.75456184,-0.7525445,-0.748999,-0.7464621,-0.74597305,-0.74496436,-0.74242747,-0.74092984,-0.74092984,-0.74597305,-0.7500076,-0.74951863,-0.7454534,-0.74092984,-0.73992115,-0.7404102,-0.73891246,-0.7368646,-0.73536694,-0.7383929,-0.7429471,-0.74242747,-0.73891246,-0.7348473,-0.7348473,-0.7363756,-0.7368646,-0.7363756,-0.7363756,-0.73738426,-0.7383929,-0.73536694,-0.7308127,-0.7287954,-0.7308127,-0.7333497,-0.7333497,-0.7308127,-0.7283064,-0.72931504,-0.7287954,-0.7262585,-0.72424126,-0.72222394,-0.72476083,-0.72677815,-0.7252499,-0.7197176,-0.7146438,-0.7141547,-0.7136351,-0.7136351,-0.7116178,-0.71213746,-0.7146438,-0.71617204,-0.7136351,-0.7081028,-0.7045573,-0.70657456,-0.7096005,-0.7106092,-0.7075832,-0.70403767,-0.7055659,-0.7075832,-0.70657456,-0.7045573,-0.7015313,-0.70254,-0.7050463,-0.7050463,-0.7015313,-0.6989944,-0.700003,-0.70254,-0.7045573,-0.70254,-0.700003,-0.69951403,-0.6989944,-0.6974967,-0.6949598,-0.6929425,-0.6954794,-0.6974967,-0.6974967,-0.69444025,-0.69242287,-0.69395113,-0.6954794,-0.69444025,-0.69092524,-0.6889079,-0.68991655,-0.6919339,-0.6904056,-0.68637097,-0.68487334,-0.6889079,-0.69343156,-0.69395113,-0.6889079,-0.685882,-0.68789923,-0.6889079,-0.68838835,-0.68487334,-0.6787908,-0.6783018,-0.6777822,-0.6742672,-0.6687044,-0.66515875,-0.66466975,-0.6601156,-0.64798117,-0.62979496,-0.6161629,-0.6171715,-0.63184273,-0.64798117,-0.6550723,-0.6489898,-0.63486874,-0.6201974,-0.6136565,-0.61668247,-0.6308036,-0.6580982,-0.68789923,-0.7141547,-0.7313323,-0.73891246,-0.74092984,-0.73992115,-0.7338387,-0.72677815,-0.72323257,-0.7257695,-0.7287954,-0.7308127,-0.7368646,-0.74850994,-0.76871353,-0.77931964,-0.75456184,-0.6742672,-0.5141364,-0.26414406,0.06311703,0.41666412,0.72677815,0.91212523,0.89849305,0.6899165,0.3570621,0.0040346384,-0.29091907,-0.49142653,-0.6191888,-0.7277868,-0.8288046,-0.9116362,-0.9621298,-0.9737446,-0.9591038,-0.936883,-0.920714,-0.91567075,-0.91365343,-0.9086102,-0.8974845,-0.88333285,-0.87425494,-0.86517715,-0.857597,-0.8479995,-0.83687377,-0.82981324,-0.8232417,-0.81667024,-0.8090901,-0.8035578,-0.8025491,-0.8005318,-0.79243207,-0.7823456,-0.77121985,-0.7661766,-0.76516795,-0.7631507,-0.7560595,-0.748999,-0.7444448,-0.73992115,-0.73283005,-0.72424126,-0.71718067,-0.7141547,-0.71213746,-0.7055659,-0.6949598,-0.68637097,-0.6803191,-0.67677355,-0.670202,-0.6595959,-0.6499985,-0.64446616,-0.63838375,-0.6303145,-0.6201974,-0.61011094,-0.60152215,-0.5944616,-0.5838555,-0.5722407,-0.56466055,-0.561115,-0.5575695,-0.55001986,-0.5384052,-0.52880764,-0.5242535,-0.5217165,-0.5176819,-0.51062137,-0.50557816,-0.5045389,-0.5050585,-0.50353026,-0.49900663,-0.49747837,-0.5020326,-0.5101018,-0.5186906,-0.52880764,-0.54192007,-0.560626,-0.58232725,-0.60152215,-0.61769116,-0.63486874,-0.6540636,-0.673228,-0.68637097,-0.6954794,-0.70403767,-0.71565247,-0.7287954,-0.7383929,-0.7444448,-0.7510163,-0.76061374,-0.77073085,-0.7762631,-0.7752545,-0.77323717,-0.77476543,-0.7767827,-0.77727175,-0.7742458,-0.7717395,-0.77375674,-0.7777914,-0.77931964,-0.77727175,-0.77375674,-0.7742458,-0.7762631,-0.77323717,-0.76871353,-0.76516795,-0.765657,-0.7671853,-0.76666564,-0.762142,-0.75911605,-0.7616224,-0.7661766,-0.7676743,-0.7631507,-0.75706816,-0.75557053,-0.75657916,-0.7575878,-0.7560595,-0.7535532,-0.75456184,-0.75404227,-0.7525445,-0.74850994,-0.7454534,-0.74850994,-0.7530336,-0.75456184,-0.7525445,-0.748999,-0.74951863,-0.75052726,-0.748999,-0.7454534,-0.7429471,-0.74395573,-0.74698174,-0.7454534,-0.7394016,-0.7338387,-0.7333497,-0.7343583,-0.7338387,-0.732341,-0.7313323,-0.7343583,-0.7363756,-0.73283005,-0.7257695,-0.7217349,-0.7252499,-0.7318214,-0.73283005,-0.7283064,-0.72222394,-0.72222394,-0.7262585,-0.7283064,-0.7272978,-0.72323257,-0.7227435,-0.72323257,-0.72323257,-0.72121525,-0.719198,-0.72121525,-0.7227435,-0.7237522,-0.72072625,-0.71870893,-0.7197176,-0.71870893,-0.71617204,-0.7106092,-0.70657456,-0.7081028,-0.7111288,-0.71262646,-0.71213746,-0.7111288,-0.7136351,-0.71516335,-0.71213746,-0.70657456,-0.70052266,-0.70254,-0.7055659,-0.7081028,-0.70608556,-0.70403767,-0.7050463,-0.70608556,-0.70657456,-0.7035486,-0.7020204,-0.7035486,-0.70608556,-0.7050463,-0.7015313,-0.69596845,-0.6954794,-0.6974967,-0.6974967,-0.6949598,-0.69444025,-0.6954794,-0.696488,-0.696488,-0.69395113,-0.6929425,-0.69596845,-0.6985054,-0.69798577,-0.6904056,-0.68132776,-0.6772932,-0.6762845,-0.6752758,-0.6717303,-0.66466975,-0.6595959,-0.6555613,-0.65305495,-0.6540636,-0.6580982,-0.66818476,-0.67221934,-0.67072165,-0.6631415,-0.6585873,-0.66262186,-0.6742672,-0.68637097,-0.69444025,-0.6954794,-0.6904056,-0.67931044,-0.6671761,-0.6580982,-0.6580982,-0.66818476,-0.6843537,-0.70254,-0.719198,-0.7343583,-0.7444448,-0.7454534,-0.7404102,-0.7343583,-0.7394016,-0.75706816,-0.7777914,-0.7823456,-0.7454534,-0.6525354,-0.47626615,-0.2106244,0.12473643,0.47678578,0.76565695,0.9116361,0.8505058,0.59797657,0.23788846,-0.120212674,-0.3989975,-0.5697038,-0.669713,-0.7575878,-0.8434453,-0.9141425,-0.95152366,-0.9545496,-0.9378916,-0.92022496,-0.91365343,-0.91111654,-0.9065929,-0.89393896,-0.8803069,-0.8722377,-0.8671944,-0.8636489,-0.8555797,-0.84647125,-0.8388911,-0.83235013,-0.82525903,-0.81667024,-0.8075924,-0.8035578,-0.7979949,-0.7904148,-0.77980864,-0.7692026,-0.765657,-0.7641593,-0.762142,-0.75657916,-0.75202495,-0.74698174,-0.7419385,-0.7338387,-0.7227435,-0.7136351,-0.7101201,-0.7085919,-0.70403767,-0.6949598,-0.68536234,-0.6808082,-0.67677355,-0.6717303,-0.6631415,-0.6540636,-0.64798117,-0.6429379,-0.63486874,-0.6247517,-0.6141455,-0.6080936,-0.6010331,-0.58941835,-0.5757557,-0.5641409,-0.55961734,-0.55961734,-0.5545435,-0.5429287,-0.53082496,-0.52223617,-0.5182016,-0.51465595,-0.50707585,-0.50252163,-0.50252163,-0.50557816,-0.50707585,-0.5050585,-0.50102395,-0.5020326,-0.5065868,-0.51211905,-0.5176819,-0.52627075,-0.54192007,-0.56212366,-0.5833359,-0.60002446,-0.6156738,-0.6338601,-0.65051806,-0.6661674,-0.67931044,-0.6904056,-0.7035486,-0.71718067,-0.7283064,-0.73536694,-0.74242747,-0.7525445,-0.7616224,-0.7671853,-0.7692026,-0.76972216,-0.7742458,-0.7788,-0.77980864,-0.7777914,-0.77577406,-0.7777914,-0.7823456,-0.7838433,-0.7813369,-0.77727175,-0.7767827,-0.7788,-0.7782804,-0.77476543,-0.76972216,-0.7702112,-0.77073085,-0.7692026,-0.7641593,-0.7585965,-0.7581074,-0.7611334,-0.7636397,-0.7611334,-0.75706816,-0.75657916,-0.7575878,-0.75911605,-0.75657916,-0.7535532,-0.7535532,-0.75404227,-0.7530336,-0.74951863,-0.74597305,-0.7464621,-0.74799037,-0.748999,-0.74496436,-0.73992115,-0.74141884,-0.74395573,-0.74747074,-0.7464621,-0.7429471,-0.74141884,-0.7404102,-0.7394016,-0.7383929,-0.73585594,-0.7368646,-0.7383929,-0.73738426,-0.7338387,-0.732341,-0.7348473,-0.7368646,-0.73536694,-0.72931504,-0.72323257,-0.72323257,-0.7272978,-0.7298041,-0.7283064,-0.7257695,-0.7262585,-0.7283064,-0.7272978,-0.7237522,-0.71870893,-0.71818936,-0.719198,-0.719198,-0.71718067,-0.71516335,-0.71617204,-0.71770024,-0.71617204,-0.70911145,-0.70254,-0.70302904,-0.7085919,-0.7136351,-0.7141547,-0.7111288,-0.7096005,-0.7101201,-0.7111288,-0.7101201,-0.7085919,-0.70911145,-0.7106092,-0.7096005,-0.7045573,-0.7015313,-0.7035486,-0.7081028,-0.7096005,-0.70657456,-0.7015313,-0.700003,-0.7020204,-0.7035486,-0.7020204,-0.6985054,-0.6989944,-0.69951403,-0.6989944,-0.69697714,-0.69395113,-0.69444025,-0.6954794,-0.6949598,-0.68991655,-0.68536234,-0.68737966,-0.6904056,-0.69444025,-0.69596845,-0.69596845,-0.69798577,-0.6989944,-0.69697714,-0.69141424,-0.685882,-0.68637097,-0.68991655,-0.6929425,-0.69141424,-0.689397,-0.6904056,-0.6919339,-0.69141424,-0.68838835,-0.6838341,-0.6843537,-0.68737966,-0.68838835,-0.6838341,-0.67677355,-0.6717303,-0.669713,-0.66818476,-0.6631415,-0.6570896,-0.6489898,-0.63737506,-0.62426263,-0.61466515,-0.61818016,-0.6358774,-0.6545527,-0.6611242,-0.64798117,-0.6272886,-0.61466515,-0.6161629,-0.62878627,-0.6474922,-0.67072165,-0.6989944,-0.7227435,-0.73891246,-0.73992115,-0.73283005,-0.7283064,-0.72677815,-0.72677815,-0.7252499,-0.7237522,-0.7257695,-0.7318214,-0.74597305,-0.7616224,-0.7742458,-0.7661766,-0.7116178,-0.5833359,-0.35556442,-0.04040712,0.32221782,0.66213286,0.90607333,0.9697099,0.8146529,0.4838463,0.08989215,-0.26010936,-0.49848706,-0.6328515,-0.72677815,-0.8181985,-0.89647585,-0.9439435,-0.95506924,-0.9449522,-0.93232876,-0.92373997,-0.9161598,-0.9101079,-0.9020387,-0.8934499,-0.8808265,-0.8676835,-0.85506004,-0.84848857,-0.84647125,-0.84191704,-0.83283925,-0.8227527,-0.8146529,-0.8090901,-0.8040468,-0.79496896,-0.7868692,-0.7813369,-0.7777914,-0.7722285,-0.7641593,-0.75557053,-0.7510163,-0.748999,-0.7454534,-0.7368646,-0.72931504,-0.7252499,-0.7237522,-0.72072625,-0.7116178,-0.69951403,-0.69141424,-0.6868906,-0.68487334,-0.6808082,-0.6737476,-0.6676957,-0.6611242,-0.6555613,-0.6459639,-0.63535774,-0.62527126,-0.61818016,-0.61011094,-0.6010331,-0.59192467,-0.58486414,-0.5787817,-0.5717211,-0.5631323,-0.5540545,-0.5505089,-0.5480026,-0.5434483,-0.5343399,-0.5252621,-0.52070785,-0.5182016,-0.51719296,-0.5131277,-0.50961274,-0.5090931,-0.51163006,-0.51211905,-0.50707585,-0.5040499,-0.5075954,-0.51514506,-0.52828807,-0.54042244,-0.55353487,-0.57071245,-0.59091604,-0.6106305,-0.6247517,-0.6393924,-0.6580982,-0.6783018,-0.69697714,-0.7081028,-0.71870893,-0.7287954,-0.7383929,-0.74597305,-0.74850994,-0.7515359,-0.7585965,-0.7671853,-0.77323717,-0.77476543,-0.7742458,-0.77727175,-0.7813369,-0.7828346,-0.77980864,-0.77323717,-0.7692026,-0.7676743,-0.765657,-0.7611334,-0.75706816,-0.7560595,-0.7581074,-0.7596051,-0.7550509,-0.74850994,-0.7454534,-0.74496436,-0.74698174,-0.74496436,-0.74141884,-0.74141884,-0.7429471,-0.74343616,-0.7419385,-0.73790383,-0.7363756,-0.73790383,-0.7419385,-0.74242747,-0.74395573,-0.74698174,-0.74698174,-0.7454534,-0.7404102,-0.73536694,-0.73536694,-0.73891246,-0.74242747,-0.7419385,-0.7404102,-0.74141884,-0.7419385,-0.7394016,-0.7343583,-0.7287954,-0.7283064,-0.7318214,-0.7333497,-0.7308127,-0.7272978,-0.7272978,-0.7308127,-0.7318214,-0.7277868,-0.72222394,-0.7202066,-0.72072625,-0.7227435,-0.7217349,-0.72121525,-0.7217349,-0.72323257,-0.72323257,-0.7197176,-0.71818936,-0.7197176,-0.72222394,-0.72323257,-0.71718067,-0.7106092,-0.7085919,-0.7101201,-0.71213746,-0.71213746,-0.71262646,-0.71516335,-0.71770024,-0.71870893,-0.7136351,-0.7081028,-0.7075832,-0.70911145,-0.7106092,-0.70911145,-0.70657456,-0.7075832,-0.7106092,-0.71262646,-0.7075832,-0.7020204,-0.69951403,-0.69951403,-0.70254,-0.7020204,-0.69951403,-0.6989944,-0.7015313,-0.7020204,-0.6989944,-0.6949598,-0.69395113,-0.69697714,-0.69951403,-0.6985054,-0.696488,-0.69697714,-0.70052266,-0.7035486,-0.7010117,-0.6949598,-0.69092524,-0.69141424,-0.69343156,-0.6919339,-0.6919339,-0.69242287,-0.69343156,-0.69444025,-0.6889079,-0.6833451,-0.6797995,-0.6783018,-0.67677355,-0.673228,-0.6687044,-0.666687,-0.6636611,-0.6540636,-0.6358774,-0.6222453,-0.6212367,-0.63636637,-0.65608096,-0.6631415,-0.6545527,-0.63636637,-0.62071705,-0.61515415,-0.6201974,-0.6393924,-0.66818476,-0.6989944,-0.72323257,-0.7333497,-0.7338387,-0.7333497,-0.73536694,-0.73536694,-0.72931504,-0.72072625,-0.71565247,-0.71565247,-0.7217349,-0.7298041,-0.7429471,-0.7575878,-0.75911605,-0.72677815,-0.63737506,-0.4702143,-0.21313077,0.11513901,0.46617973,0.7696916,0.9318397,0.88030684,0.6247517,0.24999237,-0.12577564,-0.42072928,-0.6045481,-0.71718067,-0.80557513,-0.87425494,-0.92172265,-0.9424458,-0.94091755,-0.9308311,-0.91820765,-0.90760154,-0.90051043,-0.89647585,-0.89192164,-0.8828438,-0.8707094,-0.8621206,-0.85457104,-0.8454626,-0.83436745,-0.8232417,-0.81517255,-0.8121466,-0.8096097,-0.80102086,-0.79243207,-0.78586054,-0.7828346,-0.7803283,-0.7727481,-0.765657,-0.75911605,-0.75657916,-0.75557053,-0.748999,-0.74092984,-0.73585594,-0.73283005,-0.7277868,-0.7197176,-0.7111288,-0.7050463,-0.7045573,-0.7020204,-0.6949598,-0.68487334,-0.67677355,-0.67221934,-0.66515875,-0.6550723,-0.6439466,-0.63737506,-0.63636637,-0.6333405,-0.62527126,-0.61466515,-0.60607636,-0.60152215,-0.59696794,-0.5888988,-0.5793013,-0.5717211,-0.56817555,-0.56212366,-0.55252624,-0.5439374,-0.5388941,-0.5394138,-0.5399028,-0.5363573,-0.5328423,-0.5303053,-0.531314,-0.531314,-0.5272794,-0.5257511,-0.5292967,-0.5384052,-0.55102855,-0.56010634,-0.56817555,-0.5798209,-0.5949507,-0.61111957,-0.6257603,-0.640401,-0.6550723,-0.67221934,-0.68838835,-0.7015313,-0.7136351,-0.72677815,-0.73891246,-0.74799037,-0.7525445,-0.75657916,-0.7636397,-0.7722285,-0.7788,-0.7788,-0.77577406,-0.77577406,-0.7777914,-0.77931964,-0.7767827,-0.7717395,-0.76972216,-0.7727481,-0.77577406,-0.7752545,-0.7717395,-0.76871353,-0.7671853,-0.7636397,-0.75706816,-0.75052726,-0.74951863,-0.75202495,-0.7560595,-0.75404227,-0.7500076,-0.74799037,-0.748999,-0.7500076,-0.74747074,-0.7444448,-0.74395573,-0.74597305,-0.74799037,-0.74698174,-0.74496436,-0.7464621,-0.7510163,-0.75202495,-0.74698174,-0.7404102,-0.73891246,-0.7429471,-0.74698174,-0.7454534,-0.7404102,-0.73790383,-0.7394016,-0.7419385,-0.73992115,-0.7343583,-0.7343583,-0.7368646,-0.7394016,-0.73891246,-0.73536694,-0.7338387,-0.7363756,-0.73585594,-0.7333497,-0.7287954,-0.7277868,-0.7303237,-0.7313323,-0.7272978,-0.72323257,-0.7227435,-0.7262585,-0.7283064,-0.7257695,-0.72323257,-0.72323257,-0.7262585,-0.7287954,-0.7252499,-0.72072625,-0.71770024,-0.71818936,-0.7202066,-0.71818936,-0.71516335,-0.7141547,-0.71565247,-0.71718067,-0.71617204,-0.7166916,-0.71617204,-0.71718067,-0.71718067,-0.7116178,-0.7075832,-0.70657456,-0.7085919,-0.7106092,-0.7101201,-0.70911145,-0.7111288,-0.7146438,-0.7146438,-0.7081028,-0.7020204,-0.700003,-0.7035486,-0.7081028,-0.7070942,-0.7020204,-0.700003,-0.7020204,-0.70657456,-0.7081028,-0.70608556,-0.7050463,-0.7055659,-0.7055659,-0.7035486,-0.69951403,-0.6989944,-0.70052266,-0.7015313,-0.69951403,-0.696488,-0.696488,-0.6989944,-0.700003,-0.696488,-0.69092524,-0.6868906,-0.685882,-0.685882,-0.6833451,-0.6823364,-0.6833451,-0.6833451,-0.67677355,-0.65910685,-0.6389034,-0.6303145,-0.63737506,-0.65608096,-0.6712107,-0.6747562,-0.6656784,-0.65051806,-0.636886,-0.62527126,-0.62878627,-0.64798117,-0.67677355,-0.7075832,-0.7287954,-0.73738426,-0.73992115,-0.74242747,-0.74343616,-0.7383929,-0.7338387,-0.7313323,-0.732341,-0.7348473,-0.73738426,-0.74343616,-0.7560595,-0.77121985,-0.7671853,-0.72424126,-0.6247517,-0.44597608,-0.1833297,0.14646828,0.4858637,0.7631507,0.88889575,0.8030381,0.5358683,0.17828643,-0.16667181,-0.4313354,-0.59696794,-0.70657456,-0.7979949,-0.87526363,-0.93132013,-0.9580952,-0.9591038,-0.9449522,-0.9282942,-0.9186967,-0.9141425,-0.9080906,-0.8980041,-0.8853807,-0.87272674,-0.86566615,-0.8606229,-0.8520341,-0.84445393,-0.83840203,-0.8338479,-0.8277959,-0.8202158,-0.8111379,-0.8030382,-0.7990036,-0.79496896,-0.7863802,-0.77980864,-0.77577406,-0.7742458,-0.7722285,-0.76666564,-0.75911605,-0.7525445,-0.74799037,-0.74141884,-0.7318214,-0.72323257,-0.7166916,-0.7136351,-0.7111288,-0.7035486,-0.6954794,-0.689397,-0.68536234,-0.6808082,-0.6737476,-0.6656784,-0.6601156,-0.6575786,-0.6525354,-0.64140964,-0.62878627,-0.6171715,-0.61011094,-0.60607636,-0.5959593,-0.5868814,-0.5798209,-0.574258,-0.57022345,-0.56212366,-0.5520372,-0.54445696,-0.5388941,-0.5343399,-0.527799,-0.52070785,-0.5186906,-0.52021885,-0.52373385,-0.5227252,-0.52223617,-0.5242535,-0.5303053,-0.5388941,-0.5480026,-0.560626,-0.57676435,-0.59696794,-0.61668247,-0.63184273,-0.6464835,-0.6631415,-0.6818168,-0.69798577,-0.7106092,-0.72072625,-0.732341,-0.74395573,-0.7525445,-0.75456184,-0.75706816,-0.76263106,-0.7702112,-0.77727175,-0.7777914,-0.77727175,-0.77980864,-0.78787786,-0.791943,-0.7894061,-0.7828346,-0.7777914,-0.77727175,-0.77980864,-0.7803283,-0.7788,-0.7788,-0.77980864,-0.7803283,-0.77577406,-0.77121985,-0.76871353,-0.7692026,-0.77121985,-0.7681939,-0.76516795,-0.7631507,-0.7636397,-0.7636397,-0.7601247,-0.7560595,-0.7550509,-0.75657916,-0.75706816,-0.75404227,-0.7500076,-0.748999,-0.7525445,-0.75456184,-0.7530336,-0.748999,-0.74747074,-0.74747074,-0.75052726,-0.74951863,-0.74747074,-0.74850994,-0.7515359,-0.7525445,-0.7500076,-0.74496436,-0.7419385,-0.74343616,-0.7444448,-0.74242747,-0.7404102,-0.7404102,-0.7444448,-0.74597305,-0.7429471,-0.73738426,-0.7343583,-0.7368646,-0.73992115,-0.7383929,-0.7343583,-0.7318214,-0.732341,-0.7338387,-0.732341,-0.7313323,-0.7308127,-0.7348473,-0.73738426,-0.7338387,-0.7287954,-0.72476083,-0.7257695,-0.72931504,-0.7283064,-0.7272978,-0.7272978,-0.7298041,-0.7318214,-0.7298041,-0.7252499,-0.7227435,-0.7237522,-0.72476083,-0.72222394,-0.71870893,-0.71818936,-0.7202066,-0.72222394,-0.719198,-0.7141547,-0.7106092,-0.7116178,-0.7141547,-0.71516335,-0.7141547,-0.71565247,-0.7202066,-0.7202066,-0.71565247,-0.7085919,-0.7045573,-0.70608556,-0.7101201,-0.7106092,-0.7096005,-0.7085919,-0.7096005,-0.7111288,-0.7085919,-0.7055659,-0.7055659,-0.7085919,-0.70911145,-0.7055659,-0.7010117,-0.69951403,-0.7035486,-0.7070942,-0.7070942,-0.70254,-0.700003,-0.7010117,-0.7015313,-0.700003,-0.6974967,-0.6989944,-0.7050463,-0.7085919,-0.70608556,-0.6989944,-0.6929425,-0.69242287,-0.6929425,-0.6904056,-0.68536234,-0.68132776,-0.6818168,-0.6843537,-0.6808082,-0.67072165,-0.6555613,-0.639912,-0.62930584,-0.62979496,-0.64192927,-0.6595959,-0.670202,-0.6636611,-0.64140964,-0.6191888,-0.6126479,-0.6247517,-0.6485008,-0.6757649,-0.70052266,-0.72323257,-0.74092984,-0.7500076,-0.7454534,-0.7363756,-0.72931504,-0.7277868,-0.7303237,-0.7303237,-0.72931504,-0.73283005,-0.7444448,-0.76263106,-0.7788,-0.77980864,-0.74850994,-0.6676957,-0.50808454,-0.2555552,0.07525134,0.42980707,0.73234093,0.9116361,0.8969649,0.6878991,0.3540362,-0.003545642,-0.29648197,-0.48940915,-0.61111957,-0.7227435,-0.83586514,-0.92627686,-0.9737446,-0.97777915,-0.96112114,-0.9459608,-0.9389003,-0.9328484,-0.92425954,-0.9146621,-0.9055537,-0.8959868,-0.8828438,-0.86921173,-0.8586056,-0.85356236,-0.8490082,-0.84041935,-0.82981324,-0.821744,-0.81920713,-0.8161812,-0.8111379,-0.8020295,-0.7929517,-0.7883975,-0.7843629,-0.7777914,-0.76972216,-0.7646483,-0.76263106,-0.7616224,-0.75706816,-0.74698174,-0.73738426,-0.7298041,-0.72424126,-0.71770024,-0.7096005,-0.7035486,-0.7015313,-0.69798577,-0.6904056,-0.6787908,-0.6671761,-0.6601156,-0.653544,-0.6449552,-0.6343491,-0.62527126,-0.62172574,-0.6171715,-0.60656536,-0.5939419,-0.58131856,-0.57373846,-0.56768656,-0.55961734,-0.54901123,-0.5394138,-0.5343399,-0.53082496,-0.5232448,-0.5141364,-0.5050585,-0.5000153,-0.49497205,-0.4898982,-0.4863832,-0.4863832,-0.49142653,-0.49646974,-0.4994957,-0.50050426,-0.5111104,-0.5303053,-0.5520372,-0.5717211,-0.58941835,-0.6091023,-0.6328515,-0.65656996,-0.6742672,-0.68487334,-0.6949598,-0.7075832,-0.7227435,-0.73536694,-0.7444448,-0.7530336,-0.7616224,-0.7692026,-0.77121985,-0.77073085,-0.7722285,-0.7762631,-0.7803283,-0.78182596,-0.7803283,-0.77980864,-0.7823456,-0.7848519,-0.7828346,-0.7803283,-0.77727175,-0.7788,-0.7813369,-0.7803283,-0.7777914,-0.77727175,-0.77931964,-0.78182596,-0.77931964,-0.7752545,-0.7717395,-0.7727481,-0.7742458,-0.7727481,-0.7676743,-0.7646483,-0.76263106,-0.7611334,-0.7596051,-0.7575878,-0.75911605,-0.76263106,-0.7631507,-0.7581074,-0.7525445,-0.75052726,-0.75404227,-0.7575878,-0.75657916,-0.7530336,-0.7510163,-0.7525445,-0.75404227,-0.7525445,-0.74951863,-0.74850994,-0.7510163,-0.7535532,-0.7500076,-0.7444448,-0.7404102,-0.7419385,-0.74343616,-0.74141884,-0.7383929,-0.73585594,-0.7394016,-0.7429471,-0.73992115,-0.7343583,-0.72931504,-0.7298041,-0.7348473,-0.7348473,-0.732341,-0.7272978,-0.72677815,-0.72677815,-0.7252499,-0.72222394,-0.7217349,-0.72476083,-0.7287954,-0.7298041,-0.7252499,-0.7217349,-0.72222394,-0.7237522,-0.7227435,-0.7202066,-0.71870893,-0.7202066,-0.72072625,-0.71770024,-0.7131461,-0.7106092,-0.7141547,-0.7166916,-0.7166916,-0.7141547,-0.71213746,-0.7146438,-0.7166916,-0.7141547,-0.7101201,-0.7070942,-0.7085919,-0.7116178,-0.7106092,-0.7070942,-0.7050463,-0.7070942,-0.7096005,-0.7081028,-0.70302904,-0.69951403,-0.700003,-0.69951403,-0.6989944,-0.696488,-0.69697714,-0.7015313,-0.7050463,-0.7045573,-0.700003,-0.6989944,-0.70052266,-0.70254,-0.700003,-0.6954794,-0.6929425,-0.696488,-0.70052266,-0.70052266,-0.69697714,-0.6949598,-0.6974967,-0.7010117,-0.69951403,-0.69395113,-0.6889079,-0.6889079,-0.69092524,-0.69092524,-0.68991655,-0.68789923,-0.689397,-0.69092524,-0.68737966,-0.6808082,-0.6747562,-0.6737476,-0.6747562,-0.6742672,-0.6712107,-0.66466975,-0.6555613,-0.64092064,-0.6222453,-0.61163926,-0.61466515,-0.63486874,-0.65608096,-0.6631415,-0.6540636,-0.6338601,-0.6197084,-0.61818016,-0.6257603,-0.64192927,-0.666687,-0.6949598,-0.72072625,-0.73536694,-0.7383929,-0.73585594,-0.7338387,-0.7333497,-0.7303237,-0.7262585,-0.72323257,-0.72476083,-0.7313323,-0.74141884,-0.75557053,-0.77121985,-0.77375674,-0.73992115,-0.6439466,-0.45908856,-0.1833297,0.15857196,0.50860417,0.79545796,0.9404286,0.8752636,0.6166824,0.253538,-0.10150689,-0.3752483,-0.54647434,-0.6606046,-0.76516795,-0.8606229,-0.9282942,-0.9591038,-0.9616407,-0.950026,-0.933857,-0.9212336,-0.90760154,-0.9015191,-0.8949476,-0.8888957,-0.8828438,-0.87627226,-0.8697008,-0.8616316,-0.8520341,-0.84041935,-0.8303023,-0.8232417,-0.81667024,-0.80658376,-0.79646665,-0.7894061,-0.78787786,-0.78787786,-0.7843629,-0.7762631,-0.7676743,-0.76263106,-0.7601247,-0.7560595,-0.7500076,-0.74242747,-0.73738426,-0.732341,-0.7237522,-0.71262646,-0.70403767,-0.700003,-0.6974967,-0.69242287,-0.68536234,-0.6752758,-0.6691934,-0.66262186,-0.65305495,-0.64192927,-0.6328515,-0.6272886,-0.62273437,-0.61466515,-0.60152215,-0.58587277,-0.57676435,-0.5697038,-0.56212366,-0.55353487,-0.54445696,-0.5384052,-0.5318336,-0.5232448,-0.5136473,-0.50707585,-0.5020326,-0.49900663,-0.49292415,-0.4838463,-0.47626615,-0.47577715,-0.4788031,-0.48182905,-0.48537457,-0.48940915,-0.49900663,-0.51211905,-0.52627075,-0.54192007,-0.560626,-0.5828468,-0.6055567,-0.6257603,-0.6429379,-0.6585873,-0.6777822,-0.69444025,-0.70608556,-0.7166916,-0.7262585,-0.73891246,-0.74951863,-0.7560595,-0.75911605,-0.762142,-0.7681939,-0.7717395,-0.77073085,-0.7681939,-0.7671853,-0.7722285,-0.7788,-0.78081733,-0.7782804,-0.77577406,-0.7777914,-0.77980864,-0.77980864,-0.77727175,-0.77476543,-0.7762631,-0.7788,-0.7777914,-0.7727481,-0.7681939,-0.7671853,-0.76516795,-0.76061374,-0.7550509,-0.75202495,-0.7550509,-0.7581074,-0.7560595,-0.748999,-0.74242747,-0.7454534,-0.7500076,-0.75202495,-0.74951863,-0.7454534,-0.74395573,-0.74496436,-0.7444448,-0.7429471,-0.7429471,-0.7464621,-0.74951863,-0.74850994,-0.74343616,-0.73992115,-0.74092984,-0.7429471,-0.7429471,-0.74141884,-0.73891246,-0.73992115,-0.74092984,-0.73891246,-0.7348473,-0.7313323,-0.732341,-0.7338387,-0.732341,-0.7298041,-0.7283064,-0.7308127,-0.7338387,-0.73283005,-0.7277868,-0.7227435,-0.72323257,-0.7257695,-0.7262585,-0.72476083,-0.72222394,-0.7227435,-0.72424126,-0.7237522,-0.72222394,-0.7217349,-0.7237522,-0.72476083,-0.7217349,-0.71565247,-0.7106092,-0.71213746,-0.71565247,-0.71718067,-0.71565247,-0.7136351,-0.7141547,-0.71516335,-0.7136351,-0.7096005,-0.70608556,-0.7075832,-0.7111288,-0.71213746,-0.7111288,-0.7070942,-0.7075832,-0.7085919,-0.7070942,-0.7045573,-0.70403767,-0.70608556,-0.7085919,-0.7075832,-0.70302904,-0.69798577,-0.6985054,-0.70052266,-0.7010117,-0.69798577,-0.6949598,-0.69343156,-0.6949598,-0.69596845,-0.6954794,-0.6954794,-0.6985054,-0.7010117,-0.70052266,-0.6985054,-0.69697714,-0.700003,-0.70302904,-0.7015313,-0.6974967,-0.6949598,-0.6949598,-0.69798577,-0.6985054,-0.6949598,-0.6919339,-0.6919339,-0.6929425,-0.69242287,-0.68991655,-0.68838835,-0.689397,-0.69092524,-0.68991655,-0.6843537,-0.6783018,-0.67677355,-0.67677355,-0.6757649,-0.670202,-0.6616132,-0.6499985,-0.6343491,-0.6186998,-0.61163926,-0.6197084,-0.6429379,-0.66466975,-0.666687,-0.6499985,-0.62273437,-0.60858274,-0.61011094,-0.62527126,-0.6499985,-0.67931044,-0.7096005,-0.7343583,-0.74597305,-0.74496436,-0.7394016,-0.73585594,-0.7343583,-0.7318214,-0.7272978,-0.72424126,-0.72677815,-0.7348473,-0.74597305,-0.7611334,-0.7742458,-0.77073085,-0.7252499,-0.6055567,-0.3894,-0.085368395,0.27019596,0.6080936,0.85909474,0.9404286,0.81162703,0.5050585,0.12675357,-0.21313077,-0.4540453,-0.5944616,-0.69444025,-0.7944494,-0.8828438,-0.94042856,-0.9606321,-0.95506924,-0.93841124,-0.9212336,-0.9106275,-0.904056,-0.90454507,-0.9035364,-0.8934499,-0.8767919,-0.8601033,-0.85102546,-0.8469909,-0.8424367,-0.83436745,-0.82477003,-0.81920713,-0.8146529,-0.8100987,-0.80102086,-0.79142344,-0.7868692,-0.7833542,-0.77980864,-0.7727481,-0.765657,-0.76061374,-0.7560595,-0.7515359,-0.74395573,-0.73585594,-0.7308127,-0.7262585,-0.7202066,-0.71213746,-0.7035486,-0.69798577,-0.6929425,-0.685882,-0.6772932,-0.6691934,-0.6641501,-0.6601156,-0.6520158,-0.639912,-0.62930584,-0.62172574,-0.61515415,-0.60656536,-0.5939419,-0.5798209,-0.5697038,-0.5641409,-0.5590977,-0.5505089,-0.54143107,-0.5328423,-0.52373385,-0.51566464,-0.50606716,-0.49799794,-0.49393284,-0.49191546,-0.48940915,-0.48485494,-0.48182905,-0.48283768,-0.48586363,-0.4873919,-0.48687232,-0.4898982,-0.49900663,-0.5126387,-0.52880764,-0.5449461,-0.5626433,-0.5868814,-0.6126479,-0.6343491,-0.6510072,-0.6661674,-0.6823364,-0.69798577,-0.7111288,-0.7202066,-0.7287954,-0.7404102,-0.7525445,-0.7601247,-0.7611334,-0.7611334,-0.76666564,-0.77323717,-0.7788,-0.7803283,-0.7788,-0.7788,-0.78182596,-0.7828346,-0.78081733,-0.7767827,-0.7767827,-0.7767827,-0.7762631,-0.7717395,-0.7692026,-0.76871353,-0.76871353,-0.7681939,-0.76263106,-0.7575878,-0.7575878,-0.7585965,-0.75706816,-0.75404227,-0.7515359,-0.7530336,-0.75557053,-0.75557053,-0.7525445,-0.7500076,-0.75052726,-0.75202495,-0.7510163,-0.7464621,-0.74343616,-0.74597305,-0.74951863,-0.75052726,-0.74597305,-0.74343616,-0.74395573,-0.74496436,-0.74597305,-0.7419385,-0.7383929,-0.74141884,-0.74597305,-0.74747074,-0.7429471,-0.7363756,-0.7343583,-0.73585594,-0.7363756,-0.7348473,-0.732341,-0.7308127,-0.7308127,-0.7308127,-0.7283064,-0.7262585,-0.7277868,-0.7283064,-0.7272978,-0.72424126,-0.72222394,-0.72323257,-0.7262585,-0.7257695,-0.7227435,-0.7217349,-0.72476083,-0.7272978,-0.7257695,-0.71870893,-0.7116178,-0.7111288,-0.7146438,-0.71617204,-0.71516335,-0.7111288,-0.7106092,-0.7111288,-0.7106092,-0.7085919,-0.7070942,-0.7096005,-0.7111288,-0.7106092,-0.7050463,-0.69951403,-0.700003,-0.7010117,-0.6985054,-0.69242287,-0.68487334,-0.68132776,-0.67931044,-0.6737476,-0.6671761,-0.66262186,-0.6631415,-0.66818476,-0.6737476,-0.6752758,-0.67677355,-0.6808082,-0.6843537,-0.68838835,-0.68789923,-0.68737966,-0.6919339,-0.696488,-0.6989944,-0.69697714,-0.68991655,-0.6833451,-0.6787908,-0.6777822,-0.6783018,-0.6823364,-0.69343156,-0.7101201,-0.7277868,-0.7394016,-0.74850994,-0.7525445,-0.75456184,-0.75911605,-0.7676743,-0.77980864,-0.7868692,-0.762142,-0.6787908,-0.50304127,-0.23030835,0.111624,0.468197,0.7646483,0.9298223,0.88889575,0.64446616,0.27829576,-0.09291804,-0.38233948,-0.5590977,-0.6636611,-0.7550509,-0.84497356,-0.9141425,-0.95152366,-0.9601125,-0.94901735,-0.933857,-0.91921633,-0.9090992,-0.9035364,-0.8969954,-0.8863893,-0.87373537,-0.8621206,-0.85506004,-0.8494972,-0.84191704,-0.8303023,-0.8207048,-0.8146529,-0.8100987,-0.80456644,-0.7944494,-0.78537154,-0.7803283,-0.77727175,-0.77323717,-0.7646483,-0.7560595,-0.74951863,-0.7429471,-0.73891246,-0.7308127,-0.7237522,-0.7202066,-0.71565247,-0.7101201,-0.70302904,-0.69596845,-0.6929425,-0.6889079,-0.68282545,-0.67221934,-0.6595959,-0.6525354,-0.6464835,-0.6389034,-0.6282972,-0.61818016,-0.6126479,-0.61011094,-0.6025308,-0.58941835,-0.5717211,-0.560626,-0.5530458,-0.54647434,-0.53687686,-0.52627075,-0.5161842,-0.5090931,-0.501513,-0.4909069,-0.48182905,-0.4788031,-0.47577715,-0.47171193,-0.4646514,-0.45807987,-0.45960814,-0.4656601,-0.4742489,-0.4813094,-0.48840052,-0.50252163,-0.52070785,-0.5429287,-0.5666779,-0.59042704,-0.61515415,-0.6389034,-0.6580982,-0.67072165,-0.6823364,-0.69697714,