-0.39718902,-0.40000618,-0.39973056,-0.3994243,-0.39801574,-0.4008329,-0.4033745,-0.40533423,-0.40928435,-0.4140613,-0.40983558,-0.37609088,-0.3035184,-0.18538141,-0.032336116,0.124904394,0.26245522,0.36399543,0.39718902,0.32375908,0.1310898,-0.15050375,-0.45034754,-0.6928377,-0.8219371,-0.85399765,-0.81743574,-0.74091315,-0.6503353,-0.56089044,-0.4880424,-0.44416207,-0.42615676,-0.4211042,-0.4185626,-0.4140613,-0.4067428,-0.39887315,-0.39183027,-0.3876351,-0.38340938,-0.38004106,-0.37722385,-0.37244695,-0.36567962,-0.3617295,-0.356677,-0.34908295,-0.3423462,-0.33276176,-0.3203907,-0.31138808,-0.302661,-0.29142296,-0.27987874,-0.2658236,-0.25486112,-0.24668527,-0.23967302,-0.2292617,-0.21125644,-0.18960714,-0.17242861,-0.16400772,-0.16342592,-0.16933584,-0.17861408,-0.18960714,-0.20366234,-0.21799308,-0.23207885,-0.24558288,-0.263282,-0.28496188,-0.31392962,-0.34344864,-0.36990535,-0.39241207,-0.40928435,-0.42588115,-0.4427535,-0.4548489,-0.4638515,-0.47058827,-0.4790398,-0.49000216,-0.50099516,-0.5063233,-0.509416,-0.509416,-0.510549,-0.51336616,-0.51168203,-0.51168203,-0.5150504,-0.5167346,-0.5206847,-0.52405304,-0.5237775,-0.52264446,-0.5220933,-0.5198273,-0.51927614,-0.5248798,-0.5305141,-0.53697526,-0.5395168,-0.53697526,-0.5333313,-0.52518606,-0.5198273,-0.51900053,-0.52096033,-0.52518606,-0.52687025,-0.51955175,-0.5069051,-0.48917538,-0.47989708,-0.474814,-0.47426277,-0.47707993,-0.4745384,-0.46862847,-0.4607588,-0.45598185,-0.45203173,-0.4467036,-0.44220233,-0.43910956,-0.44079375,-0.4483878,-0.4607588,-0.4728542,-0.4827143,-0.49085957,-0.49900478,-0.509416,-0.52178705,-0.53023857,-0.53501546,-0.53473985,-0.53164715,-0.5313716,-0.5358729,-0.54374254,-0.5490706,-0.5502036,-0.55133665,-0.55216336,-0.5538782,-0.54401815,-0.50099516,-0.41096854,-0.27087605,-0.1032244,0.06638694,0.21294057,0.30293655,0.30152798,0.1814313,-0.06133443,-0.37018096,-0.66582966,-0.88495576,-0.99013996,-1.0,-0.9476682,-0.8615917,-0.7648284,-0.6796093,-0.61435527,-0.57693607,-0.5653918,-0.56370765,-0.5648406,-0.5648406,-0.55865514,-0.5547049,-0.5490706,-0.5428852,-0.5324739,-0.52292,-0.51336616,-0.5074563,-0.5074563,-0.50858927,-0.50999784,-0.5054965,-0.4953609,-0.48017275,-0.46498454,-0.4540221,-0.44584626,-0.43852776,-0.42532998,-0.40701842,-0.38931936,-0.37413108,-0.35949415,-0.34654135,-0.33389473,-0.32375908,-0.31674677,-0.31307226,-0.3105613,-0.30801976,-0.3102551,-0.31588942,-0.3274336,-0.34485722,-0.36681265,-0.38650215,-0.4081514,-0.42615676,-0.44471323,-0.46581125,-0.49085957,-0.5147748,-0.53697526,-0.5563891,-0.5721591,-0.58397895,-0.59521693,-0.6042197,-0.61126256,-0.6140491,-0.61126256,-0.6109563,-0.61349785,-0.616315,-0.6196834,-0.62109196,-0.61913216,-0.6171418,-0.6179992,-0.6171418,-0.6165906,-0.6165906,-0.61377347,-0.60872096,-0.60562825,-0.60645497,-0.6084454,-0.6070368,-0.6033622,-0.5966255,-0.59549254,-0.6014025,-0.6089965,-0.61126256,-0.6059038,-0.5957681,-0.58508134,-0.57748723,-0.5746701,-0.57411885,-0.57243466,-0.5710261,-0.5696175,-0.56876016,-0.56680036,-0.5642588,-0.56202346,-0.5580733,-0.5549805,-0.5561135,-0.5575222,-0.56116605,-0.5651162,-0.56370765,-0.55779773,-0.5516122,-0.54401815,-0.5417828,-0.5426096,-0.5445693,-0.54738647,-0.5482439,-0.54879504,-0.5448755,-0.5417828,-0.5397924,-0.5406498,-0.5434669,-0.5448755,-0.5434669,-0.53869003,-0.5352911,-0.5336069,-0.5344643,-0.5381082,-0.53669965,-0.529963,-0.52264446,-0.51336616,-0.5057721,-0.5012708,-0.49790245,-0.49732065,-0.49958664,-0.5032306,-0.5037817,-0.49618763,-0.47959095,-0.4607588,-0.44416207,-0.43375087,-0.43010688,-0.43010688,-0.43093365,-0.43151546,-0.4362924,-0.44639742,-0.46103436,-0.48017275,-0.49845362,-0.5111002,-0.514193,-0.5139174,-0.50858927,-0.5040879,-0.5040879,-0.50436354,-0.5054965,-0.5057721,-0.5054965,-0.5049147,-0.5054965,-0.5074563,-0.4998622,-0.46470892,-0.3904217,-0.265548,-0.10098904,0.072021246,0.23685575,0.3614539,0.40365005,0.32911777,0.11645281,-0.19239372,-0.5139174,-0.7679211,-0.90632945,-0.9392473,-0.90378785,-0.8275714,-0.73191047,-0.6419144,-0.5698931,-0.52518606,-0.5057721,-0.49732065,-0.49309492,-0.49226815,-0.489451,-0.48354107,-0.47649813,-0.46694428,-0.45598185,-0.44584626,-0.43515944,-0.42532998,-0.41687846,-0.41096854,-0.4087332,-0.40619165,-0.40028173,-0.3895949,-0.37495786,-0.35949415,-0.34767437,-0.33753866,-0.32406527,-0.30801976,-0.29169858,-0.27932757,-0.26750773,-0.25372815,-0.23740703,-0.21689075,-0.1994366,-0.1851058,-0.17129558,-0.16315031,-0.15978199,-0.16146612,-0.17019325,-0.18201303,-0.19465965,-0.20929664,-0.22362739,-0.24190831,-0.26245522,-0.28269595,-0.304927,-0.32884216,-0.35640138,-0.38031662,-0.4016903,-0.41546988,-0.42392135,-0.43261784,-0.44162053,-0.45062315,-0.45766604,-0.4599014,-0.4604832,-0.46130997,-0.46216738,-0.4655357,-0.4661175,-0.46694428,-0.46666867,-0.46412712,-0.4638515,-0.46216738,-0.45907462,-0.45794165,-0.45766604,-0.4599014,-0.46103436,-0.45962578,-0.4582172,-0.45766604,-0.45849282,-0.45680863,-0.4540221,-0.447806,-0.44134492,-0.44051814,-0.43852776,-0.43488383,-0.43261784,-0.4334752,-0.43852776,-0.44416207,-0.44697922,-0.44388646,-0.43684357,-0.42983127,-0.4270141,-0.43065804,-0.43234223,-0.43684357,-0.43966073,-0.43880337,-0.4360168,-0.43151546,-0.4284227,-0.42502373,-0.42670792,-0.43093365,-0.43375087,-0.43684357,-0.4360168,-0.43292403,-0.42952508,-0.423064,-0.4185626,-0.41602105,-0.41997117,-0.42532998,-0.42728972,-0.42361516,-0.41292828,-0.40251708,-0.39718902,-0.3985976,-0.40141475,-0.40478307,-0.40478307,-0.4033745,-0.40055734,-0.3977402,-0.39522922,-0.3910035,-0.38705337,-0.37918365,-0.37018096,-0.3614539,-0.35640138,-0.35808557,-0.3569526,-0.356677,-0.35303307,-0.34403044,-0.3305264,-0.31702238,-0.30406958,-0.2976085,-0.30070126,-0.31279665,-0.329669,-0.34176445,-0.3502159,-0.35612583,-0.36313808,-0.3721407,-0.383685,-0.38987052,-0.39183027,-0.3912791,-0.39296323,-0.39323884,-0.39492303,-0.3966378,-0.39914876,-0.40505862,-0.41323453,-0.41942,-0.4033745,-0.35134888,-0.2489512,-0.09621215,0.08776069,0.27960312,0.45708418,0.58030427,0.59775853,0.4722724,0.20026326,-0.14909518,-0.48522526,-0.7260312,-0.8458523,-0.86609304,-0.8213859,-0.7378204,-0.6385461,-0.5417828,-0.46666867,-0.42728972,-0.4140613,-0.41491866,-0.41546988,-0.41323453,-0.4081514,-0.40196592,-0.39296323,-0.38282758,-0.37103838,-0.35921854,-0.34853172,-0.344306,-0.34289742,-0.33812046,-0.33107758,-0.31843096,-0.30716234,-0.30155867,-0.30155867,-0.30015004,-0.28805465,-0.26946747,-0.2483694,-0.23008847,-0.21630895,-0.2042135,-0.19015831,-0.17270416,-0.15469885,-0.1378265,-0.12236279,-0.11363572,-0.10999179,-0.1102674,-0.11590171,-0.12236279,-0.12940568,-0.13868392,-0.1507793,-0.16878468,-0.18902534,-0.21098077,-0.23235446,-0.253177,-0.27651036,-0.29929268,-0.32406527,-0.35049152,-0.37045652,-0.38509357,-0.39382064,-0.39578038,-0.39887315,-0.40505862,-0.4163273,-0.42560554,-0.43065804,-0.43234223,-0.4281165,-0.42588115,-0.42474818,-0.42474818,-0.42728972,-0.42756534,-0.42670792,-0.42532998,-0.42165542,-0.4185626,-0.41660285,-0.41546988,-0.41491866,-0.4121015,-0.408427,-0.4067428,-0.40450746,-0.40196592,-0.40028173,-0.39464742,-0.38931936,-0.3904217,-0.39072794,-0.39241207,-0.39072794,-0.38481796,-0.38340938,-0.38282758,-0.38650215,-0.39014608,-0.3887375,-0.38592035,-0.3817252,-0.37749946,-0.37581527,-0.37495786,-0.37495786,-0.3746823,-0.37609088,-0.37694824,-0.37777507,-0.3797348,-0.37722385,-0.37523353,-0.3746823,-0.3718651,-0.37073213,-0.36990535,-0.3696298,-0.37045652,-0.37299812,-0.3746823,-0.37413108,-0.37354928,-0.37073213,-0.36595523,-0.3600453,-0.35413545,-0.35076708,-0.3499403,-0.3493585,-0.34513277,-0.33812046,-0.3299446,-0.32884216,-0.33080202,-0.3344459,-0.3305264,-0.32011515,-0.30774415,-0.2950669,-0.2886058,-0.28073615,-0.27510178,-0.2728665,-0.27819455,-0.2908718,-0.30097687,-0.30688673,-0.3099795,-0.31757355,-0.33107758,-0.34739876,-0.3606271,-0.3639955,-0.35921854,-0.35303307,-0.3502159,-0.3496341,-0.3519001,-0.3549928,-0.3600453,-0.36849678,-0.3766421,-0.36485285,-0.31702238,-0.21771753,-0.0683468,0.11391127,0.29874146,0.46330035,0.56652486,0.56116605,0.42052233,0.1535964,-0.16961145,-0.46807724,-0.6722908,-0.7670944,-0.77805674,-0.72995067,-0.6511927,-0.56370765,-0.4790398,-0.41773587,-0.3820008,-0.36485285,-0.3575344,-0.35275745,-0.34794992,-0.3400802,-0.3299446,-0.32179928,-0.31448084,-0.30884653,-0.30406958,-0.30015004,-0.29479134,-0.28805465,-0.27932757,-0.2711823,-0.26300645,-0.25654536,-0.24809384,-0.23798877,-0.22417861,-0.2134918,-0.20280492,-0.18930095,-0.17438835,-0.15583181,-0.13951063,-0.12631291,-0.11531991,-0.10435736,-0.09253758,-0.081575155,-0.07453227,-0.06920421,-0.06693822,-0.06583589,-0.07033718,-0.075665295,-0.08720946,-0.10631716,-0.12686408,-0.15133053,-0.1746946,-0.19325107,-0.21266502,-0.23207885,-0.25146216,-0.2703249,-0.28719723,-0.30575377,-0.3223505,-0.33726305,-0.34739876,-0.3510427,-0.35134888,-0.35303307,-0.35640138,-0.36286247,-0.3662308,-0.3679456,-0.3673638,-0.36512846,-0.36371988,-0.3614539,-0.35863674,-0.35921854,-0.3600453,-0.36258692,-0.36512846,-0.3620357,-0.3569526,-0.35330868,-0.35303307,-0.3549928,-0.35385984,-0.3493585,-0.34344864,-0.33643633,-0.33417034,-0.33417034,-0.33417034,-0.33389473,-0.33643633,-0.33753866,-0.33165938,-0.32489204,-0.31815535,-0.3156138,-0.31870657,-0.32434088,-0.32461643,-0.32320786,-0.31898212,-0.31588942,-0.3156138,-0.31616497,-0.31616497,-0.31392962,-0.30942833,-0.30575377,-0.3043452,-0.30633557,-0.30942833,-0.31196988,-0.3122455,-0.31196988,-0.3116637,-0.30575377,-0.2976085,-0.28946322,-0.2829715,-0.28214473,-0.28606427,-0.28833026,-0.28777903,-0.28242028,-0.27427506,-0.263282,-0.25427938,-0.24699146,-0.23854,-0.23067027,-0.22417861,-0.22108585,-0.2244848,-0.23290563,-0.24190831,-0.24950242,-0.25795394,-0.2649662,-0.2753774,-0.28777903,-0.29647547,-0.3043452,-0.30465144,-0.30379403,-0.30015004,-0.29733288,-0.29874146,-0.29846585,-0.29901707,-0.30296725,-0.30915272,-0.30606002,-0.275653,-0.19579268,-0.06329429,0.10463297,0.2807361,0.44388652,0.56624925,0.60645497,0.53333116,0.326025,0.028141022,-0.27960312,-0.5296874,-0.6736994,-0.719815,-0.695073,-0.6182748,-0.5186943,-0.41773587,-0.34121323,-0.2995683,-0.2855131,-0.28214473,-0.28046054,-0.27819455,-0.27200907,-0.26469058,-0.25709653,-0.24386811,-0.23008847,-0.2191261,-0.21238941,-0.21067464,-0.21180761,-0.21238941,-0.20871478,-0.19971216,-0.18479955,-0.17046887,-0.1580978,-0.14851338,-0.13755089,-0.12631291,-0.115044296,-0.10098904,-0.08693391,-0.07342994,-0.055975735,-0.039379,-0.026456833,-0.013779581,-0.0008574128,0.0118198395,0.022506595,0.027834654,0.024190784,0.01546371,0.0075941086,-0.0011329651,-0.012095392,-0.025323868,-0.04755491,-0.07483852,-0.10181582,-0.130508,-0.15864897,-0.1825642,-0.20366234,-0.22025907,-0.23149705,-0.2441743,-0.25737208,-0.26836514,-0.27736777,-0.28410453,-0.28973883,-0.29338276,-0.29647547,-0.2959243,-0.29365832,-0.2911474,-0.2905656,-0.29338276,-0.29733288,-0.30125242,-0.30575377,-0.30633557,-0.3052026,-0.30296725,-0.302661,-0.30296725,-0.3035184,-0.304927,-0.302661,-0.29929268,-0.29338276,-0.28578866,-0.28015435,-0.27678597,-0.27651036,-0.27847016,-0.28015435,-0.27932757,-0.27847016,-0.2753774,-0.27396882,-0.27314204,-0.27314204,-0.27905196,-0.28156292,-0.2818691,-0.27960312,-0.2753774,-0.2714579,-0.2711823,-0.27228463,-0.2753774,-0.275653,-0.27427506,-0.2703249,-0.26695657,-0.26527238,-0.2689163,-0.27341765,-0.275653,-0.27455062,-0.27004933,-0.2649662,-0.26187342,-0.26245522,-0.26637477,-0.26946747,-0.2714579,-0.2703249,-0.27004933,-0.26946747,-0.2689163,-0.2703249,-0.26919192,-0.26609915,-0.26104665,-0.25541234,-0.25458556,-0.25654536,-0.2582295,-0.26046485,-0.26187342,-0.2635576,-0.26469058,-0.26104665,-0.25231957,-0.23768258,-0.22727132,-0.22280061,-0.22335184,-0.22840434,-0.23177266,-0.2312215,-0.22616899,-0.21771753,-0.20871478,-0.19971216,-0.19070953,-0.18170685,-0.17102003,-0.16259915,-0.1628747,-0.17187744,-0.18479955,-0.20084518,-0.21321619,-0.22108585,-0.22757757,-0.23768258,-0.24867564,-0.25682092,-0.26245522,-0.26273084,-0.2585051,-0.253177,-0.2528708,-0.2551368,-0.2601893,-0.26469058,-0.26919192,-0.26750773,-0.24585849,-0.19098514,-0.08298373,0.075665236,0.26104653,0.4531647,0.6255933,0.7341764,0.7321861,0.58367264,0.29733288,-0.05514896,-0.38255197,-0.61322224,-0.72208107,-0.73390085,-0.6779251,-0.57693607,-0.4663931,-0.37018096,-0.30633557,-0.27905196,-0.27427506,-0.27482623,-0.27200907,-0.2641394,-0.25541234,-0.24558288,-0.24022418,-0.236274,-0.2292617,-0.22362739,-0.21548218,-0.2073062,-0.1994366,-0.19070953,-0.18002266,-0.17160183,-0.1667943,-0.16400772,-0.15978199,-0.1501975,-0.1330496,-0.11253339,-0.09367055,-0.07820684,-0.063845456,-0.04893285,-0.03346914,-0.017148018,-0.0030927658,0.007869601,0.016872287,0.025875092,0.03542888,0.044431567,0.05119884,0.05288303,0.048381686,0.038521647,0.024190784,0.0050524473,-0.019138396,-0.044737756,-0.07312369,-0.10013163,-0.12631291,-0.15160608,-0.17383718,-0.19548643,-0.2165845,-0.23936677,-0.2590869,-0.2706005,-0.275653,-0.275653,-0.27791893,-0.2835533,-0.2911474,-0.29733288,-0.30155867,-0.3018343,-0.30097687,-0.29874146,-0.29675108,-0.29733288,-0.2976085,-0.29733288,-0.2995683,-0.29929268,-0.2959243,-0.292556,-0.28719723,-0.28438008,-0.28692168,-0.28888142,-0.29142296,-0.29029,-0.28606427,-0.28242028,-0.27960312,-0.28156292,-0.28438008,-0.28496188,-0.28496188,-0.28073615,-0.27427506,-0.27256024,-0.27087605,-0.2706005,-0.27341765,-0.2753774,-0.27510178,-0.27200907,-0.26977372,-0.26836514,-0.2714579,-0.27764338,-0.2829715,-0.28410453,-0.2812873,-0.27510178,-0.27004933,-0.2711823,-0.28015435,-0.29142296,-0.30042565,-0.30606002,-0.304927,-0.3035184,-0.29929268,-0.29647547,-0.2956487,-0.2950669,-0.29901707,-0.30210984,-0.30155867,-0.2995683,-0.29901707,-0.29929268,-0.3018343,-0.30633557,-0.3105613,-0.31365407,-0.3153382,-0.3147564,-0.31252104,-0.3105613,-0.30716234,-0.30324286,-0.30324286,-0.30575377,-0.3074686,-0.30857092,-0.30661118,-0.29901707,-0.2911474,-0.2855131,-0.27905196,-0.27455062,-0.27256024,-0.27314204,-0.2689163,-0.265548,-0.26046485,-0.25118655,-0.24249017,-0.23263007,-0.21998346,-0.21012342,-0.21039903,-0.21940166,-0.23094589,-0.24135715,-0.24640965,-0.24754262,-0.25146216,-0.263282,-0.28015435,-0.2956487,-0.30575377,-0.30857092,-0.30379403,-0.29365832,-0.28692168,-0.28637046,-0.29169858,-0.29901707,-0.3097039,-0.31898212,-0.3223505,-0.30379403,-0.24558288,-0.13672411,0.024190784,0.21321619,0.41351008,0.6030866,0.7305019,0.7445878,0.60449517,0.31729794,-0.03741926,-0.3696298,-0.6073124,-0.72572494,-0.7499158,-0.7026671,-0.6123649,-0.50659883,-0.41433686,-0.35217565,-0.32516766,-0.31843096,-0.31674677,-0.3105613,-0.3018343,-0.2911474,-0.27987874,-0.27004933,-0.263282,-0.25963807,-0.25709653,-0.2489512,-0.23854,-0.22727132,-0.22025907,-0.21630895,-0.21379799,-0.20929664,-0.20139635,-0.18734115,-0.17242861,-0.1580978,-0.14260346,-0.12995684,-0.11954564,-0.1038062,-0.083841145,-0.06638706,-0.050341427,-0.034877717,-0.020240724,-0.005358696,0.006736636,0.0118198395,0.0118198395,0.007869601,0.003950119,-0.00055116415,-0.005052507,-0.013779581,-0.028141022,-0.04755491,-0.07453227,-0.10154021,-0.12573111,-0.14542061,-0.1622929,-0.17888969,-0.196895,-0.2171663,-0.23740703,-0.25541234,-0.26778334,-0.27396882,-0.27455062,-0.275653,-0.27819455,-0.28496188,-0.2919742,-0.2956487,-0.29675108,-0.29283154,-0.2900144,-0.28915703,-0.28805465,-0.28915703,-0.28777903,-0.28438008,-0.28242028,-0.2812873,-0.27877635,-0.27932757,-0.27905196,-0.27847016,-0.27987874,-0.27932757,-0.275653,-0.2703249,-0.26637477,-0.2635576,-0.263282,-0.26441503,-0.265548,-0.26527238,-0.2641394,-0.26217967,-0.2590869,-0.25737208,-0.25709653,-0.2585051,-0.25936252,-0.2601893,-0.2590869,-0.25737208,-0.2582295,-0.25963807,-0.26217967,-0.26441503,-0.2658236,-0.26637477,-0.26637477,-0.26977372,-0.2711823,-0.2680589,-0.26217967,-0.25486112,-0.25035977,-0.25035977,-0.25541234,-0.25991368,-0.26132226,-0.26273084,-0.263282,-0.26469058,-0.26300645,-0.25709653,-0.24867564,-0.23854,-0.23039472,-0.22898614,-0.23149705,-0.23572278,-0.23826444,-0.23403865,-0.22194326,-0.20562208,-0.19239372,-0.18369722,-0.18002266,-0.18283981,-0.18648374,-0.19410849,-0.20507091,-0.21603334,-0.22476041,-0.23094589,-0.2365802,-0.24444991,-0.25345254,-0.2585051,-0.25991368,-0.25682092,-0.2551368,-0.2551368,-0.25737208,-0.26132226,-0.2638638,-0.27004933,-0.27736777,-0.28637046,-0.28915703,-0.26217967,-0.19521087,-0.07342994,0.09030223,0.27173352,0.44498885,0.58535695,0.6497841,0.59803414,0.41237712,0.12150526,-0.196895,-0.46694428,-0.63545334,-0.70352453,-0.6953486,-0.63600457,-0.54992807,-0.4582172,-0.37413108,-0.3153382,-0.28214473,-0.26750773,-0.26723218,-0.26723218,-0.26187342,-0.25372815,-0.24527669,-0.23826444,-0.23544723,-0.23403865,-0.2292617,-0.22362739,-0.21689075,-0.20929664,-0.19802803,-0.1876167,-0.18060446,-0.17524576,-0.16878468,-0.1628747,-0.14881957,-0.1330496,-0.116728485,-0.10181582,-0.087485075,-0.07594085,-0.06329429,-0.04724866,-0.028967798,-0.009860039,0.0047769547,0.0118198395,0.014330745,0.014330745,0.014912486,0.01742351,0.018832088,0.012095332,-0.001408577,-0.01968956,-0.04332918,-0.066111445,-0.08834249,-0.10940999,-0.13360077,-0.15779161,-0.18369722,-0.20843923,-0.2292617,-0.24386811,-0.2551368,-0.2649662,-0.27482623,-0.28242028,-0.2900144,-0.29537314,-0.29675108,-0.29846585,-0.29733288,-0.29537314,-0.2976085,-0.30070126,-0.30155867,-0.30097687,-0.2959243,-0.29142296,-0.28973883,-0.28915703,-0.28973883,-0.29396456,-0.2959243,-0.2956487,-0.2908718,-0.2832777,-0.27736777,-0.27764338,-0.2812873,-0.2812873,-0.27847016,-0.27314204,-0.26723218,-0.26750773,-0.27004933,-0.2736932,-0.26977372,-0.263282,-0.2607711,-0.2585051,-0.2607711,-0.26441503,-0.2658236,-0.2607711,-0.25795394,-0.25737208,-0.25400376,-0.25372815,-0.2551368,-0.25427938,-0.25400376,-0.25345254,-0.253177,-0.250911,-0.2483694,-0.24558288,-0.24049973,-0.2343142,-0.22953731,-0.22558719,-0.21771753,-0.2140736,-0.21012342,-0.20620388,-0.20056957,-0.19269991,-0.1825642,-0.1746946,-0.17579693,-0.18143123,-0.1943841,-0.20703065,-0.21630895,-0.22589338,-0.23544723,-0.24472547,-0.2551368,-0.26217967,-0.2649662,-0.26609915,-0.26527238,-0.25963807,-0.25231957,-0.24304134,-0.23936677,-0.24527669,-0.25963807,-0.27847016,-0.2838289,-0.25654536,-0.18565696,-0.06470275,0.09648776,0.26891637,0.4326179,0.56456494,0.62841046,0.5831214,0.41237712,0.13951063,-0.16710049,-0.43488383,-0.6073124,-0.67847633,-0.6706066,-0.6092721,-0.5184187,-0.42502373,-0.34908295,-0.29705727,-0.27087605,-0.2590869,-0.25259513,-0.24640965,-0.24049973,-0.23318124,-0.22589338,-0.2188505,-0.21266502,-0.20647949,-0.19857919,-0.1918425,-0.18620813,-0.18029827,-0.17579693,-0.16991764,-0.16201735,-0.15469885,-0.14600241,-0.13672411,-0.12772149,-0.11617726,-0.1032244,-0.08834249,-0.071439564,-0.05542457,-0.039379,-0.023057878,-0.006767273,0.009002686,0.02333343,0.034326553,0.040236354,0.04360473,0.04501331,0.04332912,0.038246036,0.02924335,0.015739322,-0.0030927658,-0.02391529,-0.04501331,-0.066111445,-0.089169264,-0.113084555,-0.13923508,-0.16315031,-0.18479955,-0.2042135,-0.22081023,-0.23318124,-0.2435925,-0.25035977,-0.25767833,-0.26750773,-0.2736932,-0.27455062,-0.27314204,-0.2714579,-0.27256024,-0.27791893,-0.28214473,-0.28156292,-0.27877635,-0.27427506,-0.26919192,-0.26750773,-0.2680589,-0.26836514,-0.26977372,-0.26946747,-0.26668096,-0.26469058,-0.26441503,-0.2641394,-0.26469058,-0.2649662,-0.26527238,-0.26441503,-0.263282,-0.2635576,-0.263282,-0.2601893,-0.25654536,-0.25345254,-0.250911,-0.250911,-0.25427938,-0.25458556,-0.25231957,-0.25035977,-0.24754262,-0.24754262,-0.24726707,-0.24809384,-0.25118655,-0.25400376,-0.2551368,-0.2528708,-0.25118655,-0.2483694,-0.2483694,-0.24754262,-0.24386811,-0.24049973,-0.23517162,-0.2286799,-0.22589338,-0.22280061,-0.22335184,-0.22417861,-0.21967727,-0.21490037,-0.20620388,-0.199161,-0.19493526,-0.18874973,-0.18115562,-0.17552131,-0.17129558,-0.17102003,-0.17524576,-0.18201303,-0.19043392,-0.19971216,-0.20984781,-0.22053468,-0.23008847,-0.23768258,-0.24304134,-0.24527669,-0.24558288,-0.24867564,-0.25118655,-0.2506354,-0.24809384,-0.24585849,-0.24472547,-0.24781823,-0.2559635,-0.26159787,-0.25427938,-0.21829933,-0.14260346,-0.014055133,0.15246344,0.33080196,0.49732065,0.6196834,0.65851116,0.58002865,0.3744067,0.07594085,-0.23458982,-0.48749125,-0.6393728,-0.6914291,-0.6686468,-0.5966255,-0.49958664,-0.40309888,-0.32853603,-0.28692168,-0.26864076,-0.26273084,-0.25991368,-0.25486112,-0.24558288,-0.23599845,-0.22616899,-0.21829933,-0.21462476,-0.21294057,-0.20675504,-0.1994366,-0.18648374,-0.17102003,-0.16174173,-0.15610743,-0.15469885,-0.15610743,-0.15500504,-0.14741099,-0.13418257,-0.11871886,-0.10013163,-0.08185077,-0.064151585,-0.045564473,-0.028416634,-0.00955385,0.009278178,0.025323749,0.03515327,0.04501331,0.049790263,0.05542457,0.059344053,0.057384253,0.048106074,0.036010623,0.021098018,0.003950119,-0.01604551,-0.039379,-0.062161207,-0.08466792,-0.10689896,-0.12995684,-0.15583181,-0.17919588,-0.19998777,-0.2171663,-0.23235446,-0.24585849,-0.25626975,-0.26132226,-0.26245522,-0.25936252,-0.2582295,-0.26132226,-0.26750773,-0.27200907,-0.2736932,-0.2728665,-0.27087605,-0.27427506,-0.27877635,-0.27987874,-0.27678597,-0.26864076,-0.2590869,-0.25486112,-0.25486112,-0.25767833,-0.26104665,-0.26046485,-0.25737208,-0.25458556,-0.2528708,-0.24950242,-0.24558288,-0.24331689,-0.24135715,-0.24190831,-0.24190831,-0.24163276,-0.24049973,-0.23740703,-0.23544723,-0.2365802,-0.23854,-0.24077535,-0.24249017,-0.2435925,-0.24049973,-0.23826444,-0.23740703,-0.23599845,-0.23713142,-0.24022418,-0.24500108,-0.24754262,-0.24613404,-0.24276572,-0.2368558,-0.23348743,-0.2343142,-0.23798877,-0.24218392,-0.24276572,-0.2388156,-0.23348743,-0.23039472,-0.2312215,-0.23572278,-0.24022418,-0.24163276,-0.23967302,-0.236274,-0.23458982,-0.23235446,-0.23376304,-0.23713142,-0.23967302,-0.24022418,-0.2388156,-0.23826444,-0.23572278,-0.23235446,-0.23207885,-0.23039472,-0.23067027,-0.23039472,-0.22898614,-0.22139204,-0.21379799,-0.21098077,-0.21238941,-0.21689075,-0.21998346,-0.21967727,-0.21829933,-0.21771753,-0.21940166,-0.22194326,-0.22194326,-0.21829933,-0.2140736,-0.21180761,-0.21067464,-0.20929664,-0.20788807,-0.20507091,-0.2047953,-0.2095722,-0.21238941,-0.21294057,-0.20647949,-0.19579268,-0.18648374,-0.17974705,-0.17665434,-0.17411274,-0.17328602,-0.17160183,-0.17046887,-0.16792727,-0.16146612,-0.1507793,-0.13755089,-0.12658852,-0.12181157,-0.12291396,-0.12968123,-0.13699973,-0.14373642,-0.14823776,-0.15273911,-0.15978199,-0.16906029,-0.17833847,-0.18847412,-0.19493526,-0.19998777,-0.2047953,-0.20562208,-0.20703065,-0.20647949,-0.20929664,-0.21294057,-0.21630895,-0.22194326,-0.22558719,-0.21689075,-0.17806292,-0.09676331,0.037970424,0.20785749,0.38791072,0.56456494,0.7099856,0.77297366,0.7142112,0.5099672,0.196895,-0.14260346,-0.42361516,-0.5918486,-0.65541846,-0.6362801,-0.5648406,-0.47031265,-0.37581527,-0.30155867,-0.25654536,-0.23826444,-0.23318124,-0.23235446,-0.22898614,-0.22307622,-0.21575773,-0.20871478,-0.20170254,-0.1938023,-0.18424839,-0.17552131,-0.16991764,-0.16651869,-0.16428328,-0.15978199,-0.15218788,-0.14431822,-0.13614231,-0.12940568,-0.11927003,-0.10689896,-0.09480357,-0.083259344,-0.07312369,-0.059925854,-0.046697497,-0.02924341,-0.010962427,0.004225731,0.018556476,0.028692245,0.036286235,0.041614413,0.047524214,0.055118322,0.06075263,0.06329417,0.05821109,0.046697497,0.032060504,0.019138217,0.0016841888,-0.017454088,-0.042471766,-0.071439564,-0.10181582,-0.12772149,-0.14682919,-0.1628747,-0.1746946,-0.18397284,-0.1974768,-0.21180761,-0.22644454,-0.23826444,-0.24613404,-0.24699146,-0.24527669,-0.24444991,-0.24386811,-0.24781823,-0.25204396,-0.25400376,-0.25568795,-0.253177,-0.24977797,-0.24640965,-0.24304134,-0.24135715,-0.24049973,-0.23909116,-0.23798877,-0.23826444,-0.23854,-0.23936677,-0.23544723,-0.2312215,-0.22672015,-0.22699577,-0.22898614,-0.23067027,-0.23149705,-0.22757757,-0.22362739,-0.22335184,-0.22335184,-0.22362739,-0.2244848,-0.22616899,-0.22981292,-0.23235446,-0.23403865,-0.23235446,-0.22699577,-0.22307622,-0.21998346,-0.22025907,-0.21998346,-0.22108585,-0.22194326,-0.22166765,-0.22335184,-0.22362739,-0.22644454,-0.22699577,-0.22589338,-0.223903,-0.22531158,-0.22644454,-0.22840434,-0.22840434,-0.22699577,-0.2244848,-0.22307622,-0.22166765,-0.21548218,-0.21125644,-0.211532,-0.2165845,-0.22362739,-0.22589338,-0.223903,-0.2188505,-0.21575773,-0.21434915,-0.21238941,-0.2095722,-0.20816362,-0.21039903,-0.211532,-0.2140736,-0.21434915,-0.21294057,-0.21490037,-0.21630895,-0.21548218,-0.21125644,-0.20675504,-0.20170254,-0.19802803,-0.19521087,-0.18874973,-0.18283981,-0.18002266,-0.17610317,-0.17665434,-0.17610317,-0.17497015,-0.17637873,-0.17552131,-0.17019325,-0.15641361,-0.1384083,-0.12432253,-0.12012744,-0.120954216,-0.12686408,-0.13191658,-0.13727534,-0.14401203,-0.15500504,-0.16710049,-0.17301041,-0.17919588,-0.18565696,-0.19297552,-0.20448905,-0.21462476,-0.21689075,-0.21548218,-0.2095722,-0.20620388,-0.2073062,-0.21238941,-0.2188505,-0.22558719,-0.22108585,-0.18706554,-0.11391133,0.007869601,0.16710043,0.33613014,0.4964633,0.62277615,0.67483234,0.6188259,0.43347514,0.14878893,-0.16400772,-0.4284227,-0.58875585,-0.6517439,-0.6368619,-0.5710261,-0.4790398,-0.38313377,-0.29901707,-0.24754262,-0.22672015,-0.22249442,-0.22417861,-0.22280061,-0.2134918,-0.20225376,-0.19297552,-0.18311542,-0.17806292,-0.17356157,-0.16820288,-0.16091496,-0.15387207,-0.14964634,-0.14431822,-0.1378265,-0.12968123,-0.11871886,-0.10999179,-0.1032244,-0.097038925,-0.08662766,-0.07116395,-0.057659864,-0.041920602,-0.028692186,-0.016872406,-0.0022659898,0.0104112625,0.025875092,0.041614413,0.056251287,0.065529585,0.069755316,0.069479704,0.06497836,0.059344053,0.050341368,0.040236354,0.029518962,0.016872287,0.0011329651,-0.018556595,-0.046697497,-0.07594085,-0.10830754,-0.13672411,-0.15892458,-0.17692989,-0.1898827,-0.19971216,-0.21098077,-0.22476041,-0.23713142,-0.24922681,-0.2551368,-0.25345254,-0.25176835,-0.24922681,-0.253177,-0.2585051,-0.26187342,-0.26217967,-0.25936252,-0.2559635,-0.25400376,-0.25372815,-0.25204396,-0.2483694,-0.24500108,-0.24276572,-0.24500108,-0.24867564,-0.25008422,-0.25008422,-0.24558288,-0.23826444,-0.23177266,-0.22812873,-0.2292617,-0.23177266,-0.2368558,-0.23768258,-0.2365802,-0.2365802,-0.23826444,-0.23713142,-0.23348743,-0.22699577,-0.22025907,-0.21799308,-0.2191261,-0.2244848,-0.22953731,-0.23318124,-0.23403865,-0.23039472,-0.22699577,-0.22503597,-0.22558719,-0.22757757,-0.22785312,-0.22672015,-0.22672015,-0.22785312,-0.22981292,-0.23177266,-0.23263007,-0.23290563,-0.23572278,-0.23826444,-0.23854,-0.23290563,-0.22589338,-0.21462476,-0.20871478,-0.211532,-0.21799308,-0.22476041,-0.2286799,-0.22699577,-0.22417861,-0.22221881,-0.22194326,-0.22108585,-0.21940166,-0.2165845,-0.211532,-0.20562208,-0.19998777,-0.196895,-0.19606823,-0.19269991,-0.18902534,-0.1851058,-0.18060446,-0.17383718,-0.16651869,-0.15442324,-0.14260346,-0.13531554,-0.13390696,-0.14036804,-0.15133053,-0.16033316,-0.1654163,-0.16624314,-0.16624314,-0.1772055,-0.19548643,-0.21490037,-0.22785312,-0.23263007,-0.22616899,-0.21517593,-0.20929664,-0.20816362,-0.21266502,-0.22249442,-0.22785312,-0.22757757,-0.22558719,-0.22139204,-0.20816362,-0.16878468,-0.08693391,0.039379,0.19438398,0.35162437,0.4930948,0.5898582,0.6092721,0.519276,0.30602932,0.018005252,-0.27396882,-0.50099516,-0.6213676,-0.6503353,-0.61181366,-0.52938116,-0.42728972,-0.33557892,-0.27200907,-0.24304134,-0.23826444,-0.23994857,-0.2368558,-0.22785312,-0.21829933,-0.20984781,-0.20139635,-0.19352669,-0.18789238,-0.18228865,-0.17692989,-0.17129558,-0.16201735,-0.15133053,-0.14122546,-0.13191658,-0.12573111,-0.120954216,-0.114768684,-0.11054295,-0.10212201,-0.092813194,-0.08016658,-0.065529644,-0.048106074,-0.029549599,-0.013503969,0.00055122375,0.014330745,0.024190784,0.03515327,0.044431567,0.053434134,0.059344053,0.063845396,0.065529585,0.06243682,0.05879283,0.051749945,0.03542888,0.015188098,-0.01181978,-0.039654613,-0.06638706,-0.09002668,-0.11222714,-0.13531554,-0.15696484,-0.17524576,-0.19098514,-0.2042135,-0.21630895,-0.23008847,-0.2441743,-0.25231957,-0.25486112,-0.25204396,-0.24726707,-0.24500108,-0.24585849,-0.24809384,-0.24922681,-0.25118655,-0.2528708,-0.25626975,-0.25654536,-0.25400376,-0.2506354,-0.2489512,-0.24809384,-0.24867564,-0.25008422,-0.2489512,-0.24726707,-0.24613404,-0.24331689,-0.24249017,-0.23826444,-0.236274,-0.23376304,-0.23403865,-0.23348743,-0.2343142,-0.236274,-0.23713142,-0.23826444,-0.24249017,-0.24331689,-0.23826444,-0.22953731,-0.21967727,-0.21294057,-0.21517593,-0.22362739,-0.23094589,-0.23207885,-0.22898614,-0.22503597,-0.22335184,-0.22503597,-0.223903,-0.22108585,-0.21799308,-0.21744192,-0.22025907,-0.22335184,-0.22335184,-0.22108585,-0.21548218,-0.20788807,-0.20703065,-0.2047953,-0.20112073,-0.1994366,-0.19775242,-0.1943841,-0.1938023,-0.19297552,-0.1876167,-0.18088007,-0.172153,-0.16428328,-0.15191233,-0.14091921,-0.13222283,-0.12940568,-0.13586676,-0.14909518,-0.16483456,-0.17637873,-0.18339097,-0.18960714,-0.19720125,-0.20562208,-0.21462476,-0.21967727,-0.21940166,-0.21689075,-0.21829933,-0.22081023,-0.22280061,-0.22221881,-0.2191261,-0.21462476,-0.2165845,-0.22194326,-0.21771753,-0.18734115,-0.11449313,0.007869601,0.17297983,0.35385978,0.52714574,0.6607466,0.7085769,0.63404477,0.4270141,0.12517989,-0.19606823,-0.46216738,-0.62672627,-0.68634593,-0.66778946,-0.59380835,-0.49085957,-0.3890437,-0.30716234,-0.2559635,-0.23177266,-0.223903,-0.21940166,-0.2165845,-0.21180761,-0.20562208,-0.20139635,-0.19156694,-0.18115562,-0.172153,-0.1654163,-0.16091496,-0.15724039,-0.15218788,-0.14431822,-0.13531554,-0.12854826,-0.122638345,-0.11253339,-0.09817189,-0.085525334,-0.07312369,-0.059925854,-0.044431508,-0.026456833,-0.005634308,0.014055133,0.030927539,0.04528892,0.061885595,0.07790065,0.089169264,0.097620726,0.10239768,0.10463297,0.10380626,0.10239768,0.09648776,0.085800886,0.06862223,0.048381686,0.024742007,-0.00027561188,-0.025323868,-0.050647616,-0.07707387,-0.1038062,-0.130508,-0.15469885,-0.17438835,-0.19211811,-0.20788807,-0.22081023,-0.23039472,-0.23348743,-0.23517162,-0.23713142,-0.2410816,-0.24640965,-0.24781823,-0.24500108,-0.24135715,-0.2410816,-0.24249017,-0.24585849,-0.24754262,-0.24668527,-0.24276572,-0.23740703,-0.2286799,-0.22166765,-0.22139204,-0.22503597,-0.23177266,-0.23740703,-0.23348743,-0.22531158,-0.21829933,-0.21321619,-0.21490037,-0.22025907,-0.22280061,-0.22139204,-0.2165845,-0.21098077,-0.20788807,-0.2095722,-0.21180761,-0.21180761,-0.20871478,-0.2047953,-0.20197815,-0.20139635,-0.20225376,-0.20225376,-0.20197815,-0.19971216,-0.19325107,-0.18620813,-0.17833847,-0.17328602,-0.17160183,-0.17301041,-0.17242861,-0.16765171,-0.15641361,-0.14459383,-0.13222283,-0.120954216,-0.11391133,-0.11222714,-0.11813706,-0.1310898,-0.1476866,-0.15779161,-0.16624314,-0.17610317,-0.19043392,-0.20929664,-0.21998346,-0.22335184,-0.21940166,-0.21321619,-0.21266502,-0.21517593,-0.21857488,-0.22166765,-0.22503597,-0.22840434,-0.23008847,-0.234896,-0.23854,-0.2286799,-0.1898827,-0.10689896,0.028416634,0.20589757,0.4011085,0.5949414,0.7515998,0.81321,0.73500323,0.501822,0.16119051,-0.19297552,-0.4790398,-0.64304745,-0.69789016,-0.670331,-0.58985823,-0.4880424,-0.38732892,-0.30716234,-0.25795394,-0.23348743,-0.22531158,-0.22417861,-0.22221881,-0.21771753,-0.2095722,-0.19998777,-0.19352669,-0.18706554,-0.17833847,-0.16820288,-0.15610743,-0.14627802,-0.1431852,-0.14177662,-0.14122546,-0.13672411,-0.12827265,-0.12012744,-0.10940999,-0.09593654,-0.079615414,-0.058241725,-0.03769487,-0.020240724,-0.005634308,0.010686755,0.025875092,0.042471766,0.05821109,0.07061267,0.07903361,0.089169264,0.09480357,0.09480357,0.0939461,0.09085345,0.08381057,0.07284808,0.055700183,0.03319347,0.007869601,-0.022231102,-0.052056193,-0.08298373,-0.10803193,-0.1279971,-0.14682919,-0.16765171,-0.19070953,-0.21208322,-0.22644454,-0.23235446,-0.2365802,-0.24077535,-0.24472547,-0.2489512,-0.2551368,-0.2590869,-0.2607711,-0.2585051,-0.25486112,-0.25259513,-0.25008422,-0.25176835,-0.25204396,-0.2489512,-0.24613404,-0.24527669,-0.2441743,-0.24613404,-0.25146216,-0.25345254,-0.2506354,-0.24585849,-0.23740703,-0.23177266,-0.23177266,-0.23290563,-0.23376304,-0.23263007,-0.22981292,-0.22812873,-0.22699577,-0.22589338,-0.22280061,-0.21829933,-0.21238941,-0.20675504,-0.20170254,-0.19579268,-0.19156694,-0.18874973,-0.18593258,-0.1825642,-0.17497015,-0.16342592,-0.15641361,-0.1501975,-0.14627802,-0.14401203,-0.14064366,-0.13951063,-0.14569622,-0.15528065,-0.16651869,-0.17665434,-0.18678999,-0.199161,-0.211532,-0.223903,-0.23290563,-0.2388156,-0.24049973,-0.24049973,-0.23854,-0.23458982,-0.23177266,-0.23067027,-0.2286799,-0.22898614,-0.234896,-0.24781823,-0.26132226,-0.2559635,-0.21012342,-0.11449313,0.030651927,0.20899034,0.3996998,0.58171296,0.717304,0.75049746,0.6461402,0.39774013,0.067795515,-0.26159787,-0.5158771,-0.6587868,-0.6984414,-0.6649723,-0.5825704,-0.47959095,-0.383685,-0.3099795,-0.2689163,-0.25345254,-0.25008422,-0.24781823,-0.23936677,-0.22476041,-0.21098077,-0.19971216,-0.19352669,-0.1898827,-0.184524,-0.17692989,-0.16961145,-0.16259915,-0.15864897,-0.15301466,-0.145145,-0.13531554,-0.12208718,-0.10940999,-0.09817189,-0.09030223,-0.08185077,-0.0689286,-0.04755491,-0.025048256,-0.002817154,0.01742351,0.0315094,0.045564532,0.06133449,0.07511413,0.08439231,0.08972037,0.089444876,0.085800886,0.079615474,0.071439385,0.06243682,0.05061698,0.0315094,0.012646556,-0.009860039,-0.03319353,-0.0565269,-0.08270818,-0.1102674,-0.1384083,-0.16511011,-0.18593258,-0.20112073,-0.21294057,-0.22280061,-0.2312215,-0.23854,-0.24163276,-0.24249017,-0.24135715,-0.24249017,-0.2441743,-0.24276572,-0.24077535,-0.24049973,-0.2410816,-0.24218392,-0.24304134,-0.24276572,-0.24135715,-0.24163276,-0.24077535,-0.23798877,-0.236274,-0.234896,-0.2312215,-0.22812873,-0.22531158,-0.2244848,-0.22589338,-0.22644454,-0.22558719,-0.22307622,-0.22166765,-0.22108585,-0.21940166,-0.21603334,-0.21067464,-0.20562208,-0.20197815,-0.199161,-0.19661945,-0.19579268,-0.19548643,-0.19269991,-0.18565696,-0.17438835,-0.16259915,-0.15301466,-0.14881957,-0.14741099,-0.14627802,-0.14569622,-0.14937073,-0.15359646,-0.16005754,-0.17102003,-0.18479955,-0.20029396,-0.2165845,-0.22898614,-0.236274,-0.23826444,-0.23826444,-0.2388156,-0.24022418,-0.24049973,-0.23994857,-0.23909116,-0.23798877,-0.24163276,-0.24977797,-0.25936252,-0.26695657,-0.25709653,-0.21180761,-0.12462872,0.010135651,0.17524576,0.34739876,0.5057721,0.6182747,0.6393728,0.5355667,0.30238533,-0.006461084,-0.31307226,-0.5459779,-0.6686468,-0.69421566,-0.6483756,-0.56089044,-0.45935023,-0.3673638,-0.30070126,-0.2649662,-0.25118655,-0.24668527,-0.24699146,-0.24249017,-0.23318124,-0.22307622,-0.21575773,-0.20929664,-0.20366234,-0.19661945,-0.18397284,-0.17129558,-0.16596752,-0.16400772,-0.16119057,-0.15387207,-0.1431852,-0.13023245,-0.12208718,-0.11617726,-0.10803193,-0.09789628,-0.08298373,-0.06693822,-0.049790263,-0.02982521,-0.008727074,0.008451462,0.024466395,0.03910339,0.04951465,0.056833148,0.057659864,0.05315852,0.051749945,0.05061698,0.050065875,0.044155955,0.025875092,0.0022352934,-0.01968956,-0.04332918,-0.06724447,-0.09394616,-0.122638345,-0.14881957,-0.16991764,-0.18874973,-0.2073062,-0.22221881,-0.23348743,-0.24135715,-0.24754262,-0.25427938,-0.26132226,-0.26469058,-0.2635576,-0.2601893,-0.25372815,-0.250911,-0.25146216,-0.25204396,-0.25709653,-0.26104665,-0.2635576,-0.26469058,-0.26159787,-0.2582295,-0.25372815,-0.25176835,-0.250911,-0.24668527,-0.24249017,-0.24135715,-0.24249017,-0.24585849,-0.24754262,-0.24500108,-0.23854,-0.23458982,-0.23290563,-0.23067027,-0.22981292,-0.22644454,-0.22249442,-0.21771753,-0.21180761,-0.20647949,-0.2047953,-0.2042135,-0.20589763,-0.20280492,-0.19521087,-0.18424839,-0.17579693,-0.17356157,-0.17019325,-0.16820288,-0.16428328,-0.1622929,-0.1673761,-0.17861408,-0.18706554,-0.19465965,-0.20308048,-0.21434915,-0.22699577,-0.2388156,-0.2441743,-0.24585849,-0.2483694,-0.24977797,-0.25008422,-0.2483694,-0.24218392,-0.23798877,-0.24049973,-0.24500108,-0.25568795,-0.26668096,-0.26441503,-0.2343142,-0.16511011,-0.046146333,0.11222708,0.28719723,0.45089877,0.5774871,0.6292372,0.57411885,0.39351428,0.11954558,-0.18311542,-0.44471323,-0.6081698,-0.67115784,-0.6590624,-0.5943595,-0.5049147,-0.41461247,-0.34063148,-0.29169858,-0.26668096,-0.25427938,-0.24699146,-0.23936677,-0.23008847,-0.22558719,-0.22280061,-0.2188505,-0.21379799,-0.20589763,-0.19661945,-0.19070953,-0.1851058,-0.1772055,-0.17046887,-0.16428328,-0.1580978,-0.15500504,-0.14741099,-0.13500935,-0.120954216,-0.103530586,-0.08270818,-0.066111445,-0.0565269,-0.04697305,-0.034877717,-0.019965172,-0.00027561188,0.01742351,0.029825091,0.039379,0.04893279,0.053709745,0.052331805,0.043880343,0.034602046,0.024190784,0.014055133,0.0019598007,-0.018005311,-0.04332918,-0.07061279,-0.0990293,-0.12150538,-0.14150107,-0.16146612,-0.1777873,-0.19606823,-0.2140736,-0.23039472,-0.24218392,-0.25176835,-0.2528708,-0.25458556,-0.25991368,-0.265548,-0.2714579,-0.27482623,-0.27341765,-0.27200907,-0.27200907,-0.2706005,-0.265548,-0.26159787,-0.25991368,-0.26245522,-0.26668096,-0.265548,-0.25991368,-0.25259513,-0.24585849,-0.24163276,-0.23854,-0.23994857,-0.24331689,-0.24922681,-0.25486112,-0.25458556,-0.24950242,-0.24444991,-0.24190831,-0.24022418,-0.23854,-0.23572278,-0.23318124,-0.22785312,-0.22139204,-0.21689075,-0.21266502,-0.211532,-0.21238941,-0.20929664,-0.20197815,-0.19548643,-0.18902534,-0.18538141,-0.17974705,-0.16906029,-0.16119057,-0.15610743,-0.1580978,-0.16906029,-0.18170685,-0.19211811,-0.19971216,-0.20620388,-0.21548218,-0.23067027,-0.24668527,-0.25427938,-0.2551368,-0.25146216,-0.24781823,-0.24977797,-0.2551368,-0.25737208,-0.25767833,-0.25682092,-0.25541234,-0.25541234,-0.25963807,-0.26527238,-0.24977797,-0.19830358,-0.09593654,0.057384253,0.23290563,0.408427,0.5583489,0.6506108,0.6402303,0.49958658,0.23572278,-0.08635211,-0.38481796,-0.591573,-0.6860703,-0.69253147,-0.63487154,-0.540068,-0.43966073,-0.35245126,-0.29396456,-0.26864076,-0.26245522,-0.2601893,-0.25486112,-0.24613404,-0.23599845,-0.22616899,-0.21829933,-0.21180761,-0.20899045,-0.20562208,-0.20280492,-0.19857919,-0.18960714,-0.17861408,-0.16792727,-0.16119057,-0.15610743,-0.1507793,-0.14036804,-0.12517995,-0.1077258,-0.08972043,-0.07652271,-0.066111445,-0.052331805,-0.03769487,-0.01968956,-0.0022659898,0.013228416,0.027834654,0.039930224,0.05061698,0.05879283,0.06075263,0.057384253,0.048106074,0.039654613,0.026732326,0.012922168,-0.0011329651,-0.01968956,-0.043880343,-0.06947976,-0.097038925,-0.12377137,-0.14431822,-0.16315031,-0.18170685,-0.20029396,-0.21744192,-0.23263007,-0.24331689,-0.25035977,-0.25568795,-0.2585051,-0.25963807,-0.26187342,-0.26273084,-0.2641394,-0.26723218,-0.26864076,-0.2714579,-0.2728665,-0.2706005,-0.265548,-0.2601893,-0.25709653,-0.2551368,-0.25345254,-0.25146216,-0.24922681,-0.24754262,-0.24781823,-0.25035977,-0.25204396,-0.25035977,-0.24950242,-0.2483694,-0.24640965,-0.24500108,-0.24500108,-0.2441743,-0.2435925,-0.24276572,-0.24163276,-0.23909116,-0.23740703,-0.236274,-0.2365802,-0.23768258,-0.23854,-0.23740703,-0.23149705,-0.22307622,-0.21490037,-0.20871478,-0.20589763,-0.20507091,-0.2047953,-0.20507091,-0.2095722,-0.21039903,-0.20562208,-0.19579268,-0.18339097,-0.16878468,-0.15892458,-0.15133053,-0.14823776,-0.1501975,-0.16119057,-0.17356157,-0.1876167,-0.20170254,-0.21238941,-0.22362739,-0.23544723,-0.24386811,-0.24922681,-0.2506354,-0.24809384,-0.24331689,-0.23994857,-0.24135715,-0.24640965,-0.25345254,-0.25991368,-0.26441503,-0.26778334,-0.26668096,-0.25458556,-0.2134918,-0.12827265,0.009002686,0.18874967,0.38536918,0.576936,0.7192639,0.7603271,0.66411495,0.41856265,0.08016658,-0.26300645,-0.53023857,-0.67847633,-0.7170285,-0.6798849,-0.59521693,-0.49367672,-0.396056,-0.32348347,-0.28214473,-0.26469058,-0.2601893,-0.2582295,-0.25568795,-0.2483694,-0.24218392,-0.2368558,-0.2286799,-0.22249442,-0.21462476,-0.20620388,-0.19971216,-0.19410849,-0.18847412,-0.1825642,-0.17497015,-0.16651869,-0.16060877,-0.15050375,-0.13755089,-0.123220146,-0.10631716,-0.08972043,-0.07511413,-0.05906844,-0.044737756,-0.028416634,-0.011544228,0.0059099197,0.020822406,0.034602046,0.041920543,0.045840144,0.050341368,0.054015994,0.056833148,0.055975676,0.04528892,0.028141022,0.0073184967,-0.013779581,-0.03545952,-0.059344053,-0.08834249,-0.120954216,-0.14964634,-0.17160183,-0.18874973,-0.20225376,-0.2188505,-0.236274,-0.25118655,-0.26217967,-0.27087605,-0.27482623,-0.2759592,-0.27706158,-0.27706158,-0.27847016,-0.28015435,-0.27932757,-0.27877635,-0.27678597,-0.27678597,-0.275653,-0.2753774,-0.2736932,-0.27173346,-0.27173346,-0.2703249,-0.26668096,-0.26217967,-0.2601893,-0.26046485,-0.2635576,-0.26668096,-0.26750773,-0.2649662,-0.26245522,-0.2601893,-0.25568795,-0.25204396,-0.24726707,-0.24331689,-0.2441743,-0.24640965,-0.250911,-0.24977797,-0.24781823,-0.24726707,-0.24527669,-0.24699146,-0.24809384,-0.24668527,-0.2441743,-0.24500108,-0.24386811,-0.24049973,-0.23994857,-0.23936677,-0.24218392,-0.24640965,-0.24867564,-0.24613404,-0.24163276,-0.23854,-0.23713142,-0.23740703,-0.23740703,-0.23403865,-0.22981292,-0.22081023,-0.21434915,-0.21379799,-0.21462476,-0.2165845,-0.21548218,-0.20984781,-0.20225376,-0.1938023,-0.18228865,-0.16878468,-0.15610743,-0.14741099,-0.14431822,-0.14992195,-0.15892458,-0.17187744,-0.184524,-0.19521087,-0.20280492,-0.21180761,-0.22025907,-0.2292617,-0.23544723,-0.23713142,-0.23517162,-0.23263007,-0.23149705,-0.23290563,-0.23207885,-0.23544723,-0.23798877,-0.24190831,-0.250911,-0.25541234,-0.23599845,-0.1772055,-0.062161207,0.10772574,0.30406964,0.5040879,0.67902744,0.78369105,0.7746885,0.62194943,0.3355788,-0.009860039,-0.33248615,-0.5597881,-0.6686468,-0.68493736,-0.6315032,-0.5378326,-0.43488383,-0.34599018,-0.2855131,-0.25936252,-0.25008422,-0.24726707,-0.24276572,-0.23235446,-0.22108585,-0.20984781,-0.1994366,-0.19297552,-0.18706554,-0.18565696,-0.18143123,-0.17497015,-0.16624314,-0.15583181,-0.14486945,-0.13755089,-0.1330496,-0.12854826,-0.120954216,-0.10971612,-0.09563035,-0.079891026,-0.065529644,-0.049790263,-0.03178495,-0.012095392,0.005328059,0.018556476,0.029518962,0.0413388,0.051749945,0.06412101,0.06920409,0.06807113,0.06412101,0.058517337,0.056251287,0.051474452,0.041614413,0.026426196,0.0019598007,-0.025875032,-0.052331805,-0.075665295,-0.0984475,-0.11954564,-0.14260346,-0.16596752,-0.18538141,-0.20252931,-0.21799308,-0.23094589,-0.2365802,-0.24022418,-0.24218392,-0.24386811,-0.24781823,-0.2506354,-0.2528708,-0.253177,-0.2551368,-0.2582295,-0.25682092,-0.25231957,-0.2483694,-0.24585849,-0.24613404,-0.24867564,-0.24977797,-0.24950242,-0.25008422,-0.250911,-0.25204396,-0.25035977,-0.24585849,-0.23854,-0.22953731,-0.22589338,-0.22589338,-0.22757757,-0.22757757,-0.22812873,-0.23008847,-0.23094589,-0.23403865,-0.23572278,-0.23403865,-0.23094589,-0.23177266,-0.23348743,-0.23458982,-0.23544723,-0.2343142,-0.22812873,-0.22280061,-0.2188505,-0.22108585,-0.22531158,-0.23207885,-0.23403865,-0.234896,-0.23263007,-0.22589338,-0.2191261,-0.21689075,-0.2191261,-0.22616899,-0.23177266,-0.23039472,-0.22503597,-0.22025907,-0.21603334,-0.21266502,-0.20984781,-0.20929664,-0.21266502,-0.21630895,-0.21490037,-0.20843923,-0.199161,-0.1918425,-0.18960714,-0.18789238,-0.18201303,-0.17637873,-0.16651869,-0.15610743,-0.14682919,-0.14232785,-0.14122546,-0.14682919,-0.15414768,-0.16174173,-0.16820288,-0.1746946,-0.18706554,-0.19971216,-0.211532,-0.21771753,-0.2191261,-0.22166765,-0.22558719,-0.22757757,-0.22840434,-0.22503597,-0.22139204,-0.2244848,-0.23235446,-0.23967302,-0.24472547,-0.23740703,-0.20197815,-0.123220146,0.0075941086,0.18029821,0.3670882,0.54597783,0.6801604,0.7232139,0.64583397,0.4252993,0.110818505,-0.21462476,-0.47398722,-0.6194078,-0.6627369,-0.63487154,-0.5625746,-0.47144562,-0.38282758,-0.31252104,-0.27004933,-0.2483694,-0.2365802,-0.22589338,-0.21548218,-0.20929664,-0.20534647,-0.20197815,-0.19802803,-0.19410849,-0.18734115,-0.17833847,-0.16792727,-0.15892458,-0.15442324,-0.15332091,-0.15160608,-0.14486945,-0.13222283,-0.11617726,-0.10549039,-0.09452796,-0.087485075,-0.077931285,-0.06329429,-0.04528892,-0.02559948,-0.007869661,0.0075941086,0.020546913,0.032060504,0.04274738,0.055118322,0.06271243,0.06920409,0.07061267,0.07116389,0.06834674,0.06047702,0.04501331,0.027559161,0.008145213,-0.00955385,-0.029549599,-0.05288297,-0.0807178,-0.109134376,-0.13614231,-0.15641361,-0.17328602,-0.1898827,-0.19998777,-0.21098077,-0.2188505,-0.22194326,-0.22589338,-0.23177266,-0.2388156,-0.24500108,-0.24699146,-0.2435925,-0.2365802,-0.23290563,-0.23149705,-0.23177266,-0.23207885,-0.23149705,-0.23177266,-0.23235446,-0.23235446,-0.23235446,-0.23039472,-0.2292617,-0.23008847,-0.22785312,-0.22589338,-0.22335184,-0.22139204,-0.22108585,-0.22249442,-0.22025907,-0.21575773,-0.21125644,-0.20703065,-0.20871478,-0.21266502,-0.21434915,-0.21689075,-0.2171663,-0.21517593,-0.21238941,-0.20647949,-0.20393789,-0.20562208,-0.2095722,-0.21434915,-0.21799308,-0.21799308,-0.21829933,-0.21771753,-0.2165845,-0.21125644,-0.20816362,-0.2047953,-0.20280492,-0.20562208,-0.20929664,-0.21266502,-0.21603334,-0.21603334,-0.211532,-0.20871478,-0.2073062,-0.20620388,-0.20534647,-0.20675504,-0.20788807,-0.20620388,-0.20084518,-0.19548643,-0.19129127,-0.19297552,-0.19606823,-0.19548643,-0.1898827,-0.1794715,-0.17411274,-0.17383718,-0.17692989,-0.18115562,-0.18115562,-0.17328602,-0.16005754,-0.14881957,-0.14150107,-0.1384083,-0.13473374,-0.12940568,-0.12150538,-0.1206786,-0.12631291,-0.13727534,-0.14682919,-0.15779161,-0.16765171,-0.17888969,-0.19070953,-0.19998777,-0.20280492,-0.20112073,-0.1994366,-0.1974768,-0.19493526,-0.19493526,-0.1938023,-0.1938023,-0.199161,-0.20758188,-0.21266502,-0.199161,-0.14600241,-0.046146333,0.10408175,0.27819455,0.4534403,0.6030866,0.6964816,0.6888875,0.5541538,0.2959243,-0.018280983,-0.3099795,-0.5125088,-0.60562825,-0.6140491,-0.5665248,-0.48608267,-0.39323884,-0.30774415,-0.2441743,-0.211532,-0.19857919,-0.1974768,-0.20084518,-0.20139635,-0.19579268,-0.1851058,-0.16933584,-0.15779161,-0.14964634,-0.14796215,-0.14992195,-0.14486945,-0.13500935,-0.12462872,-0.11253339,-0.1032244,-0.09789628,-0.092813194,-0.0860765,-0.07848245,-0.0689286,-0.0571087,-0.044155896,-0.030651987,-0.015188158,-0.00055116415,0.015739322,0.032060504,0.05119884,0.069755316,0.0860765,0.09621215,0.10071349,0.10013163,0.099304914,0.09789634,0.09311938,0.08494353,0.071715,0.052607417,0.031784892,0.006736636,-0.016596794,-0.039654613,-0.06470275,-0.08861804,-0.1156261,-0.14177662,-0.1628747,-0.17861408,-0.1898827,-0.19634384,-0.20029396,-0.20788807,-0.21462476,-0.22081023,-0.22558719,-0.22672015,-0.22757757,-0.22981292,-0.2312215,-0.23094589,-0.22727132,-0.2188505,-0.21180761,-0.21180761,-0.21630895,-0.2286799,-0.24022418,-0.24444991,-0.23994857,-0.2286799,-0.2188505,-0.211532,-0.20758188,-0.20843923,-0.20929664,-0.21012342,-0.21294057,-0.21125644,-0.20703065,-0.20366234,-0.20139635,-0.20029396,-0.20029396,-0.1974768,-0.19410849,-0.1938023,-0.19493526,-0.19775242,-0.20197815,-0.20308048,-0.20448905,-0.20507091,-0.20393789,-0.20366234,-0.20139635,-0.19888538,-0.19579268,-0.19410849,-0.19325107,-0.1938023,-0.19634384,-0.199161,-0.20029396,-0.1974768,-0.19465965,-0.19239372,-0.19129127,-0.19606823,-0.20252931,-0.20507091,-0.20280492,-0.19521087,-0.18789238,-0.18734115,-0.18930095,-0.19548643,-0.19857919,-0.19606823,-0.19098514,-0.18734115,-0.18678999,-0.19015831,-0.19269991,-0.19098514,-0.18565696,-0.17974705,-0.1794715,-0.18424839,-0.19239372,-0.19579268,-0.19465965,-0.1918425,-0.18648374,-0.18339097,-0.18143123,-0.18002266,-0.18088007,-0.1825642,-0.17974705,-0.17692989,-0.17438835,-0.17552131,-0.17861408,-0.18143123,-0.1825642,-0.17919588,-0.1777873,-0.18170685,-0.18424839,-0.1851058,-0.18620813,-0.18283981,-0.1794715,-0.17833847,-0.17751175,-0.17861408,-0.1794715,-0.18201303,-0.18170685,-0.17919588,-0.17579693,-0.17129558,-0.16624314,-0.16119057,-0.15837342,-0.15528065,-0.1524635,-0.14964634,-0.14881957,-0.1471048,-0.1471048,-0.14290965,-0.13586676,-0.12291396,-0.1102674,-0.09789628,-0.09002668,-0.09253758,-0.10181582,-0.11421752,-0.12631291,-0.13390696,-0.13727534,-0.14122546,-0.14909518,-0.15920019,-0.16765171,-0.17328602,-0.17974705,-0.1851058,-0.19015831,-0.19493526,-0.19661945,-0.1918425,-0.18620813,-0.18874973,-0.19521087,-0.20197815,-0.18734115,-0.12968123,-0.018280983,0.1403681,0.32434082,0.51195765,0.67734325,0.7788836,0.7690542,0.617448,0.3389473,0.00055122375,-0.3108369,-0.52518606,-0.62672627,-0.6326362,-0.56848454,-0.474814,-0.3763665,-0.29705727,-0.24699146,-0.22616899,-0.21998346,-0.21744192,-0.21321619,-0.20647949,-0.1943841,-0.18029827,-0.16906029,-0.15950638,-0.15696484,-0.15920019,-0.15920019,-0.15779161,-0.15273911,-0.14260346,-0.13164103,-0.12150538,-0.11222714,-0.10408181,-0.0964877,-0.085219085,-0.071439564,-0.056833148,-0.041920602,-0.029549599,-0.015739322,-0.001408577,0.012922168,0.027007937,0.040236354,0.055975676,0.07061267,0.08381057,0.0959059,0.098998666,0.09958053,0.097620726,0.093394995,0.09030223,0.085525274,0.07257259,0.05315852,0.030100703,0.004225731,-0.019413948,-0.041920602,-0.06638706,-0.095079124,-0.12040299,-0.1431852,-0.16033316,-0.17328602,-0.18902534,-0.20589763,-0.21998346,-0.22898614,-0.23263007,-0.22981292,-0.23177266,-0.23263007,-0.23263007,-0.23376304,-0.23067027,-0.23008847,-0.2292617,-0.2292617,-0.23067027,-0.23207885,-0.234896,-0.2365802,-0.23599845,-0.23094589,-0.22417861,-0.21940166,-0.21689075,-0.21940166,-0.2244848,-0.22981292,-0.23067027,-0.22672015,-0.22194326,-0.21967727,-0.21998346,-0.22362739,-0.22503597,-0.22081023,-0.21689075,-0.21548218,-0.21940166,-0.22307622,-0.22476041,-0.22025907,-0.2140736,-0.21012342,-0.21012342,-0.21548218,-0.22025907,-0.22280061,-0.22503597,-0.22335184,-0.2191261,-0.21517593,-0.21098077,-0.20984781,-0.21379799,-0.2188505,-0.22335184,-0.22476041,-0.223903,-0.22335184,-0.22280061,-0.22194326,-0.22053468,-0.21967727,-0.21967727,-0.2188505,-0.21689075,-0.21379799,-0.20929664,-0.20703065,-0.21067464,-0.21857488,-0.22476041,-0.22981292,-0.22699577,-0.2191261,-0.21266502,-0.21208322,-0.2134918,-0.21575773,-0.21434915,-0.21266502,-0.21208322,-0.21490037,-0.21967727,-0.22194326,-0.22307622,-0.22081023,-0.21603334,-0.21180761,-0.2073062,-0.20252931,-0.19720125,-0.19297552,-0.18734115,-0.1851058,-0.184524,-0.1851058,-0.18397284,-0.17637873,-0.16342592,-0.14796215,-0.13332516,-0.12208718,-0.11982119,-0.12377137,-0.13136542,-0.14205223,-0.1524635,-0.16033316,-0.16792727,-0.17383718,-0.18143123,-0.18847412,-0.1938023,-0.20112073,-0.21098077,-0.22166765,-0.22953731,-0.23008847,-0.22362739,-0.21517593,-0.21379799,-0.22081023,-0.2312215,-0.24218392,-0.24190831,-0.21517593,-0.1471048,-0.02755922,0.1384083,0.33052635,0.5313716,0.706311,0.81011724,0.7901522,0.6140491,0.3068868,-0.046697497,-0.35949415,-0.56597364,-0.6579294,-0.66187954,-0.60394406,-0.5119576,-0.41237712,-0.32715803,-0.27200907,-0.24950242,-0.24304134,-0.24304134,-0.2410816,-0.23572278,-0.22699577,-0.21575773,-0.20393789,-0.19465965,-0.18819857,-0.18538141,-0.17833847,-0.17129558,-0.16259915,-0.15442324,-0.14964634,-0.14431822,-0.13614231,-0.1274153,-0.11758584,-0.10971612,-0.10154021,-0.09030223,-0.078758,-0.065529644,-0.051750004,-0.038246036,-0.020822525,-0.00027561188,0.017147899,0.032060504,0.044155955,0.055118322,0.06470275,0.072021246,0.07652259,0.073705435,0.06580508,0.054291606,0.0374192,0.018556476,-0.001959741,-0.022231102,-0.044737756,-0.07284814,-0.10435736,-0.13164103,-0.15160608,-0.16765171,-0.1825642,-0.20084518,-0.22362739,-0.2435925,-0.25682092,-0.2638638,-0.26836514,-0.27087605,-0.2711823,-0.26864076,-0.2638638,-0.26046485,-0.25991368,-0.263282,-0.26946747,-0.27314204,-0.27455062,-0.27314204,-0.26778334,-0.2638638,-0.26273084,-0.26132226,-0.25737208,-0.25682092,-0.25963807,-0.26441503,-0.26668096,-0.2649662,-0.2559635,-0.24726707,-0.2441743,-0.24585849,-0.24640965,-0.24304134,-0.23909116,-0.23826444,-0.23967302,-0.24276572,-0.24558288,-0.24585849,-0.24668527,-0.24781823,-0.24781823,-0.24386811,-0.23854,-0.23376304,-0.23403865,-0.23599845,-0.23936677,-0.24190831,-0.24049973,-0.23854,-0.23713142,-0.23263007,-0.22981292,-0.2312215,-0.236274,-0.24190831,-0.24386811,-0.24022418,-0.23403865,-0.23067027,-0.23067027,-0.23572278,-0.2388156,-0.23798877,-0.23517162,-0.23149705,-0.22812873,-0.22476041,-0.22139204,-0.21857488,-0.211532,-0.2047953,-0.20029396,-0.1974768,-0.19775242,-0.20056957,-0.19998777,-0.196895,-0.19129127,-0.18143123,-0.16878468,-0.15414768,-0.14091921,-0.13390696,-0.13390696,-0.14205223,-0.15696484,-0.17187744,-0.18648374,-0.19830358,-0.20562208,-0.20871478,-0.21180761,-0.21603334,-0.21744192,-0.22081023,-0.22249442,-0.22166765,-0.22053468,-0.22025907,-0.2188505,-0.22194326,-0.22644454,-0.23458982,-0.24049973,-0.22785312,-0.18369722,-0.0964877,0.0374192,0.20026326,0.37241626,0.5352911,0.6480999,0.6663809,0.5625746,0.32826042,0.02137363,-0.28046054,-0.51137584,-0.6368619,-0.66582966,-0.62672627,-0.5459779,-0.4461218,-0.35330868,-0.28438008,-0.24585849,-0.23067027,-0.22757757,-0.22699577,-0.22166765,-0.21434915,-0.20393789,-0.19098514,-0.17888969,-0.17129558,-0.1673761,-0.16624314,-0.16315031,-0.15528065,-0.14627802,-0.13727534,-0.12968123,-0.12377137,-0.11703467,-0.10631716,-0.091710806,-0.07594085,-0.061610043,-0.050341427,-0.037970424,-0.025323868,-0.00955385,0.006736636,0.021098018,0.03542888,0.0545671,0.07480788,0.092813134,0.10408175,0.10830748,0.10604155,0.101264596,0.09621215,0.08889365,0.08016658,0.06807113,0.048106074,0.023915172,-0.004501343,-0.03150934,-0.05456716,-0.077349424,-0.09958047,-0.12236279,-0.14459383,-0.16428328,-0.18170685,-0.196895,-0.21125644,-0.21857488,-0.22025907,-0.21548218,-0.21180761,-0.21548218,-0.22221881,-0.23067027,-0.23544723,-0.23376304,-0.22840434,-0.22194326,-0.21799308,-0.21603334,-0.2140736,-0.21490037,-0.21266502,-0.20929664,-0.20843923,-0.20647949,-0.20562208,-0.20252931,-0.19634384,-0.19410849,-0.19211811,-0.19352669,-0.19465965,-0.1918425,-0.18902534,-0.18706554,-0.18593258,-0.18620813,-0.18648374,-0.18339097,-0.18115562,-0.18088007,-0.17665434,-0.17328602,-0.16878468,-0.16315031,-0.16342592,-0.16651869,-0.17301041,-0.17751175,-0.17438835,-0.16878468,-0.16400772,-0.16091496,-0.16119057,-0.16091496,-0.15892458,-0.1580978,-0.15724039,-0.157516,-0.15724039,-0.15218788,-0.14655358,-0.14064366,-0.13500935,-0.13249838,-0.12995684,-0.12940568,-0.12291396,-0.11280894,-0.102948785,-0.093394995,-0.085219085,-0.07707387,-0.07425672,-0.0807178,-0.09226197,-0.10631716,-0.11758584,-0.12686408,-0.13868392,-0.15301466,-0.16511011,-0.16400772,-0.15724039,-0.1524635,-0.15133053,-0.15387207,-0.15641361,-0.15610743,-0.15610743,-0.15892458,-0.1628747,-0.16400772,-0.16651869,-0.16342592,-0.13895947,-0.07594085,0.037970424,0.19661939,0.37550902,0.548795,0.69029605,0.7606026,0.72180545,0.5454267,0.25795376,-0.062161207,-0.3426218,-0.5223689,-0.5935328,-0.5856631,-0.5220933,-0.4289739,-0.32939345,-0.24500108,-0.18960714,-0.16005754,-0.1507793,-0.14909518,-0.14569622,-0.14091921,-0.13164103,-0.12122977,-0.113084555,-0.1077258,-0.103530586,-0.09731448,-0.08776069,-0.078758,-0.06947976,-0.062161207,-0.057384312,-0.04923904,-0.038552225,-0.030376375,-0.018556595,-0.008451462,0.0033683777,0.016596675,0.032060504,0.04724872,0.06693816,0.08861804,0.11026728,0.12909949,0.1426034,0.15246344,0.16370153,0.17297983,0.1814313,0.18678999,0.18565702,0.1814313,0.17497015,0.16596746,0.15329027,0.13782644,0.11590171,0.08889365,0.059619665,0.029518962,0.002817154,-0.021373749,-0.042196155,-0.06470275,-0.08439231,-0.10043788,-0.11336011,-0.12181157,-0.12913007,-0.13895947,-0.14655358,-0.15273911,-0.15332091,-0.15332091,-0.15469885,-0.15218788,-0.14909518,-0.14823776,-0.14909518,-0.15500504,-0.15864897,-0.15724039,-0.14909518,-0.13981688,-0.13727534,-0.1378265,-0.14122546,-0.14373642,-0.14401203,-0.13868392,-0.13249838,-0.12658852,-0.12150538,-0.12377137,-0.12686408,-0.12772149,-0.12882388,-0.12658852,-0.12377137,-0.122638345,-0.12181157,-0.122638345,-0.124904335,-0.12517995,-0.12432253,-0.11786145,-0.108858824,-0.10745013,-0.110818565,-0.11617726,-0.12122977,-0.12208718,-0.118412614,-0.11421752,-0.11617726,-0.117310286,-0.115044296,-0.11590171,-0.11617726,-0.11813706,-0.1206786,-0.12012744,-0.11222714,-0.10267323,-0.09593654,-0.09198642,-0.09226197,-0.09480357,-0.09198642,-0.085525334,-0.075665295,-0.06525403,-0.05514896,-0.047830462,-0.043053567,-0.04274732,-0.04755491,-0.060201466,-0.07229698,-0.083534956,-0.091129005,-0.099304855,-0.10971612,-0.122638345,-0.13136542,-0.13445818,-0.13531554,-0.13531554,-0.13981688,-0.14373642,-0.14150107,-0.13559115,-0.13136542,-0.13641793,-0.14937073,-0.1628747,-0.16651869,-0.14009249,-0.07116395,0.045840144,0.20617318,0.39014602,0.5777627,0.7440058,0.8430351,0.8314909,0.6742505,0.38310325,0.037970424,-0.28410453,-0.50659883,-0.60954773,-0.61545765,-0.55106103,-0.45062315,-0.344306,-0.25682092,-0.20084518,-0.172153,-0.16370153,-0.15950638,-0.15359646,-0.1476866,-0.13981688,-0.13136542,-0.12631291,-0.12181157,-0.118412614,-0.115044296,-0.10830754,-0.10043788,-0.09367055,-0.08720946,-0.083841145,-0.08044219,-0.073705554,-0.06301874,-0.050647616,-0.037970424,-0.024466455,-0.009002626,0.007042885,0.02333343,0.0374192,0.05092323,0.067795515,0.09057784,0.11222708,0.12769091,0.13559115,0.13755095,0.14205217,0.1482377,0.15273905,0.1518817,0.14459383,0.132774,0.11786139,0.1009891,0.081575155,0.05906844,0.03319347,0.006736636,-0.023057878,-0.051474392,-0.07652271,-0.0990293,-0.12122977,-0.14346087,-0.16342592,-0.18170685,-0.19211811,-0.19720125,-0.20029396,-0.20225376,-0.20448905,-0.20507091,-0.20620388,-0.20788807,-0.20703065,-0.20562208,-0.20562208,-0.20029396,-0.1994366,-0.20308048,-0.20899045,-0.2140736,-0.2134918,-0.20788807,-0.20170254,-0.19606823,-0.1943841,-0.19493526,-0.19493526,-0.19493526,-0.19661945,-0.19857919,-0.19720125,-0.196895,-0.19410849,-0.19015831,-0.19098514,-0.1918425,-0.19043392,-0.19070953,-0.18620813,-0.17751175,-0.17610317,-0.17497015,-0.17692989,-0.18115562,-0.18143123,-0.18060446,-0.18029827,-0.18201303,-0.18424839,-0.184524,-0.18283981,-0.17861408,-0.17270416,-0.16850907,-0.1628747,-0.15779161,-0.15359646,-0.15105492,-0.1501975,-0.15273911,-0.15387207,-0.1501975,-0.14150107,-0.12658852,-0.11195153,-0.101264656,-0.0964877,-0.09676331,-0.10154021,-0.11167598,-0.12208718,-0.13727534,-0.15332091,-0.16511011,-0.17187744,-0.17751175,-0.18397284,-0.19156694,-0.20112073,-0.20620388,-0.20589763,-0.20056957,-0.19661945,-0.196895,-0.19802803,-0.20029396,-0.20225376,-0.20675504,-0.21490037,-0.21630895,-0.19579268,-0.132774,-0.012952805,0.15610743,0.35303307,0.55188775,0.719815,0.80898416,0.77860796,0.60026944,0.29901695,-0.050065815,-0.3620357,-0.56934196,-0.66105276,-0.66215515,-0.59999394,-0.5063233,-0.40591604,-0.31702238,-0.2590869,-0.23348743,-0.22727132,-0.22616899,-0.22025907,-0.20899045,-0.19548643,-0.18620813,-0.18088007,-0.17833847,-0.17610317,-0.17074442,-0.1628747,-0.15105492,-0.14177662,-0.13641793,-0.13473374,-0.13360077,-0.12432253,-0.111124754,-0.09621215,-0.08212638,-0.07229698,-0.06243682,-0.05092323,-0.034326494,-0.015739322,0.0022352934,0.01742351,0.032642245,0.04501331,0.059925914,0.07425666,0.0880363,0.09985602,0.10408175,0.1032244,0.09449732,0.08129954,0.06693816,0.05061698,0.0374192,0.020546913,0.0008267164,-0.021373749,-0.050341427,-0.08212638,-0.11449313,-0.14064366,-0.15920019,-0.17270416,-0.18170685,-0.19211811,-0.20534647,-0.2188505,-0.2343142,-0.24527669,-0.24950242,-0.24809384,-0.24472547,-0.24190831,-0.24249017,-0.24613404,-0.25035977,-0.25146216,-0.25146216,-0.24809384,-0.24386811,-0.23994857,-0.236274,-0.23517162,-0.234896,-0.23599845,-0.23768258,-0.23798877,-0.23713142,-0.23572278,-0.2343142,-0.22840434,-0.2244848,-0.21998346,-0.21857488,-0.22081023,-0.22194326,-0.22194326,-0.21998346,-0.21689075,-0.21771753,-0.2191261,-0.21998346,-0.22194326,-0.22280061,-0.22589338,-0.22785312,-0.22644454,-0.22335184,-0.21379799,-0.20338672,-0.19775242,-0.19493526,-0.19606823,-0.19830358,-0.19802803,-0.19521087,-0.19043392,-0.18706554,-0.18397284,-0.18088007,-0.17579693,-0.16850907,-0.16033316,-0.15050375,-0.14064366,-0.13249838,-0.12658852,-0.12713969,-0.13727534,-0.15301466,-0.17129558,-0.18819857,-0.20084518,-0.20758188,-0.2140736,-0.21689075,-0.21490037,-0.2140736,-0.2134918,-0.2165845,-0.22194326,-0.22616899,-0.22757757,-0.22476041,-0.2244848,-0.23039472,-0.24049973,-0.25008422,-0.24304134,-0.199161,-0.1102674,0.029825091,0.20338666,0.38791072,0.562299,0.69225585,0.73530936,0.65483665,0.43488383,0.122638345,-0.20056957,-0.45962578,-0.6129467,-0.66555405,-0.64304745,-0.5715773,-0.47340542,-0.3763665,-0.29901707,-0.25458556,-0.23713142,-0.23067027,-0.22476041,-0.21603334,-0.20703065,-0.19802803,-0.18789238,-0.18170685,-0.17637873,-0.17383718,-0.17383718,-0.16906029,-0.1628747,-0.14909518,-0.13360077,-0.118994415,-0.103530586,-0.09198642,-0.08776069,-0.08411676,-0.07933986,-0.071439564,-0.057935476,-0.040787578,-0.022782326,-0.003950119,0.01772964,0.03769481,0.052607417,0.06470275,0.07848239,0.087485075,0.09648776,0.10239768,0.105214834,0.10576594,0.10154021,0.09253752,0.0767982,0.054015994,0.034877658,0.015188098,-0.007042885,-0.02982521,-0.056251287,-0.08044219,-0.10181582,-0.11954564,-0.14122546,-0.1654163,-0.18593258,-0.19888538,-0.20589763,-0.2042135,-0.20448905,-0.20843923,-0.21012342,-0.21208322,-0.21180761,-0.20871478,-0.20647949,-0.20899045,-0.2171663,-0.223903,-0.22476041,-0.22053468,-0.21208322,-0.20589763,-0.20675504,-0.20788807,-0.20225376,-0.19661945,-0.19325107,-0.19211811,-0.19352669,-0.1943841,-0.19015831,-0.18648374,-0.18538141,-0.18678999,-0.18789238,-0.1876167,-0.184524,-0.17833847,-0.17356157,-0.17160183,-0.172153,-0.17579693,-0.18002266,-0.17974705,-0.1772055,-0.16878468,-0.16060877,-0.15724039,-0.15528065,-0.15528065,-0.15442324,-0.1476866,-0.14205223,-0.14009249,-0.14150107,-0.14064366,-0.13500935,-0.12208718,-0.10631716,-0.09311938,-0.08693391,-0.085219085,-0.0860765,-0.08776069,-0.091710806,-0.10013163,-0.11167598,-0.12291396,-0.13332516,-0.14177662,-0.14881957,-0.1580978,-0.16400772,-0.16878468,-0.16991764,-0.16820288,-0.16820288,-0.16961145,-0.17242861,-0.17187744,-0.16906029,-0.16624314,-0.16765171,-0.1746946,-0.184524,-0.17552131,-0.13164103,-0.036010683,0.11140025,0.2908411,0.4795909,0.6514683,0.7667881,0.78056765,0.66383934,0.4146124,0.093394995,-0.2188505,-0.45230734,-0.57776284,-0.60758793,-0.5665248,-0.4846741,-0.38454235,-0.2905656,-0.22194326,-0.18479955,-0.17411274,-0.17438835,-0.17270416,-0.16315031,-0.1507793,-0.13699973,-0.1279971,-0.12377137,-0.12012744,-0.118412614,-0.115044296,-0.10803193,-0.09958047,-0.08693391,-0.07538968,-0.067795634,-0.061610043,-0.058241725,-0.050341427,-0.037970424,-0.023639679,-0.009278238,0.0030927658,0.0118198395,0.022782207,0.038521647,0.0565269,0.077625036,0.09422171,0.10971606,0.12181163,0.13418257,0.14600241,0.15301466,0.15301466,0.14937067,0.14232779,0.13164103,0.116728425,0.09676337,0.07594085,0.056833148,0.034020305,0.008451462,-0.022506714,-0.057659864,-0.083841145,-0.102948785,-0.11871886,-0.13586676,-0.15442324,-0.17328602,-0.1876167,-0.19297552,-0.19720125,-0.19661945,-0.1943841,-0.19297552,-0.1898827,-0.18819857,-0.18734115,-0.19098514,-0.19410849,-0.196895,-0.19606823,-0.19043392,-0.18424839,-0.17974705,-0.17919588,-0.18479955,-0.19015831,-0.19297552,-0.19070953,-0.18565696,-0.18088007,-0.17552131,-0.1746946,-0.17497015,-0.17438835,-0.17552131,-0.17328602,-0.17046887,-0.16511011,-0.16174173,-0.15978199,-0.15978199,-0.15978199,-0.16033316,-0.16033316,-0.15978199,-0.15779161,-0.15442324,-0.14909518,-0.14401203,-0.14009249,-0.14205223,-0.14431822,-0.14486945,-0.14177662,-0.13136542,-0.11758584,-0.10463297,-0.09422177,-0.08776069,-0.0860765,-0.089444816,-0.099304855,-0.10999179,-0.12040299,-0.12940568,-0.13895947,-0.15359646,-0.17242861,-0.18874973,-0.20112073,-0.2042135,-0.196895,-0.18874973,-0.18115562,-0.18088007,-0.18819857,-0.19606823,-0.20084518,-0.20084518,-0.1994366,-0.20280492,-0.21462476,-0.2171663,-0.19156694,-0.12181157,0.0016841888,0.17157125,0.36427104,0.5597575,0.7263068,0.80926,0.76341975,0.5653918,0.24922681,-0.0990293,-0.3985976,-0.58875585,-0.66414547,-0.64978415,-0.5800288,-0.48381668,-0.38564473,-0.30575377,-0.253177,-0.2286799,-0.2244848,-0.22757757,-0.2244848,-0.21321619,-0.20170254,-0.19211811,-0.18734115,-0.18228865,-0.17270416,-0.16033316,-0.15160608,-0.14909518,-0.1471048,-0.14036804,-0.13023245,-0.11813706,-0.10662335,-0.09731448,-0.08803624,-0.079615414,-0.0683468,-0.057384312,-0.04332918,-0.027008057,-0.010686815,0.006736636,0.022506595,0.037143707,0.05092323,0.063845396,0.075665236,0.08889365,0.09676337,0.10071349,0.097038865,0.089444876,0.079615474,0.06638694,0.051474452,0.030376315,0.008145213,-0.014055133,-0.03683746,-0.06274301,-0.09085339,-0.12122977,-0.1524635,-0.17806292,-0.19830358,-0.21266502,-0.22335184,-0.23067027,-0.23798877,-0.24444991,-0.25204396,-0.25991368,-0.26637477,-0.2706005,-0.26864076,-0.2658236,-0.26245522,-0.2635576,-0.26668096,-0.26668096,-0.265548,-0.2638638,-0.26245522,-0.2635576,-0.2658236,-0.2689163,-0.2680589,-0.26441503,-0.2601893,-0.25767833,-0.25682092,-0.26046485,-0.2635576,-0.26217967,-0.25963807,-0.2585051,-0.25878066,-0.25654536,-0.25372815,-0.24950242,-0.24699146,-0.24922681,-0.25176835,-0.25259513,-0.25176835,-0.2489512,-0.24922681,-0.25035977,-0.25035977,-0.24867564,-0.24472547,-0.23909116,-0.2343142,-0.23094589,-0.22785312,-0.2286799,-0.2292617,-0.2286799,-0.22335184,-0.211532,-0.19830358,-0.18479955,-0.17270416,-0.16370153,-0.15978199,-0.1622929,-0.17187744,-0.1876167,-0.20112073,-0.2073062,-0.21379799,-0.22249442,-0.23544723,-0.2528708,-0.2658236,-0.2680589,-0.2649662,-0.26046485,-0.2590869,-0.25963807,-0.2641394,-0.26864076,-0.2711823,-0.2689163,-0.26946747,-0.27314204,-0.28269595,-0.29169858,-0.27706158,-0.21575773,-0.09563035,0.07707381,0.27595925,0.47848856,0.65119267,0.7451389,0.7189883,0.5451511,0.24331689,-0.102948785,-0.41351008,-0.62250054,-0.7189883,-0.72685796,-0.66919804,-0.5766604,-0.4728542,-0.38227642,-0.32461643,-0.30070126,-0.29451573,-0.29479134,-0.28578866,-0.27510178,-0.26637477,-0.26187342,-0.26187342,-0.25991368,-0.25400376,-0.24444991,-0.23517162,-0.22840434,-0.22221881,-0.21434915,-0.20507091,-0.19325107,-0.18593258,-0.18115562,-0.17665434,-0.16878468,-0.15469885,-0.1384083,-0.12040299,-0.10212201,-0.08662766,-0.07033718,-0.05456716,-0.0399608,-0.026150644,-0.012952805,-0.0016841888,0.0073184967,0.014330745,0.01742351,0.016872287,0.011544228,0.0019598007,-0.010686815,-0.025048256,-0.040512025,-0.05906844,-0.077931285,-0.09958047,-0.12573111,-0.15442324,-0.18565696,-0.21490037,-0.23768258,-0.25231957,-0.2635576,-0.2759592,-0.28833026,-0.29788405,-0.30324286,-0.30238545,-0.30070126,-0.30324286,-0.30857092,-0.31365407,-0.3156138,-0.31420523,-0.30915272,-0.3074686,-0.30774415,-0.30547816,-0.3052026,-0.30379403,-0.3043452,-0.30606002,-0.30465144,-0.30125242,-0.29537314,-0.29029,-0.28915703,-0.2900144,-0.28915703,-0.28692168,-0.28747284,-0.28833026,-0.29142296,-0.29647547,-0.2976085,-0.29338276,-0.28888142,-0.28496188,-0.27960312,-0.27678597,-0.27706158,-0.27482623,-0.27396882,-0.27847016,-0.28410453,-0.28637046,-0.28805465,-0.2829715,-0.2759592,-0.27341765,-0.27314204,-0.27427506,-0.27228463,-0.26919192,-0.2680589,-0.26750773,-0.26609915,-0.26273084,-0.25654536,-0.24809384,-0.24558288,-0.24922681,-0.253177,-0.25486112,-0.25204396,-0.23967302,-0.22476041,-0.21067464,-0.19606823,-0.18397284,-0.18002266,-0.18201303,-0.1938023,-0.21208322,-0.22727132,-0.2368558,-0.24444991,-0.25035977,-0.25795394,-0.26723218,-0.27482623,-0.27932757,-0.27932757,-0.27905196,-0.27706158,-0.27510178,-0.27427506,-0.275653,-0.27819455,-0.28242028,-0.28833026,-0.29987442,-0.30633557,-0.28805465,-0.22840434,-0.11786145,0.042471766,0.22476041,0.4064672,0.56484056,0.66411495,0.65232563,0.5012708,0.22276998,-0.110818565,-0.41323453,-0.6177236,-0.7083014,-0.7150382,-0.6638393,-0.5808556,-0.48749125,-0.40055734,-0.33952904,-0.30774415,-0.29733288,-0.29338276,-0.28946322,-0.28156292,-0.2703249,-0.25991368,-0.25231957,-0.24809384,-0.24472547,-0.24190831,-0.2410816,-0.23094589,-0.21744192,-0.2047953,-0.19352669,-0.18960714,-0.18930095,-0.184524,-0.17524576,-0.16342592,-0.15191233,-0.14091921,-0.1279971,-0.11222714,-0.09621215,-0.078758,-0.06301874,-0.045564473,-0.027283609,-0.013503969,-0.0022659898,0.0036438704,0.009002686,0.012922168,0.015188098,0.015739322,0.012646556,0.0011329651,-0.011544228,-0.028141022,-0.04724866,-0.07174575,-0.09731448,-0.12462872,-0.15133053,-0.17637873,-0.20029396,-0.223903,-0.2441743,-0.2601893,-0.2728665,-0.2812873,-0.28719723,-0.2956487,-0.30238545,-0.30688673,-0.3097039,-0.30884653,-0.30465144,-0.30406958,-0.30575377,-0.3122455,-0.31420523,-0.31196988,-0.30633557,-0.29901707,-0.29451573,-0.2950669,-0.29846585,-0.30155867,-0.30210984,-0.2976085,-0.28915703,-0.28637046,-0.28805465,-0.29451573,-0.30125242,-0.30097687,-0.29396456,-0.28578866,-0.28046054,-0.27764338,-0.2759592,-0.27482623,-0.275653,-0.27736777,-0.27960312,-0.2832777,-0.2855131,-0.28664607,-0.28664607,-0.28606427,-0.28242028,-0.27791893,-0.2759592,-0.27510178,-0.27877635,-0.2846557,-0.28946322,-0.2911474,-0.28915703,-0.2829715,-0.27678597,-0.27396882,-0.27427506,-0.275653,-0.27819455,-0.27847016,-0.27706158,-0.27482623,-0.26946747,-0.2635576,-0.25878066,-0.25795394,-0.2590869,-0.2582295,-0.25146216,-0.23936677,-0.22589338,-0.21689075,-0.21012342,-0.20675504,-0.20225376,-0.20197815,-0.20703065,-0.2191261,-0.2312215,-0.2410816,-0.25176835,-0.26217967,-0.2728665,-0.2810117,-0.2818691,-0.27791893,-0.27764338,-0.2818691,-0.28664607,-0.28888142,-0.28805465,-0.28496188,-0.28269595,-0.28496188,-0.28915703,-0.2959243,-0.29987442,-0.27960312,-0.21829933,-0.10239762,0.061028242,0.24585843,0.43065798,0.587041,0.6782007,0.65851116,0.49900484,0.21153188,-0.12827265,-0.43742537,-0.6464158,-0.7420461,-0.7437303,-0.6793337,-0.5803044,-0.4731298,-0.3820008,-0.3277092,-0.30606002,-0.29987442,-0.29929268,-0.29479134,-0.28496188,-0.27427506,-0.26245522,-0.25008422,-0.24218392,-0.23798877,-0.234896,-0.23008847,-0.22249442,-0.21379799,-0.20589763,-0.20112073,-0.19465965,-0.18648374,-0.1772055,-0.16792727,-0.15892458,-0.14992195,-0.13810205,-0.12377137,-0.10803193,-0.09085339,-0.07257253,-0.054291546,-0.037143648,-0.020546973,-0.009278238,0.0036438704,0.014055133,0.021924853,0.032060504,0.03573513,0.036286235,0.028692245,0.013779521,-0.005052507,-0.024742067,-0.04360473,-0.0635699,-0.08720946,-0.11421752,-0.14373642,-0.17160183,-0.19579268,-0.21630895,-0.23263007,-0.24867564,-0.26300645,-0.27678597,-0.28805465,-0.29451573,-0.29874146,-0.29987442,-0.30155867,-0.30606002,-0.3082953,-0.30801976,-0.3082953,-0.3082953,-0.3102551,-0.3099795,-0.3099795,-0.30857092,-0.30774415,-0.3082953,-0.30942833,-0.30801976,-0.30155867,-0.2956487,-0.292556,-0.2905656,-0.2905656,-0.29029,-0.2886058,-0.28888142,-0.28664607,-0.28805465,-0.28888142,-0.28692168,-0.2818691,-0.27791893,-0.2762348,-0.27706158,-0.2832777,-0.28664607,-0.28637046,-0.2832777,-0.27877635,-0.27764338,-0.27905196,-0.28214473,-0.2812873,-0.27736777,-0.2736932,-0.2714579,-0.2736932,-0.27877635,-0.28496188,-0.28805465,-0.2911474,-0.28888142,-0.28242028,-0.2736932,-0.2689163,-0.27173346,-0.27877635,-0.28637046,-0.28664607,-0.28242028,-0.2759592,-0.2736932,-0.27455062,-0.27706158,-0.27987874,-0.27510178,-0.26836514,-0.2601893,-0.24950242,-0.24585849,-0.24668527,-0.24726707,-0.24922681,-0.24640965,-0.23936677,-0.2312215,-0.22166765,-0.21180761,-0.20280492,-0.19606823,-0.19239372,-0.19015831,-0.18960714,-0.19325107,-0.20170254,-0.2165845,-0.23008847,-0.24135715,-0.25176835,-0.26273084,-0.2759592,-0.28410453,-0.2852375,-0.27905196,-0.27341765,-0.27173346,-0.27427506,-0.27905196,-0.28046054,-0.28156292,-0.2832777,-0.28805465,-0.29846585,-0.29537314,-0.25991368,-0.17497015,-0.026732445,0.16174173,0.37158954,0.5721592,0.7271335,0.78255796,0.696206,0.45371592,0.10604155,-0.25372815,-0.5431914,-0.7099856,-0.7617356,-0.72826654,-0.64359856,-0.53838384,-0.435435,-0.35585022,-0.3102551,-0.292556,-0.28833026,-0.28915703,-0.28496188,-0.2753774,-0.2641394,-0.25372815,-0.24640965,-0.24304134,-0.24276572,-0.24276572,-0.23713142,-0.22221881,-0.20647949,-0.19521087,-0.19098514,-0.19297552,-0.19521087,-0.18678999,-0.17074442,-0.15191233,-0.13473374,-0.12181157,-0.111124754,-0.10043788,-0.085800886,-0.067795634,-0.04697305,-0.02924341,-0.014636934,-0.002541542,0.0075941086,0.016321063,0.026426196,0.030651927,0.027559161,0.024190784,0.018832088,0.011237979,0.00055122375,-0.017454088,-0.04106319,-0.06724447,-0.093394995,-0.120954216,-0.14937073,-0.17637873,-0.19998777,-0.2188505,-0.23768258,-0.25458556,-0.26946747,-0.2838289,-0.292556,-0.29788405,-0.30547816,-0.31138808,-0.31252104,-0.3097039,-0.30661118,-0.3043452,-0.304927,-0.3108369,-0.31506264,-0.3156138,-0.31506264,-0.31279665,-0.3099795,-0.30465144,-0.30125242,-0.29705727,-0.29479134,-0.29537314,-0.2956487,-0.29338276,-0.28777903,-0.28015435,-0.2753774,-0.2762348,-0.2832777,-0.28915703,-0.2911474,-0.2852375,-0.27764338,-0.27341765,-0.27314204,-0.27482623,-0.27651036,-0.27510178,-0.27200907,-0.2649662,-0.2601893,-0.2585051,-0.2590869,-0.26469058,-0.2703249,-0.27396882,-0.26977372,-0.26300645,-0.25963807,-0.25737208,-0.2601893,-0.26637477,-0.26977372,-0.2706005,-0.27200907,-0.2714579,-0.26695657,-0.26187342,-0.25737208,-0.25654536,-0.25991368,-0.2649662,-0.26864076,-0.26946747,-0.2689163,-0.26750773,-0.2641394,-0.26159787,-0.26132226,-0.25991368,-0.2585051,-0.25372815,-0.24809384,-0.2435925,-0.24022418,-0.23768258,-0.23403865,-0.2292617,-0.22503597,-0.22221881,-0.2165845,-0.20816362,-0.1974768,-0.18706554,-0.17579693,-0.1667943,-0.16174173,-0.1628747,-0.17356157,-0.19015831,-0.2042135,-0.21098077,-0.21490037,-0.22139204,-0.23094589,-0.2410816,-0.24668527,-0.2435925,-0.23826444,-0.23854,-0.24500108,-0.250911,-0.2528708,-0.25259513,-0.2506354,-0.25541234,-0.265548,-0.27427506,-0.26668096,-0.22699577,-0.14177662,-0.0030927658,0.17607248,0.37382483,0.5696176,0.7274091,0.79296935,0.72067237,0.4947791,0.16033316,-0.1898827,-0.4731298,-0.6390973,-0.69984996,-0.683835,-0.61518204,-0.51955175,-0.42251277,-0.3403558,-0.2900144,-0.26778334,-0.26187342,-0.26300645,-0.263282,-0.25936252,-0.24809384,-0.23403865,-0.21603334,-0.20562208,-0.20225376,-0.20280492,-0.2047953,-0.20112073,-0.19410849,-0.1825642,-0.17242861,-0.1654163,-0.15864897,-0.14909518,-0.14036804,-0.12882388,-0.1156261,-0.1032244,-0.08972043,-0.07594085,-0.06133443,-0.043880343,-0.026150644,-0.007042885,0.009829402,0.022230983,0.027834654,0.03319347,0.039654613,0.048106074,0.05710876,0.05906844,0.05288303,0.036286235,0.016872287,-0.0022659898,-0.021373749,-0.040787578,-0.06243682,-0.08972043,-0.118412614,-0.14600241,-0.16850907,-0.18593258,-0.20029396,-0.21434915,-0.22898614,-0.24049973,-0.25035977,-0.2559635,-0.25936252,-0.26441503,-0.26864076,-0.27341765,-0.27455062,-0.2728665,-0.2703249,-0.26778334,-0.26836514,-0.26778334,-0.2680589,-0.26469058,-0.26159787,-0.26104665,-0.2635576,-0.26695657,-0.26609915,-0.263282,-0.2601893,-0.25709653,-0.25737208,-0.25568795,-0.253177,-0.24867564,-0.24500108,-0.24331689,-0.24249017,-0.2388156,-0.23458982,-0.23067027,-0.22812873,-0.2286799,-0.23039472,-0.23403865,-0.236274,-0.236274,-0.23403865,-0.23235446,-0.23318124,-0.23517162,-0.24022418,-0.24049973,-0.23798877,-0.23517162,-0.23318124,-0.23403865,-0.236274,-0.23544723,-0.23263007,-0.22672015,-0.21967727,-0.21490037,-0.2095722,-0.20366234,-0.20139635,-0.20084518,-0.20139635,-0.20338672,-0.199161,-0.18789238,-0.17438835,-0.16060877,-0.15387207,-0.15218788,-0.15273911,-0.15610743,-0.16370153,-0.17356157,-0.18678999,-0.19998777,-0.21379799,-0.223903,-0.23039472,-0.23376304,-0.23544723,-0.2365802,-0.23826444,-0.24218392,-0.24135715,-0.2388156,-0.23740703,-0.23740703,-0.23909116,-0.24558288,-0.25427938,-0.26750773,-0.27678597,-0.2638638,-0.21039903,-0.10493916,0.05315852,0.23881555,0.43065798,0.60222924,0.71280277,0.71617115,0.58367264,0.315032,-0.020822525,-0.34176445,-0.5746701,-0.6919803,-0.71081245,-0.6616039,-0.5735677,-0.47426277,-0.38622653,-0.32152373,-0.28833026,-0.27706158,-0.2728665,-0.26609915,-0.25541234,-0.24249017,-0.23290563,-0.22503597,-0.21998346,-0.21208322,-0.20534647,-0.20139635,-0.20056957,-0.20112073,-0.19888538,-0.19297552,-0.1851058,-0.17411274,-0.16455889,-0.15442324,-0.14600241,-0.13390696,-0.118412614,-0.0990293,-0.08016658,-0.062161207,-0.04501331,-0.029549599,-0.01546371,-0.00027561188,0.014330745,0.027834654,0.042196155,0.051749945,0.054291606,0.053434134,0.04951465,0.04360473,0.033744693,0.018832088,0.00027561188,-0.019138396,-0.040787578,-0.06243682,-0.08635211,-0.11336011,-0.14205223,-0.16991764,-0.19465965,-0.21829933,-0.23713142,-0.25372815,-0.26864076,-0.27678597,-0.27960312,-0.28438008,-0.28719723,-0.2905656,-0.29365832,-0.29169858,-0.28915703,-0.28946322,-0.29365832,-0.29619992,-0.29647547,-0.29338276,-0.2919742,-0.2905656,-0.29029,-0.28578866,-0.28410453,-0.2852375,-0.2908718,-0.29619992,-0.29619992,-0.29283154,-0.28915703,-0.28719723,-0.28719723,-0.2832777,-0.27847016,-0.27651036,-0.2762348,-0.27651036,-0.2736932,-0.26750773,-0.26104665,-0.25878066,-0.26159787,-0.26723218,-0.27173346,-0.27341765,-0.27256024,-0.2680589,-0.26245522,-0.25963807,-0.2607711,-0.26469058,-0.26864076,-0.2711823,-0.26864076,-0.26441503,-0.2590869,-0.25709653,-0.25737208,-0.26159787,-0.265548,-0.26750773,-0.265548,-0.2607711,-0.2585051,-0.25991368,-0.25936252,-0.2582295,-0.2551368,-0.253177,-0.25400376,-0.25626975,-0.25767833,-0.25427938,-0.25146216,-0.24867564,-0.24500108,-0.24077535,-0.234896,-0.22699577,-0.22139204,-0.2191261,-0.22053468,-0.22280061,-0.22362739,-0.21771753,-0.2042135,-0.19043392,-0.17610317,-0.1667943,-0.16005754,-0.15641361,-0.157516,-0.1667943,-0.18228865,-0.19888538,-0.21125644,-0.21998346,-0.22531158,-0.23067027,-0.23854,-0.24249017,-0.24444991,-0.2441743,-0.2435925,-0.24585849,-0.2489512,-0.25176835,-0.25372815,-0.25372815,-0.25458556,-0.25486112,-0.25709653,-0.2483694,-0.21266502,-0.13559115,0.0019598007,0.18620813,0.39210582,0.59662557,0.7532841,0.80956614,0.7232139,0.4756714,0.12432253,-0.24190831,-0.52769697,-0.68242645,-0.7260312,-0.6877545,-0.6008513,-0.49649388,-0.39550483,-0.31757355,-0.27764338,-0.2680589,-0.2680589,-0.26637477,-0.25654536,-0.24527669,-0.23458982,-0.223903,-0.21829933,-0.21266502,-0.20703065,-0.2042135,-0.20112073,-0.19297552,-0.18706554,-0.18002266,-0.17328602,-0.16596752,-0.15641361,-0.14542061,-0.132774,-0.12150538,-0.11336011,-0.1038062,-0.09198642,-0.075665295,-0.057384312,-0.040787578,-0.026150644,-0.008727074,0.009278178,0.025875092,0.038246036,0.046697497,0.052331805,0.059344053,0.06470275,0.06329417,0.055975676,0.04528892,0.032336116,0.016596675,-0.0022659898,-0.02559948,-0.052331805,-0.08185077,-0.11363572,-0.14260346,-0.16878468,-0.19015831,-0.20703065,-0.22108585,-0.234896,-0.2483694,-0.2601893,-0.2706005,-0.27791893,-0.28156292,-0.2838289,-0.2852375,-0.28664607,-0.28888142,-0.2886058,-0.28578866,-0.28269595,-0.2812873,-0.28269595,-0.2855131,-0.28606427,-0.28606427,-0.2829715,-0.27960312,-0.27847016,-0.27678597,-0.2736932,-0.27173346,-0.27256024,-0.2728665,-0.27341765,-0.2711823,-0.26723218,-0.2635576,-0.25963807,-0.25654536,-0.25682092,-0.2601893,-0.26695657,-0.27200907,-0.27200907,-0.26609915,-0.25709653,-0.253177,-0.25400376,-0.25737208,-0.26300645,-0.26637477,-0.26469058,-0.2601893,-0.25709653,-0.25345254,-0.25204396,-0.25345254,-0.25259513,-0.24809384,-0.2410816,-0.23572278,-0.22953731,-0.2244848,-0.22417861,-0.22280061,-0.22025907,-0.21744192,-0.21012342,-0.199161,-0.18620813,-0.17356157,-0.16765171,-0.1667943,-0.17552131,-0.19211811,-0.20984781,-0.22589338,-0.23740703,-0.24444991,-0.24977797,-0.25458556,-0.26132226,-0.26946747,-0.2728665,-0.2703249,-0.26300645,-0.2551368,-0.25204396,-0.25345254,-0.25963807,-0.2689163,-0.28073615,-0.29451573,-0.3052026,-0.2911474,-0.23994857,-0.13895947,0.019413829,0.21686006,0.43065798,0.63092136,0.76932967,0.79238737,0.6649722,0.3898704,0.034326553,-0.31334782,-0.57411885,-0.70971,-0.7361362,-0.6869278,-0.59549254,-0.49254376,-0.40113914,-0.33080202,-0.28915703,-0.2711823,-0.2680589,-0.2711823,-0.2706005,-0.2638638,-0.25146216,-0.2410816,-0.23263007,-0.22840434,-0.22531158,-0.2188505,-0.20929664,-0.19802803,-0.18678999,-0.1777873,-0.17524576,-0.17242861,-0.16710049,-0.15779161,-0.145145,-0.13191658,-0.118412614,-0.10181582,-0.083259344,-0.065529644,-0.052607417,-0.040512025,-0.03150934,-0.016872406,0.003950119,0.02363956,0.03769481,0.050065875,0.05484271,0.0565269,0.0545671,0.048657298,0.03910339,0.0250175,0.0075941086,-0.013228357,-0.037143648,-0.06243682,-0.089169264,-0.1156261,-0.14486945,-0.16933584,-0.18734115,-0.20112073,-0.21238941,-0.22812873,-0.24500108,-0.2601893,-0.27087605,-0.27482623,-0.2762348,-0.27678597,-0.27905196,-0.27932757,-0.27847016,-0.27791893,-0.2759592,-0.27651036,-0.2810117,-0.2855131,-0.28833026,-0.28692168,-0.28214473,-0.27651036,-0.27396882,-0.27455062,-0.27510178,-0.27482623,-0.27200907,-0.26723218,-0.265548,-0.2641394,-0.2638638,-0.26132226,-0.25795394,-0.25709653,-0.2559635,-0.25767833,-0.2582295,-0.2559635,-0.25345254,-0.25400376,-0.25458556,-0.25654536,-0.25682092,-0.25654536,-0.25709653,-0.25400376,-0.24977797,-0.24304134,-0.2368558,-0.23599845,-0.23599845,-0.2312215,-0.22558719,-0.22166765,-0.21940166,-0.22081023,-0.22194326,-0.21744192,-0.20816362,-0.19802803,-0.18648374,-0.17438835,-0.1673761,-0.16569185,-0.16710049,-0.17552131,-0.18648374,-0.19720125,-0.20843923,-0.22081023,-0.22898614,-0.23936677,-0.24977797,-0.25737208,-0.2638638,-0.26441503,-0.25991368,-0.25541234,-0.25231957,-0.24754262,-0.24726707,-0.250911,-0.25400376,-0.2641394,-0.27905196,-0.28888142,-0.27960312,-0.23572278,-0.13895947,0.0118198395,0.19661939,0.39382064,0.57439435,0.6987169,0.7200906,0.60562813,0.35385978,0.028967738,-0.2908718,-0.5338825,-0.6663809,-0.70153415,-0.6646967,-0.58143735,-0.48017275,-0.38536912,-0.31365407,-0.2753774,-0.26245522,-0.25878066,-0.2590869,-0.2551368,-0.24613404,-0.23854,-0.23318124,-0.22757757,-0.22194326,-0.21180761,-0.19998777,-0.18902534,-0.18029827,-0.17579693,-0.16991764,-0.16483456,-0.15950638,-0.1524635,-0.14401203,-0.13249838,-0.11871886,-0.10435736,-0.09198642,-0.07903361,-0.06274301,-0.04332918,-0.022782326,-0.004501343,0.0073184967,0.018005252,0.030651927,0.041920543,0.051749945,0.057384253,0.057935476,0.057659864,0.055700183,0.04923904,0.03683746,0.016321063,-0.006767273,-0.027834773,-0.051474392,-0.07538968,-0.10181582,-0.12968123,-0.15469885,-0.17356157,-0.18847412,-0.20338672,-0.21857488,-0.23403865,-0.24668527,-0.25626975,-0.2635576,-0.2680589,-0.26919192,-0.2689163,-0.26668096,-0.26245522,-0.26441503,-0.26836514,-0.27200907,-0.27228463,-0.26977372,-0.2649662,-0.2607711,-0.2590869,-0.2607711,-0.26046485,-0.25991368,-0.25654536,-0.25231957,-0.24500108,-0.24276572,-0.24472547,-0.24977797,-0.25654536,-0.25767833,-0.253177,-0.24558288,-0.2410816,-0.23909116,-0.2388156,-0.23572278,-0.2343142,-0.23318124,-0.23517162,-0.23826444,-0.23994857,-0.24077535,-0.24022418,-0.23740703,-0.23235446,-0.22531158,-0.22221881,-0.22053468,-0.22025907,-0.21829933,-0.21208322,-0.20562208,-0.20029396,-0.19888538,-0.20225376,-0.20871478,-0.21098077,-0.20507091,-0.19098514,-0.17497015,-0.16091496,-0.15273911,-0.14937073,-0.14627802,-0.14627802,-0.15332091,-0.16483456,-0.17579693,-0.18789238,-0.20139635,-0.21379799,-0.22531158,-0.23263007,-0.23318124,-0.23067027,-0.23094589,-0.23318124,-0.23826444,-0.24304134,-0.24640965,-0.24867564,-0.24867564,-0.24726707,-0.25035977,-0.2582295,-0.26609915,-0.25541234,-0.20562208,-0.10239762,0.0545671,0.23881555,0.42839205,0.60026944,0.7116697,0.72039676,0.5895827,0.3226261,-0.013779581,-0.3344459,-0.5713017,-0.6945219,-0.7206725,-0.67284197,-0.57607865,-0.46581125,-0.36822122,-0.30465144,-0.2736932,-0.26469058,-0.26217967,-0.25795394,-0.25427938,-0.24699146,-0.2388156,-0.23094589,-0.2244848,-0.21689075,-0.21012342,-0.20393789,-0.19775242,-0.19297552,-0.18648374,-0.1772055,-0.16710049,-0.15724039,-0.14964634,-0.14346087,-0.13249838,-0.11590171,-0.09985608,-0.085800886,-0.07453227,-0.06243682,-0.045840085,-0.025323868,-0.004501343,0.012370944,0.025875092,0.03769481,0.048657298,0.057935476,0.06329417,0.06525397,0.06442714,0.058517337,0.048106074,0.034877658,0.020240664,0.0047769547,-0.014055133,-0.03683746,-0.067795634,-0.10043788,-0.13136542,-0.15668923,-0.17806292,-0.19857919,-0.21799308,-0.23290563,-0.24585849,-0.25259513,-0.25541234,-0.2590869,-0.26441503,-0.2680589,-0.27341765,-0.27764338,-0.27791893,-0.27651036,-0.27510178,-0.27341765,-0.27200907,-0.2689163,-0.26836514,-0.2680589,-0.26919192,-0.27396882,-0.27706158,-0.27706158,-0.27200907,-0.26300645,-0.25486112,-0.253177,-0.25682092,-0.26046485,-0.25936252,-0.25709653,-0.25146216,-0.24867564,-0.25008422,-0.25204396,-0.2528708,-0.24922681,-0.2441743,-0.23826444,-0.23544723,-0.23798877,-0.24304134,-0.24640965,-0.2483694,-0.24613404,-0.2441743,-0.24304134,-0.24077535,-0.2368558,-0.2312215,-0.22280061,-0.21575773,-0.21266502,-0.21266502,-0.21462476,-0.21603334,-0.21434915,-0.2042135,-0.19015831,-0.17806292,-0.1667943,-0.16201735,-0.16091496,-0.16201735,-0.1654163,-0.17242861,-0.18170685,-0.19098514,-0.20225376,-0.21321619,-0.22672015,-0.2410816,-0.2489512,-0.25146216,-0.25035977,-0.24867564,-0.24922681,-0.25231957,-0.25486112,-0.25259513,-0.24977797,-0.24867564,-0.25118655,-0.25936252,-0.26946747,-0.27256024,-0.25626975,-0.2042135,-0.1032244,0.048657298,0.23599839,0.44048738,0.634596,0.7707381,0.7898766,0.65906227,0.37609088,0.016872287,-0.326025,-0.57580304,-0.70184034,-0.72263217,-0.6700248,-0.5704749,-0.46161616,-0.36540407,-0.29647547,-0.26187342,-0.2506354,-0.24950242,-0.24977797,-0.24500108,-0.23936677,-0.22953731,-0.22249442,-0.21771753,-0.21208322,-0.20252931,-0.19129127,-0.18115562,-0.17356157,-0.16765171,-0.16342592,-0.15779161,-0.15387207,-0.14909518,-0.13951063,-0.12377137,-0.10493916,-0.083841145,-0.071439564,-0.06274301,-0.051474392,-0.032336116,-0.00955385,0.009829402,0.021924853,0.030100703,0.038521647,0.051474452,0.06329417,0.071715,0.073705435,0.07312369,0.06807113,0.05879283,0.046421885,0.028416634,0.00955379,-0.010962427,-0.036286294,-0.062161207,-0.09085339,-0.12040299,-0.14627802,-0.16991764,-0.19156694,-0.2095722,-0.22531158,-0.23936677,-0.24950242,-0.25682092,-0.25963807,-0.26187342,-0.26441503,-0.26778334,-0.27228463,-0.2753774,-0.27736777,-0.27905196,-0.27960312,-0.2810117,-0.28073615,-0.27764338,-0.27314204,-0.26864076,-0.26637477,-0.26527238,-0.2658236,-0.26778334,-0.26836514,-0.2641394,-0.2582295,-0.25372815,-0.25118655,-0.2506354,-0.25259513,-0.24977797,-0.2435925,-0.2410816,-0.24304134,-0.24977797,-0.25737208,-0.26104665,-0.2559635,-0.24500108,-0.234896,-0.22785312,-0.22558719,-0.22812873,-0.22898614,-0.22589338,-0.21967727,-0.21208322,-0.20534647,-0.20197815,-0.199161,-0.19548643,-0.18706554,-0.1794715,-0.17301041,-0.16596752,-0.16005754,-0.15583181,-0.15218788,-0.15696484,-0.16569185,-0.17806292,-0.19129127,-0.2042135,-0.21771753,-0.23039472,-0.24135715,-0.24809384,-0.25204396,-0.25541234,-0.25795394,-0.25991368,-0.25936252,-0.25458556,-0.250911,-0.25008422,-0.25176835,-0.25541234,-0.26245522,-0.26836514,-0.2728665,-0.2585051,-0.20366234,-0.09198642,0.075665236,0.2790519,0.4908595,0.6801604,0.79352045,0.78396666,0.623909,0.32685184,-0.024466455,-0.3496341,-0.57834464,-0.6905717,-0.7074441,-0.6517439,-0.5547049,-0.4461218,-0.35471725,-0.29647547,-0.2706005,-0.265548,-0.2641394,-0.2582295,-0.24809384,-0.2368558,-0.22476041,-0.2171663,-0.21238941,-0.21180761,-0.20871478,-0.20225376,-0.19269991,-0.18424839,-0.18060446,-0.17579693,-0.16961145,-0.16060877,-0.14964634,-0.14290965,-0.13360077,-0.12150538,-0.10549039,-0.08720946,-0.071439564,-0.057384312,-0.045564473,-0.032060564,-0.015739322,0.001408577,0.019413829,0.034020305,0.04302299,0.048381686,0.051474452,0.051474452,0.05092323,0.04528892,0.03573513,0.022506595,0.005634308,-0.01604551,-0.04133874,-0.0689286,-0.09621215,-0.12404692,-0.14909518,-0.172153,-0.19297552,-0.20843923,-0.22307622,-0.23403865,-0.24558288,-0.25486112,-0.263282,-0.26919192,-0.2711823,-0.27004933,-0.26609915,-0.263282,-0.26217967,-0.26159787,-0.2638638,-0.26441503,-0.263282,-0.26245522,-0.2635576,-0.2635576,-0.26300645,-0.26300645,-0.2582295,-0.25427938,-0.25146216,-0.24867564,-0.24668527,-0.24558288,-0.24500108,-0.24500108,-0.24585849,-0.24190831,-0.23909116,-0.23713142,-0.234896,-0.23263007,-0.2286799,-0.22616899,-0.22335184,-0.22417861,-0.22531158,-0.22108585,-0.21434915,-0.20280492,-0.19521087,-0.1938023,-0.196895,-0.20056957,-0.20029396,-0.1938023,-0.18424839,-0.17242861,-0.16201735,-0.1524635,-0.14486945,-0.14232785,-0.14881957,-0.15978199,-0.17438835,-0.18620813,-0.19548643,-0.20507091,-0.21462476,-0.22785312,-0.23854,-0.24613404,-0.2489512,-0.2483694,-0.2441743,-0.24304134,-0.24022418,-0.24249017,-0.24640965,-0.250911,-0.25626975,-0.2635576,-0.27256024,-0.2838289,-0.27960312,-0.24135715,-0.15332091,-0.009860039,0.17524576,0.37382483,0.55893064,0.6984414,0.7429035,0.655694,0.42560554,0.09985602,-0.2343142,-0.50267935,-0.6587868,-0.7057599,-0.67593473,-0.59549254,-0.49395233,-0.39887315,-0.3274336,-0.28747284,-0.27173346,-0.26637477,-0.2641394,-0.25936252,-0.25146216,-0.24190831,-0.23263007,-0.223903,-0.21490037,-0.20816362,-0.1994366,-0.19156694,-0.18648374,-0.18283981,-0.18060446,-0.17692989,-0.16850907,-0.15273911,-0.13672411,-0.123220146,-0.110818565,-0.09958047,-0.08972043,-0.07679826,-0.06470275,-0.05288297,-0.037970424,-0.018280983,0.0019598007,0.020240664,0.034602046,0.044155955,0.049790263,0.053709745,0.05315852,0.04951465,0.041920543,0.032642245,0.020240664,0.0061855316,-0.012095392,-0.036010683,-0.0610283,-0.08635211,-0.1102674,-0.1310898,-0.15160608,-0.17160183,-0.19098514,-0.20758188,-0.22139204,-0.23517162,-0.24668527,-0.25654536,-0.26273084,-0.26469058,-0.2635576,-0.26187342,-0.26187342,-0.2638638,-0.2649662,-0.265548,-0.26637477,-0.2649662,-0.26609915,-0.265548,-0.263282,-0.25878066,-0.25427938,-0.25035977,-0.24585849,-0.24500108,-0.24613404,-0.24640965,-0.24809384,-0.24950242,-0.24781823,-0.24613404,-0.24022418,-0.23740703,-0.23376304,-0.23376304,-0.23517162,-0.23544723,-0.23403865,-0.2343142,-0.23599845,-0.23798877,-0.23768258,-0.23458982,-0.22785312,-0.21998346,-0.2134918,-0.2073062,-0.20338672,-0.20225376,-0.20393789,-0.20534647,-0.20112073,-0.1938023,-0.18088007,-0.16792727,-0.16005754,-0.15469885,-0.15301466,-0.15442324,-0.15920019,-0.16878468,-0.17833847,-0.18678999,-0.19465965,-0.20507091,-0.22221881,-0.24049973,-0.25372815,-0.25654536,-0.25204396,-0.24726707,-0.2441743,-0.24527669,-0.24527669,-0.24077535,-0.23909116,-0.2388156,-0.24304134,-0.25176835,-0.26300645,-0.27004933,-0.253177,-0.19775242,-0.08834249,0.07284808,0.258505,0.44725478,0.61153805,0.7099856,0.69929874,0.54992807,0.2731421,-0.056833148,-0.36090273,-0.5718835,-0.6708822,-0.6818446,-0.6306458,-0.5406498,-0.43966073,-0.3516245,-0.29396456,-0.2689163,-0.2638638,-0.2601893,-0.25427938,-0.24472547,-0.23376304,-0.22476041,-0.21744192,-0.21125644,-0.20589763,-0.20225376,-0.19720125,-0.19015831,-0.18339097,-0.1772055,-0.17074442,-0.16315031,-0.15442324,-0.14401203,-0.13390696,-0.123220146,-0.10940999,-0.09621215,-0.0812996,-0.06666261,-0.054291546,-0.039379,-0.023057878,-0.004776895,0.011237979,0.024466395,0.03515327,0.044737697,0.0545671,0.059619665,0.062161207,0.059619665,0.051749945,0.0413388,0.02728355,0.009278178,-0.014636934,-0.038827837,-0.06329429,-0.0860765,-0.10631716,-0.12600672,-0.14881957,-0.17160183,-0.19239372,-0.21067464,-0.22616899,-0.23768258,-0.24585849,-0.25345254,-0.25626975,-0.25795394,-0.2582295,-0.25626975,-0.2551368,-0.2585051,-0.26469058,-0.2689163,-0.2703249,-0.26695657,-0.26245522,-0.25991368,-0.2607711,-0.263282,-0.26441503,-0.26300645,-0.26132226,-0.25795394,-0.25541234,-0.25400376,-0.253177,-0.25400376,-0.25372815,-0.25400376,-0.25427938,-0.25259513,-0.24809384,-0.2441743,-0.24190831,-0.24022418,-0.23909116,-0.23740703,-0.23458982,-0.23177266,-0.23094589,-0.2292617,-0.22672015,-0.22503597,-0.22081023,-0.2171663,-0.21575773,-0.21517593,-0.2134918,-0.211532,-0.20675504,-0.199161,-0.19043392,-0.18201303,-0.17301041,-0.16315031,-0.157516,-0.1524635,-0.15160608,-0.1580978,-0.16765171,-0.17833847,-0.19015831,-0.20225376,-0.2165845,-0.23094589,-0.24249017,-0.24754262,-0.24754262,-0.24668527,-0.24613404,-0.24726707,-0.24585849,-0.2410816,-0.23994857,-0.24331689,-0.250911,-0.2582295,-0.265548,-0.27173346,-0.27173346,-0.24809384,-0.18029827,-0.054291546,0.12236273,0.32320786,0.52292013,0.68861187,0.7732798,0.73331904,0.5395167,0.22362745,-0.13360077,-0.43910956,-0.6326362,-0.70971,-0.69733906,-0.6233579,-0.52151144,-0.4185626,-0.3344459,-0.2838289,-0.26527238,-0.2635576,-0.26104665,-0.25541234,-0.2441743,-0.22812873,-0.2171663,-0.21321619,-0.21125644,-0.20984781,-0.20507091,-0.1918425,-0.1772055,-0.1673761,-0.16146612,-0.16005754,-0.15892458,-0.15332091,-0.14150107,-0.12713969,-0.11280894,-0.09958047,-0.08861804,-0.07820684,-0.0635699,-0.045840085,-0.025875032,-0.007042885,0.008727074,0.020546913,0.0315094,0.04360473,0.05542457,0.06525397,0.069755316,0.069755316,0.06301856,0.051749945,0.039654613,0.024466395,0.00955379,-0.009278238,-0.03150934,-0.055975735,-0.08102399,-0.10662335,-0.13191658,-0.15359646,-0.17328602,-0.19129127,-0.20620388,-0.22166765,-0.23994857,-0.25400376,-0.2641394,-0.26864076,-0.26637477,-0.2635576,-0.25795394,-0.2551368,-0.25654536,-0.26104665,-0.26609915,-0.26864076,-0.2635576,-0.25737208,-0.25146216,-0.24977797,-0.25118655,-0.25458556,-0.25709653,-0.25682092,-0.25486112,-0.25345254,-0.24781823,-0.24276572,-0.2410816,-0.2435925,-0.24640965,-0.2489512,-0.24613404,-0.2388156,-0.23376304,-0.23008847,-0.2292617,-0.23067027,-0.23008847,-0.22812873,-0.22757757,-0.22699577,-0.22558719,-0.22589338,-0.22503597,-0.22362739,-0.22081023,-0.21998346,-0.2165845,-0.2095722,-0.20366234,-0.199161,-0.1994366,-0.20338672,-0.20534647,-0.20197815,-0.19098514,-0.17806292,-0.16483456,-0.15160608,-0.14260346,-0.13699973,-0.132774,-0.13418257,-0.13951063,-0.14881957,-0.16370153,-0.17919588,-0.19579268,-0.21039903,-0.22194326,-0.23235446,-0.23798877,-0.2368558,-0.23599845,-0.23235446,-0.23207885,-0.23348743,-0.23572278,-0.23909116,-0.24218392,-0.24500108,-0.2489512,-0.25427938,-0.25991368,-0.2489512,-0.199161,-0.097620726,0.059925914,0.25259507,0.4568087,0.6497841,0.7881923,0.81743586,0.6964816,0.41801143,0.052025557,-0.30324286,-0.5653918,-0.6964816,-0.71840644,-0.66555405,-0.57075053,-0.46498454,-0.36904794,-0.30097687,-0.26750773,-0.2585051,-0.25709653,-0.25146216,-0.23994857,-0.22672015,-0.21548218,-0.21067464,-0.20816362,-0.20675504,-0.20280492,-0.19352669,-0.18002266,-0.16624314,-0.15610743,-0.15218788,-0.1524635,-0.14992195,-0.14122546,-0.12686408,-0.113084555,-0.10071343,-0.089169264,-0.07707387,-0.060201466,-0.0399608,-0.021373749,-0.0022659898,0.010135651,0.021924853,0.034877658,0.049790263,0.06470275,0.07511413,0.08016658,0.08185077,0.08102405,0.07848239,0.07257259,0.06075263,0.042196155,0.020240664,-0.003368318,-0.028416634,-0.053740382,-0.07903361,-0.10071343,-0.12377137,-0.14569622,-0.16624314,-0.18819857,-0.2073062,-0.22221881,-0.23149705,-0.23403865,-0.2343142,-0.23348743,-0.234896,-0.23994857,-0.24500108,-0.24640965,-0.24668527,-0.24304134,-0.2410816,-0.24077535,-0.24135715,-0.2435925,-0.2441743,-0.2441743,-0.24276572,-0.23798877,-0.23458982,-0.23207885,-0.2312215,-0.23376304,-0.2343142,-0.23207885,-0.22699577,-0.22335184,-0.22194326,-0.22194326,-0.22166765,-0.2188505,-0.2140736,-0.21321619,-0.21603334,-0.21998346,-0.22249442,-0.22081023,-0.2191261,-0.22108585,-0.22280061,-0.22558719,-0.22531158,-0.22249442,-0.22025907,-0.21630895,-0.2134918,-0.21321619,-0.21434915,-0.21744192,-0.21744192,-0.2140736,-0.2095722,-0.20871478,-0.21125644,-0.21039903,-0.20647949,-0.19998777,-0.1938023,-0.19211811,-0.19269991,-0.19239372,-0.18734115,-0.18115562,-0.17129558,-0.15837342,-0.14627802,-0.13586676,-0.13023245,-0.13164103,-0.13981688,-0.1524635,-0.1667943,-0.1794715,-0.1918425,-0.20393789,-0.21548218,-0.22727132,-0.234896,-0.2368558,-0.23458982,-0.23235446,-0.23177266,-0.23207885,-0.23318124,-0.23207885,-0.2312215,-0.23458982,-0.24331689,-0.25709653,-0.27087605,-0.26469058,-0.21940166,-0.1156261,0.045840144,0.24555218,0.45935023,0.65511227,0.7892946,0.81039286,0.6801604,0.40141463,0.046421885,-0.29338276,-0.5434669,-0.67510796,-0.70716846,-0.6686468,-0.58367276,-0.47821295,-0.37749946,-0.30406958,-0.26609915,-0.25767833,-0.26217967,-0.2649662,-0.25936252,-0.24699146,-0.23177266,-0.22166765,-0.21208322,-0.20393789,-0.19830358,-0.19352669,-0.19070953,-0.18734115,-0.17919588,-0.16792727,-0.15610743,-0.14881957,-0.14260346,-0.13614231,-0.130508,-0.11954564,-0.10604155,-0.091129005,-0.07312369,-0.05484271,-0.036561847,-0.018556595,-0.001408577,0.012922168,0.022506595,0.028967738,0.036561847,0.04724872,0.057384253,0.061609983,0.061028242,0.052025557,0.04274738,0.03319347,0.018556476,-0.002541542,-0.027283609,-0.05288297,-0.07679826,-0.09676331,-0.11703467,-0.13923508,-0.16060877,-0.1794715,-0.19579268,-0.21012342,-0.22280061,-0.23599845,-0.24500108,-0.253177,-0.2585051,-0.26245522,-0.2658236,-0.26723218,-0.26609915,-0.2649662,-0.26217967,-0.25767833,-0.253177,-0.25035977,-0.24922681,-0.2506354,-0.2528708,-0.25541234,-0.25541234,-0.25231957,-0.24781823,-0.2435925,-0.24190831,-0.2441743,-0.2483694,-0.25035977,-0.24754262,-0.2410816,-0.23403865,-0.22953731,-0.22812873,-0.23094589,-0.23235446,-0.23177266,-0.22953731,-0.22616899,-0.223903,-0.22531158,-0.22812873,-0.23008847,-0.23149705,-0.23008847,-0.22898614,-0.22840434,-0.2292617,-0.22981292,-0.23149705,-0.2343142,-0.2368558,-0.23768258,-0.2365802,-0.23376304,-0.23263007,-0.23149705,-0.23149705,-0.23039472,-0.22644454,-0.2244848,-0.21998346,-0.21490037,-0.21125644,-0.2042135,-0.1994366,-0.19720125,-0.19661945,-0.20029396,-0.20029396,-0.1943841,-0.18283981,-0.16906029,-0.15387207,-0.14600241,-0.14401203,-0.14796215,-0.15724039,-0.17019325,-0.18369722,-0.19269991,-0.1994366,-0.2047953,-0.21012342,-0.2171663,-0.22417861,-0.2312215,-0.234896,-0.2343142,-0.22981292,-0.22531158,-0.22699577,-0.23458982,-0.2435925,-0.24809384,-0.24640965,-0.24527669,-0.24950242,-0.24049973,-0.19521087,-0.093394995,0.07030654,0.2675078,0.47144556,0.65287685,0.7645527,0.76145995,0.6140491,0.33221054,-0.006185472,-0.3203907,-0.5462841,-0.6613283,-0.6855192,-0.6407814,-0.55188775,-0.4486634,-0.35471725,-0.29169858,-0.2585051,-0.24527669,-0.24249017,-0.23936677,-0.2365802,-0.23177266,-0.2244848,-0.21379799,-0.20338672,-0.19493526,-0.19015831,-0.18874973,-0.18283981,-0.17328602,-0.16342592,-0.15332091,-0.14569622,-0.14290965,-0.13810205,-0.15696484,-0.21998346,-0.25458556,-0.263282,-0.21548218,-0.12600672,-0.04755491,-0.010135651,-0.00027561188,0.003950119,0.016321063,0.032642245,0.05119884,0.06442714,0.07257259,0.07594085,0.07621646,0.07425666,0.06807113,0.06243682,0.053434134,0.0413388,0.024742007,0.0022352934,-0.026732445,-0.05542457,-0.07903361,-0.09958047,-0.11954564,-0.13895947,-0.16315031,-0.18678999,-0.2047953,-0.21575773,-0.22081023,-0.22307622,-0.22503597,-0.2292617,-0.2343142,-0.2365802,-0.23826444,-0.23909116,-0.24135715,-0.24276572,-0.24500108,-0.2441743,-0.24276572,-0.24077535,-0.23967302,-0.23909116,-0.23967302,-0.24049973,-0.24022418,-0.23909116,-0.23740703,-0.23572278,-0.2343142,-0.23235446,-0.22757757,-0.22589338,-0.22335184,-0.21998346,-0.21799308,-0.21603334,-0.21771753,-0.223903,-0.23008847,-0.23348743,-0.2312215,-0.22616899,-0.22194326,-0.22053468,-0.21799308,-0.21603334,-0.21462476,-0.21321619,-0.21462476,-0.2165845,-0.2191261,-0.22108585,-0.22249442,-0.22249442,-0.22249442,-0.22335184,-0.2244848,-0.22503597,-0.22503597,-0.22280061,-0.22249442,-0.22558719,-0.23067027,-0.23599845,-0.23713142,-0.2365802,-0.23290563,-0.22672015,-0.22280061,-0.2171663,-0.21067464,-0.2095722,-0.20899045,-0.20620388,-0.20507091,-0.20338672,-0.20252931,-0.20252931,-0.20393789,-0.19971216,-0.1943841,-0.19098514,-0.1898827,-0.1898827,-0.19156694,-0.19239372,-0.19043392,-0.18847412,-0.18593258,-0.1825642,-0.18201303,-0.18339097,-0.1825642,-0.17833847,-0.17497015,-0.17497015,-0.18002266,-0.18565696,-0.18847412,-0.18648374,-0.18060446,-0.17383718,-0.16961145,-0.16315031,-0.15724039,-0.1524635,-0.1476866,-0.14459383,-0.14290965,-0.13951063,-0.13332516,-0.124904335,-0.11645287,-0.10803193,-0.10013163,-0.091129005,-0.083841145,-0.08185077,-0.08889365,-0.10267323,-0.11927003,-0.13081425,-0.13810205,-0.14401203,-0.14600241,-0.15359646,-0.16119057,-0.16710049,-0.17129558,-0.172153,-0.17046887,-0.16961145,-0.16991764,-0.17160183,-0.17356157,-0.17861408,-0.184524,-0.18678999,-0.17579693,-0.13222283,-0.04697305,0.089169264,0.26132214,0.4534403,0.64751816,0.80083907,0.8599075,0.77860796,0.5426096,0.20562196,-0.14459383,-0.42251277,-0.5822642,-0.6343204,-0.6028111,-0.516459,-0.41546988,-0.3223505,-0.25682092,-0.22221881,-0.20899045,-0.20393789,-0.19971216,-0.19098514,-0.18115562,-0.1746946,-0.16765171,-0.16428328,-0.15724039,-0.14401203,-0.13222283,-0.12658852,-0.12658852,-0.12600672,-0.12236279,-0.111124754,-0.09621215,-0.08466792,-0.075665295,-0.06693822,-0.05906844,-0.04893285,-0.038552225,-0.027008057,-0.013779581,0.0019598007,0.02137363,0.040511966,0.055700183,0.07061267,0.08240199,0.095354795,0.10940993,0.11868811,0.12432253,0.1240468,0.12040293,0.114768624,0.10772574,0.09958053,0.08999598,0.0782069,0.05906844,0.034326553,0.002541542,-0.028416634,-0.054015994,-0.072021365,-0.08803624,-0.10212201,-0.11982119,-0.14122546,-0.1622929,-0.18029827,-0.19211811,-0.19857919,-0.20029396,-0.20139635,-0.20507091,-0.20788807,-0.21012342,-0.2095722,-0.20871478,-0.20871478,-0.20929664,-0.20984781,-0.20647949,-0.19888538,-0.19239372,-0.18593258,-0.18565696,-0.18847412,-0.18930095,-0.18874973,-0.18620813,-0.18339097,-0.18170685,-0.18339097,-0.18397284,-0.18311542,-0.1825642,-0.17861408,-0.17637873,-0.1772055,-0.1794715,-0.18397284,-0.1876167,-0.18789238,-0.18565696,-0.1825642,-0.17579693,-0.17187744,-0.17046887,-0.17046887,-0.17160183,-0.17356157,-0.17524576,-0.17524576,-0.17411274,-0.17356157,-0.17160183,-0.172153,-0.17383718,-0.17637873,-0.17806292,-0.17751175,-0.17833847,-0.1777873,-0.17579693,-0.17356157,-0.16792727,-0.16878468,-0.17074442,-0.17497015,-0.17833847,-0.1772055,-0.17411274,-0.17160183,-0.16878468,-0.16878468,-0.16961145,-0.17129558,-0.1746946,-0.17692989,-0.17411274,-0.17019325,-0.16765171,-0.1673761,-0.16961145,-0.17074442,-0.17046887,-0.16342592,-0.15528065,-0.14682919,-0.13981688,-0.13586676,-0.13614231,-0.13810205,-0.13586676,-0.1330496,-0.12772149,-0.11786145,-0.10858309,-0.095354736,-0.083841145,-0.07511413,-0.07312369,-0.08185077,-0.09480357,-0.10858309,-0.11927003,-0.12631291,-0.13081425,-0.13810205,-0.14964634,-0.16259915,-0.17242861,-0.17919588,-0.18002266,-0.17637873,-0.17356157,-0.17187744,-0.17328602,-0.17974705,-0.18201303,-0.18283981,-0.18706554,-0.19493526,-0.19998777,-0.18339097,-0.12404692,-0.009278238,0.15809774,0.3527267,0.55752206,0.7434547,0.85709035,0.8469548,0.68297756,0.38368487,0.028967738,-0.29142296,-0.5127844,-0.61855036,-0.63009465,-0.57497627,-0.48409224,-0.38536912,-0.2976085,-0.23994857,-0.21208322,-0.20170254,-0.20170254,-0.20029396,-0.19325107,-0.18228865,-0.17046887,-0.16259915,-0.15837342,-0.15610743,-0.15387207,-0.14881957,-0.14009249,-0.12772149,-0.11590171,-0.10631716,-0.10212201,-0.09958047,-0.09817189,-0.09253758,-0.08212638,-0.06807119,-0.05315858,-0.038552225,-0.023639679,-0.008727074,0.00955379,0.024742007,0.038521647,0.05119884,0.062161207,0.07511413,0.08861804,0.097038865,0.10350001,0.10549033,0.104908586,0.10071349,0.08861804,0.07284808,0.057659864,0.040787578,0.024190784,0.007869601,-0.013228357,-0.038552225,-0.06525403,-0.091710806,-0.1156261,-0.13727534,-0.15555626,-0.17160183,-0.18538141,-0.19493526,-0.20084518,-0.20675504,-0.21208322,-0.2165845,-0.22108585,-0.22503597,-0.22812873,-0.2312215,-0.23067027,-0.22757757,-0.22531158,-0.22221881,-0.22081023,-0.21967727,-0.21799308,-0.21689075,-0.21857488,-0.22081023,-0.22053468,-0.21829933,-0.211532,-0.20758188,-0.20703065,-0.2095722,-0.21266502,-0.21238941,-0.20816362,-0.20112073,-0.19720125,-0.19720125,-0.1974768,-0.1974768,-0.196895,-0.19720125,-0.199161,-0.20338672,-0.20703065,-0.20899045,-0.20534647,-0.20056957,-0.19521087,-0.19043392,-0.18960714,-0.19239372,-0.19830358,-0.20112073,-0.20252931,-0.19998777,-0.19830358,-0.19971216,-0.19998777,-0.20029396,-0.19888538,-0.19634384,-0.19465965,-0.19352669,-0.19043392,-0.18369722,-0.18228865,-0.18424839,-0.18228865,-0.18029827,-0.17356157,-0.1654163,-0.16400772,-0.16596752,-0.16991764,-0.16933584,-0.16146612,-0.14851338,-0.13222283,-0.11449313,-0.10408181,-0.10043788,-0.1032244,-0.11421752,-0.12968123,-0.14431822,-0.15892458,-0.1673761,-0.1746946,-0.18143123,-0.18847412,-0.19579268,-0.19888538,-0.19579268,-0.19325107,-0.19297552,-0.19548643,-0.20112073,-0.20534647,-0.20675504,-0.20899045,-0.21744192,-0.22785312,-0.22139204,-0.18002266,-0.089444816,0.055700183,0.23599839,0.42670798,0.60758793,0.7414949,0.7738309,0.6711577,0.42615664,0.09731448,-0.23008847,-0.47989708,-0.61913216,-0.66215515,-0.6331874,-0.55697095,-0.45766604,-0.3600453,-0.28410453,-0.2435925,-0.2286799,-0.22558719,-0.22531158,-0.22108585,-0.21208322,-0.20225376,-0.19465965,-0.18734115,-0.18088007,-0.17637873,-0.16991764,-0.16315031,-0.15555626,-0.14909518,-0.14459383,-0.13951063,-0.13081425,-0.11954564,-0.10745013,-0.0964877,-0.09057784,-0.08494353,-0.076247096,-0.062161207,-0.046146333,-0.028692186,-0.011544228,0.005634308,0.023915172,0.04106319,0.05821109,0.06862223,0.077349424,0.085800886,0.091128945,0.09480357,0.09140456,0.08270812,0.06920409,0.05315852,0.034877658,0.010962367,-0.015188158,-0.040787578,-0.065529644,-0.09057784,-0.11590171,-0.14150107,-0.16596752,-0.18734115,-0.20448905,-0.2171663,-0.22616899,-0.22981292,-0.23348743,-0.23798877,-0.24163276,-0.24558288,-0.24726707,-0.24754262,-0.24500108,-0.24218392,-0.24077535,-0.2410816,-0.24585849,-0.25035977,-0.25176835,-0.2506354,-0.24668527,-0.24386811,-0.2441743,-0.24640965,-0.24809384,-0.24527669,-0.23854,-0.23318124,-0.23290563,-0.23517162,-0.23854,-0.23826444,-0.23290563,-0.22812873,-0.22476041,-0.22108585,-0.21744192,-0.21490037,-0.2188505,-0.22335184,-0.22785312,-0.23008847,-0.22840434,-0.22616899,-0.22362739,-0.2191261,-0.21548218,-0.2165845,-0.21967727,-0.22417861,-0.22589338,-0.22249442,-0.2165845,-0.21321619,-0.21012342,-0.20816362,-0.20675504,-0.2047953,-0.20225376,-0.19830358,-0.19493526,-0.19269991,-0.19043392,-0.18565696,-0.17806292,-0.16991764,-0.16146612,-0.15500504,-0.14823776,-0.14122546,-0.13445818,-0.13249838,-0.13810205,-0.14937073,-0.1628747,-0.17861408,-0.1918425,-0.20280492,-0.21180761,-0.21967727,-0.22221881,-0.22280061,-0.22194326,-0.2191261,-0.21998346,-0.22417861,-0.22727132,-0.22644454,-0.22194326,-0.21967727,-0.22081023,-0.2292617,-0.23967302,-0.22476041,-0.17019325,-0.06274301,0.09676337,0.28719723,0.4829898,0.6593379,0.77297366,0.7707381,0.62305176,0.337263,-0.0073184967,-0.3277092,-0.5527452,-0.6607466,-0.67452615,-0.62054074,-0.52405304,-0.41773587,-0.32853603,-0.26946747,-0.24249017,-0.23039472,-0.22558719,-0.22307622,-0.22053468,-0.21857488,-0.2095722,-0.19661945,-0.18339097,-0.1746946,-0.16961145,-0.16483456,-0.16146612,-0.15359646,-0.1471048,-0.14232785,-0.13614231,-0.1330496,-0.12772149,-0.118412614,-0.10463297,-0.08834249,-0.07342994,-0.063845456,-0.055700123,-0.044155896,-0.028692186,-0.009860039,0.010686755,0.028141022,0.04332912,0.058517337,0.07030654,0.079309225,0.086903214,0.089444876,0.09030223,0.08439231,0.07453215,0.06075263,0.044155955,0.025875092,0.003950119,-0.021649301,-0.04697305,-0.06920421,-0.087485075,-0.10463297,-0.12686408,-0.14964634,-0.17102003,-0.18930095,-0.20197815,-0.21012342,-0.21744192,-0.22108585,-0.22280061,-0.223903,-0.22558719,-0.22812873,-0.22757757,-0.22531158,-0.22249442,-0.22139204,-0.2244848,-0.23094589,-0.23403865,-0.23517162,-0.23318124,-0.22953731,-0.22616899,-0.22362739,-0.22166765,-0.22249442,-0.22589338,-0.2286799,-0.22812873,-0.22362739,-0.21744192,-0.21266502,-0.21039903,-0.211532,-0.21208322,-0.21294057,-0.21238941,-0.20984781,-0.20816362,-0.20534647,-0.20280492,-0.20225376,-0.20393789,-0.20589763,-0.20984781,-0.21462476,-0.21575773,-0.2171663,-0.2134918,-0.20871478,-0.20448905,-0.20534647,-0.20647949,-0.20647949,-0.2047953,-0.20084518,-0.19661945,-0.19325107,-0.18734115,-0.18143123,-0.1777873,-0.17579693,-0.1772055,-0.17497015,-0.17074442,-0.16342592,-0.15218788,-0.14122546,-0.12913007,-0.12236279,-0.12040299,-0.12573111,-0.13586676,-0.14823776,-0.16174173,-0.17751175,-0.19239372,-0.20589763,-0.21490037,-0.21744192,-0.21799308,-0.21857488,-0.22139204,-0.2244848,-0.22531158,-0.223903,-0.22108585,-0.22081023,-0.22307622,-0.22812873,-0.23572278,-0.24386811,-0.24249017,-0.21462476,-0.14373642,-0.022782326,0.14569616,0.33671188,0.5319227,0.69929874,0.7904277,0.7597759,0.5783446,0.2734176,-0.076247096,-0.38650215,-0.5921242,-0.68242645,-0.680436,-0.61377347,-0.5144992,-0.41069293,-0.3274336,-0.27314204,-0.25035977,-0.24386811,-0.24022418,-0.236274,-0.22672015,-0.21490037,-0.20620388,-0.19971216,-0.19410849,-0.19070953,-0.18143123,-0.172153,-0.16596752,-0.15978199,-0.15414768,-0.14992195,-0.1431852,-0.13559115,-0.12854826,-0.116728485,-0.10435736,-0.09057784,-0.07820684,-0.065529644,-0.050341427,-0.034326494,-0.018862784,-0.003368318,0.010135651,0.023057818,0.03769481,0.054291606,0.06580508,0.07594085,0.08466792,0.0880363,0.08720946,0.08270812,0.07312369,0.059619665,0.043880343,0.026426196,0.0022352934,-0.026732445,-0.05456716,-0.081575155,-0.107174516,-0.12968123,-0.15105492,-0.17187744,-0.19297552,-0.20984781,-0.22249442,-0.23149705,-0.23544723,-0.23544723,-0.23854,-0.24190831,-0.24386811,-0.24585849,-0.24754262,-0.24613404,-0.24331689,-0.24331689,-0.24558288,-0.25118655,-0.25878066,-0.26159787,-0.25795394,-0.25008422,-0.24304134,-0.23936677,-0.23909116,-0.23826444,-0.236274,-0.234896,-0.23544723,-0.23826444,-0.23994857,-0.23936677,-0.2365802,-0.2312215,-0.22644454,-0.223903,-0.22166765,-0.22362739,-0.22812873,-0.22898614,-0.22898614,-0.22503597,-0.22166765,-0.22166765,-0.22503597,-0.22840434,-0.22699577,-0.22503597,-0.22194326,-0.21857488,-0.21575773,-0.20984781,-0.20225376,-0.19606823,-0.19269991,-0.19352669,-0.19410849,-0.19548643,-0.19720125,-0.19521087,-0.18593258,-0.172153,-0.16091496,-0.1507793,-0.14569622,-0.14569622,-0.14373642,-0.14542061,-0.14909518,-0.15724039,-0.17019325,-0.184524,-0.199161,-0.21321619,-0.22249442,-0.22362739,-0.22531158,-0.22558719,-0.22727132,-0.234896,-0.24022418,-0.24190831,-0.2388156,-0.23458982,-0.22981292,-0.23207885,-0.23994857,-0.25146216,-0.2590869,-0.24386811,-0.18874973,-0.08102399,0.079309225,0.27200902,0.4739871,0.65851116,0.7814251,0.78761053,0.6444254,0.36117828,0.012370944,-0.31843096,-0.5538782,-0.670331,-0.69170475,-0.6424656,-0.55106103,-0.4483878,-0.35949415,-0.29647547,-0.26159787,-0.24585849,-0.23740703,-0.23318124,-0.23067027,-0.22672015,-0.21771753,-0.20929664,-0.20197815,-0.19548643,-0.18960714,-0.18115562,-0.16933584,-0.1628747,-0.15920019,-0.15583181,-0.14851338,-0.13810205,-0.12940568,-0.12349576,-0.11954564,-0.11280894,-0.0990293,-0.08044219,-0.06497848,-0.05092323,-0.036010683,-0.020240724,-0.00364393,0.015739322,0.036010623,0.053709745,0.066111326,0.07284808,0.07116389,0.06807113,0.06666255,0.06807113,0.067213655,0.0545671,0.03346908,0.0064610243,-0.023364127,-0.047830462,-0.06862241,-0.089169264,-0.110818565,-0.13390696,-0.15469885,-0.17579693,-0.19465965,-0.20589763,-0.21490037,-0.22166765,-0.22840434,-0.23798877,-0.24699146,-0.24977797,-0.24781823,-0.24304134,-0.23967302,-0.2388156,-0.2368558,-0.23798877,-0.24218392,-0.24472547,-0.2489512,-0.24977797,-0.24640965,-0.24249017,-0.24077535,-0.23967302,-0.24077535,-0.24077535,-0.23936677,-0.2368558,-0.2343142,-0.23290563,-0.22981292,-0.22672015,-0.22221881,-0.22221881,-0.22417861,-0.22727132,-0.22727132,-0.22417861,-0.21857488,-0.21548218,-0.2140736,-0.21548218,-0.21744192,-0.21744192,-0.21266502,-0.2095722,-0.20929664,-0.20871478,-0.21039903,-0.20984781,-0.20589763,-0.19830358,-0.19098514,-0.1851058,-0.17974705,-0.17692989,-0.172153,-0.16483456,-0.15583181,-0.14741099,-0.14486945,-0.14486945,-0.14627802,-0.14937073,-0.15469885,-0.16511011,-0.17919588,-0.19548643,-0.2095722,-0.2191261,-0.22476041,-0.22727132,-0.22953731,-0.2292617,-0.23039472,-0.22953731,-0.22812873,-0.22785312,-0.23149705,-0.23854,-0.24249017,-0.24386811,-0.24249017,-0.24218392,-0.23768258,-0.20929664,-0.1378265,-0.012095392,0.15864897,0.35049152,0.537557,0.6855192,0.74850726,0.681569,0.46694422,0.15273905,-0.18201303,-0.4551245,-0.61576384,-0.6725664,-0.649233,-0.57384324,-0.47707993,-0.3797348,-0.30465144,-0.2641394,-0.24809384,-0.24386811,-0.23994857,-0.23039472,-0.21967727,-0.2095722,-0.20393789,-0.1994366,-0.19239372,-0.18706554,-0.17751175,-0.16765171,-0.16174173,-0.15583181,-0.15191233,-0.14600241,-0.13727534,-0.12772149,-0.12291396,-0.11758584,-0.11054295,-0.097620726,-0.077625036,-0.057935476,-0.043880343,-0.030651987,-0.016321123,0.0022352934,0.019965053,0.037143707,0.052025557,0.06412101,0.07511413,0.08298373,0.087485075,0.08662772,0.08212638,0.07257259,0.058517337,0.044155955,0.029518962,0.012922168,-0.008451462,-0.034326494,-0.064151585,-0.09057784,-0.11363572,-0.13445818,-0.1524635,-0.17129558,-0.18678999,-0.19888538,-0.20816362,-0.21434915,-0.21967727,-0.22362739,-0.22727132,-0.2286799,-0.22840434,-0.22981292,-0.22727132,-0.22644454,-0.22417861,-0.22335184,-0.22672015,-0.23039472,-0.23177266,-0.22727132,-0.22221881,-0.2188505,-0.2165845,-0.21630895,-0.21744192,-0.21517593,-0.21208322,-0.20929664,-0.20448905,-0.20225376,-0.20197815,-0.20366234,-0.2042135,-0.20225376,-0.19802803,-0.19521087,-0.19239372,-0.19156694,-0.1898827,-0.18902534,-0.18930095,-0.18789238,-0.18593258,-0.18228865,-0.17861408,-0.17665434,-0.17579693,-0.17579693,-0.17411274,-0.16878468,-0.16060877,-0.15414768,-0.15105492,-0.15359646,-0.15837342,-0.15864897,-0.15191233,-0.14036804,-0.12686408,-0.111400366,-0.09731448,-0.08720946,-0.083534956,-0.087485075,-0.09676331,-0.10631716,-0.111400366,-0.11954564,-0.12968123,-0.1431852,-0.15779161,-0.1667943,-0.17301041,-0.17579693,-0.17579693,-0.17637873,-0.17579693,-0.17438835,-0.17301041,-0.17383718,-0.17552131,-0.17919588,-0.18339097,-0.18789238,-0.19325107,-0.19579268,-0.18029827,-0.12968123,-0.03150934,0.1200968,0.30661118,0.50659883,0.69198024,0.8171601,0.834308,0.70520866,0.4362923,0.097038865,-0.22672015,-0.4678017,-0.5949414,-0.6247666,-0.5822642,-0.49168634,-0.38592035,-0.29224974,-0.22757757,-0.19521087,-0.184524,-0.18060446,-0.17833847,-0.17356157,-0.16342592,-0.1507793,-0.14346087,-0.13951063,-0.13531554,-0.12968123,-0.11758584,-0.10604155,-0.10154021,-0.099304855,-0.09452796,-0.08635211,-0.07257253,-0.057935476,-0.049790263,-0.043053567,-0.03405094,-0.022506714,-0.008451462,0.010135651,0.026732326,0.041920543,0.056833148,0.07229698,0.086903214,0.10212207,0.118994474,0.13445818,0.14428759,0.1499219,0.15246344,0.14937067,0.14569616,0.13895953,0.1274153,0.113084435,0.09676337,0.077625036,0.055700183,0.030376315,0.0016841888,-0.024742067,-0.047830462,-0.06807119,-0.08494353,-0.103530586,-0.12208718,-0.13360077,-0.14150107,-0.14627802,-0.14964634,-0.15528065,-0.16201735,-0.16342592,-0.16033316,-0.16005754,-0.16146612,-0.1667943,-0.17187744,-0.17102003,-0.16259915,-0.15610743,-0.1524635,-0.15414768,-0.1580978,-0.15950638,-0.15583181,-0.15050375,-0.14401203,-0.14036804,-0.1384083,-0.13981688,-0.14260346,-0.14542061,-0.14655358,-0.14459383,-0.14009249,-0.1330496,-0.12772149,-0.12573111,-0.12517995,-0.1274153,-0.13023245,-0.13164103,-0.13136542,-0.13081425,-0.130508,-0.1274153,-0.12600672,-0.12573111,-0.1254555,-0.12517995,-0.12517995,-0.122638345,-0.11813706,-0.11391133,-0.109134376,-0.10576594,-0.103530586,-0.102948785,-0.10098904,-0.098723054,-0.09311938,-0.08693391,-0.077625036,-0.06752002,-0.0565269,-0.048106074,-0.04164499,-0.039379,-0.04360473,-0.05119884,-0.060201466,-0.07061279,-0.0807178,-0.09480357,-0.10940999,-0.12349576,-0.132774,-0.13672411,-0.13614231,-0.13559115,-0.13672411,-0.13249838,-0.13081425,-0.13222283,-0.13136542,-0.13500935,-0.1384083,-0.14260346,-0.15273911,-0.16174173,-0.15105492,-0.1038062,-0.00364393,0.15077925,0.3428973,0.5473864,0.7420461,0.8810055,0.90743184,0.78957045,0.5223689,0.17187738,-0.17019325,-0.4281165,-0.56370765,-0.591573,-0.5462841,-0.45711488,-0.35385984,-0.25878066,-0.18902534,-0.15133053,-0.14177662,-0.14459383,-0.14937073,-0.14741099,-0.13868392,-0.12573111,-0.113084555,-0.1038062,-0.098723054,-0.09621215,-0.09226197,-0.08861804,-0.08185077,-0.073705554,-0.062161207,-0.052331805,-0.044431508,-0.038246036,-0.03545952,-0.030958176,-0.019965172,-0.005358696,0.00955379,0.026426196,0.04302299,0.057659864,0.072021246,0.087485075,0.10350001,0.12150526,0.13782644,0.14710474,0.15105486,0.15077925,0.1499219,0.15273905,0.15528059,0.15246344,0.14428759,0.12291396,0.097038865,0.07003093,0.047524214,0.029825091,0.013779521,-0.0073184967,-0.034326494,-0.0610283,-0.08411676,-0.1038062,-0.115044296,-0.12658852,-0.1384083,-0.14851338,-0.15724039,-0.16483456,-0.16765171,-0.1622929,-0.15528065,-0.15050375,-0.15301466,-0.15920019,-0.1673761,-0.17074442,-0.16624314,-0.15950638,-0.15668923,-0.15583181,-0.15892458,-0.1654163,-0.16820288,-0.1667943,-0.16259915,-0.15864897,-0.15528065,-0.1507793,-0.1476866,-0.1431852,-0.14009249,-0.14009249,-0.14205223,-0.14431822,-0.145145,-0.145145,-0.14486945,-0.14401203,-0.14290965,-0.14373642,-0.14431822,-0.1471048,-0.1507793,-0.14937073,-0.14569622,-0.13755089,-0.12968123,-0.12631291,-0.123220146,-0.12432253,-0.12291396,-0.118994415,-0.117310286,-0.116728485,-0.11871886,-0.11786145,-0.111400366,-0.10181582,-0.08834249,-0.07398111,-0.06243682,-0.05484271,-0.055975735,-0.06693822,-0.083534956,-0.09985608,-0.11336011,-0.124904335,-0.13586676,-0.14655358,-0.15332091,-0.15779161,-0.16315031,-0.1673761,-0.16933584,-0.16906029,-0.16511011,-0.1622929,-0.16259915,-0.16428328,-0.16569185,-0.16933584,-0.17665434,-0.18538141,-0.18060446,-0.14205223,-0.05315858,0.093394995,0.27847016,0.4776311,0.66383934,0.7957865,0.82698953,0.7229078,0.47481394,0.14459383,-0.18678999,-0.43993634,-0.5752518,-0.6092721,-0.56876016,-0.4855008,-0.39014608,-0.30379403,-0.23740703,-0.20029396,-0.18311542,-0.17665434,-0.1746946,-0.17074442,-0.16315031,-0.15641361,-0.1471048,-0.13727534,-0.12854826,-0.117310286,-0.10830754,-0.10267323,-0.099304855,-0.0964877,-0.09422177,-0.09085339,-0.08466792,-0.07483852,-0.059925854,-0.046421885,-0.03769487,-0.032060564,-0.028141022,-0.018556595,-0.0016841888,0.01968944,0.038827777,0.055700183,0.07030654,0.08720946,0.10350001,0.114768624,0.12208724,0.1234957,0.12377119,0.12122965,0.114768624,0.10350001,0.08999598,0.07790065,0.06666255,0.05061698,0.027007937,-0.0016841888,-0.03346914,-0.0635699,-0.08889365,-0.10858309,-0.12686408,-0.13810205,-0.14823776,-0.157516,-0.16792727,-0.17861408,-0.18678999,-0.19156694,-0.1918425,-0.19043392,-0.19043392,-0.1898827,-0.19352669,-0.19634384,-0.19888538,-0.19888538,-0.19548643,-0.1918425,-0.19043392,-0.1943841,-0.1974768,-0.1994366,-0.199161,-0.1974768,-0.19352669,-0.19043392,-0.18648374,-0.18311542,-0.17974705,-0.1777873,-0.1772055,-0.17610317,-0.17888969,-0.18311542,-0.18424839,-0.1794715,-0.17356157,-0.16710049,-0.16370153,-0.16651869,-0.17356157,-0.17692989,-0.17888969,-0.17861408,-0.17610317,-0.17411274,-0.17497015,-0.17579693,-0.17637873,-0.17438835,-0.17129558,-0.16624314,-0.15779161,-0.15301466,-0.1501975,-0.15105492,-0.15301466,-0.15442324,-0.14937073,-0.14064366,-0.12995684,-0.118412614,-0.10940999,-0.10212201,-0.10043788,-0.1032244,-0.11167598,-0.12291396,-0.13332516,-0.14177662,-0.15301466,-0.16259915,-0.17328602,-0.18228865,-0.18593258,-0.18734115,-0.18706554,-0.18819857,-0.1898827,-0.19098514,-0.19211811,-0.19239372,-0.19521087,-0.19888538,-0.20112073,-0.20758188,-0.21379799,-0.21098077,-0.18060446,-0.10463297,0.031233788,0.20926595,0.4045074,0.5876229,0.72263217,0.7662369,0.6835288,0.46158552,0.1482377,-0.17497015,-0.43430203,-0.58339715,-0.6315032,-0.6070368,-0.53418875,-0.44051814,-0.3493585,-0.27736777,-0.23854,-0.22362739,-0.21771753,-0.21321619,-0.20308048,-0.19239372,-0.18648374,-0.18170685,-0.18060446,-0.1777873,-0.17046887,-0.16146612,-0.15469885,-0.14964634,-0.145145,-0.14036804,-0.13360077,-0.12517995,-0.11786145,-0.111124754,-0.10267323,-0.09030223,-0.07707387,-0.06666261,-0.057659864,-0.04893285,-0.034877717,-0.01604551,0.008451462,0.030100703,0.042196155,0.050065875,0.0545671,0.057659864,0.061609983,0.06580508,0.06892848,0.067795515,0.06580508,0.057384253,0.041920543,0.021924853,0.00027561188,-0.024742067,-0.051750004,