-0.72979695,-0.73502505,-0.7333992,-0.7305939,-0.72775674,-0.72453696,-0.7233256,-0.7241225,-0.72775674,-0.73218787,-0.73139083,-0.7281711,-0.72574836,-0.7261628,-0.7333992,-0.7418789,-0.72775674,-0.6547547,-0.49746567,-0.24983263,0.044980645,0.31276095,0.49507463,0.5519142,0.49749744,0.36921787,0.18894434,-0.029647171,-0.28371966,-0.5454749,-0.76891196,-0.90442795,-0.93222606,-0.88262296,-0.80723006,-0.7491473,-0.7273742,-0.73301667,-0.7491473,-0.7620581,-0.7644808,-0.7592209,-0.7519525,-0.74509865,-0.7386592,-0.73218787,-0.7253339,-0.71930885,-0.7164717,-0.71446335,-0.7100322,-0.7039753,-0.6962925,-0.6890561,-0.6822022,-0.6741369,-0.667283,-0.66039723,-0.6551691,-0.6511524,-0.64509547,-0.6374128,-0.62934744,-0.6208996,-0.6132169,-0.6035577,-0.5926552,-0.5813702,-0.5708821,-0.5595971,-0.5458574,-0.531767,-0.51805925,-0.504734,-0.49223757,-0.47811538,-0.45997643,-0.43979728,-0.41965002,-0.39947087,-0.37970608,-0.36115277,-0.3450222,-0.33211136,-0.32002944,-0.30832994,-0.29825628,-0.29219937,-0.29341072,-0.30106157,-0.31355804,-0.33294016,-0.35834742,-0.39261693,-0.43456918,-0.47932678,-0.5261246,-0.5728904,-0.61806244,-0.65960026,-0.6962925,-0.7269597,-0.752367,-0.7737575,-0.79189646,-0.8060187,-0.8188976,-0.83021456,-0.8398738,-0.8439223,-0.841914,-0.836654,-0.8314259,-0.8314259,-0.8334343,-0.83301985,-0.82900316,-0.8229462,-0.8181007,-0.8160923,-0.8160923,-0.8160923,-0.8144665,-0.81245816,-0.8076126,-0.8015557,-0.79591316,-0.792279,-0.79068506,-0.7894737,-0.78746533,-0.7862539,-0.7850425,-0.7850425,-0.7838312,-0.7814084,-0.7777742,-0.77414006,-0.7717173,-0.7692945,-0.7677006,-0.7677006,-0.76891196,-0.7705059,-0.7692945,-0.76566035,-0.76285505,-0.7624406,-0.7648634,-0.7677006,-0.7684976,-0.7677006,-0.76687175,-0.76687175,-0.7672862,-0.7684976,-0.76891196,-0.76970893,-0.7705059,-0.76970893,-0.76566035,-0.763652,-0.7632695,-0.76566035,-0.7677006,-0.7672862,-0.7664892,-0.7644808,-0.7632695,-0.76043224,-0.75558674,-0.75357836,-0.75558674,-0.7612293,-0.76527786,-0.76406646,-0.7584239,-0.752367,-0.75157,-0.7527814,-0.75316393,-0.7527814,-0.7499442,-0.7479359,-0.7467245,-0.7459275,-0.74509865,-0.74350476,-0.74309033,-0.74229336,-0.7402531,-0.7402531,-0.7402531,-0.7443017,-0.74831843,-0.74831843,-0.7443017,-0.7394562,-0.7366508,-0.73623645,-0.7374478,-0.7386592,-0.7382448,-0.7386592,-0.7394562,-0.7374478,-0.73461056,-0.7333992,-0.7342281,-0.7342281,-0.73097646,-0.72453696,-0.7164717,-0.71041477,-0.70598364,-0.7031783,-0.7023494,-0.7019669,-0.69992673,-0.68943864,-0.66808,-0.6434697,-0.6257133,-0.6212822,-0.6289649,-0.64187574,-0.6527464,-0.65717745,-0.6580063,-0.65558356,-0.65638053,-0.667283,-0.6890561,-0.7164717,-0.73904175,-0.7499442,-0.7487328,-0.7414645,-0.7366508,-0.7333992,-0.7333992,-0.73461056,-0.7366508,-0.73987055,-0.74309033,-0.74309033,-0.7418789,-0.7402531,-0.74309033,-0.75035864,-0.7414645,-0.68137336,-0.5377921,-0.30185854,-0.009467959,0.27201998,0.4809525,0.57250774,0.54668605,0.4333576,0.25671828,0.035704017,-0.22162014,-0.492652,-0.73218787,-0.8927285,-0.9463483,-0.91045296,-0.83706844,-0.7733431,-0.74350476,-0.7443017,-0.7592209,-0.77414006,-0.7806114,-0.7769773,-0.7684976,-0.7596353,-0.75478977,-0.75157,-0.7475214,-0.74229336,-0.73461056,-0.72574836,-0.7176831,-0.7100322,-0.7035608,-0.6987153,-0.6962925,-0.69269025,-0.68743026,-0.6797794,-0.6705027,-0.66202307,-0.6527464,-0.6442666,-0.63824165,-0.63177025,-0.62654215,-0.6192738,-0.6092002,-0.5975007,-0.58621573,-0.57489884,-0.56240237,-0.54706883,-0.52972686,-0.51359624,-0.49988842,-0.48659503,-0.4700501,-0.45191115,-0.43335783,-0.41560143,-0.39947087,-0.38133192,-0.36316115,-0.34543663,-0.33172882,-0.3220377,-0.31518388,-0.31113523,-0.31033832,-0.31438684,-0.32324916,-0.33816826,-0.36077023,-0.39261693,-0.43214637,-0.476107,-0.5196532,-0.5632312,-0.6067774,-0.650738,-0.6922758,-0.7285856,-0.7592209,-0.78462815,-0.80518985,-0.82052344,-0.8293857,-0.8334343,-0.83544266,-0.8386624,-0.84108514,-0.841914,-0.841914,-0.841914,-0.84312534,-0.84229654,-0.8390768,-0.83423126,-0.8285887,-0.8257834,-0.8241576,-0.8213204,-0.81851506,-0.81529534,-0.81325513,-0.8108323,-0.8076126,-0.8056042,-0.80518985,-0.8068156,-0.80640125,-0.8023845,-0.796742,-0.79269344,-0.79189646,-0.79189646,-0.7910995,-0.7894737,-0.7882623,-0.7890593,-0.7898881,-0.7882623,-0.78583956,-0.7838312,-0.7842137,-0.78583956,-0.7862539,-0.7850425,-0.7838312,-0.7838312,-0.7842137,-0.7850425,-0.7850425,-0.78341675,-0.7814084,-0.7781887,-0.77414006,-0.7705059,-0.7705059,-0.7729287,-0.77493703,-0.7745545,-0.77213174,-0.76891196,-0.76808316,-0.76808316,-0.7664892,-0.76527786,-0.76285505,-0.7632695,-0.76406646,-0.7632695,-0.7612293,-0.7592209,-0.7580095,-0.7564156,-0.75357836,-0.75157,-0.7507412,-0.75316393,-0.7552042,-0.7552042,-0.75478977,-0.75316393,-0.75357836,-0.75357836,-0.7519525,-0.74952984,-0.7487328,-0.75035864,-0.7507412,-0.74831843,-0.74471617,-0.7414645,-0.7394562,-0.7382448,-0.7354394,-0.73260224,-0.7293825,-0.7285856,-0.7281711,-0.7273742,-0.7269597,-0.72775674,-0.72979695,-0.7301795,-0.72775674,-0.7249514,-0.7225286,-0.7225286,-0.7229111,-0.7209028,-0.7164717,-0.71082914,-0.70598364,-0.7027639,-0.6983328,-0.69390166,-0.69147885,-0.69269025,-0.6942842,-0.69147885,-0.67895055,-0.6551691,-0.62934744,-0.6104115,-0.6051516,-0.6148427,-0.6329816,-0.6499411,-0.6575919,-0.6547547,-0.6483152,-0.6471038,-0.6580063,-0.6797794,-0.7055692,-0.7269597,-0.7378622,-0.7406676,-0.7366508,-0.7293825,-0.72374,-0.7216998,-0.7229111,-0.7269597,-0.7301795,-0.7318053,-0.73139083,-0.73301667,-0.73381364,-0.7366508,-0.74309033,-0.73703337,-0.68663335,-0.5543371,-0.3256719,-0.028435826,0.2708087,0.50556266,0.6277534,0.627339,0.5265069,0.34907055,0.11877966,-0.14660978,-0.4256751,-0.6773566,-0.8572157,-0.93426627,-0.91370463,-0.841914,-0.7729287,-0.7382448,-0.73987055,-0.7592209,-0.7757659,-0.780994,-0.77614844,-0.76891196,-0.76043224,-0.75157,-0.74309033,-0.73582196,-0.73097646,-0.7269597,-0.72131723,-0.71404886,-0.70639807,-0.7003411,-0.6954956,-0.69026744,-0.68341357,-0.67614526,-0.6688769,-0.66202307,-0.65437216,-0.6471038,-0.63983554,-0.634193,-0.6273391,-0.61806244,-0.6083714,-0.5982977,-0.5878097,-0.5765246,-0.5640282,-0.55232877,-0.54142624,-0.5309382,-0.5172304,-0.49867707,-0.47852975,-0.45796806,-0.4390003,-0.41882116,-0.39784503,-0.37648636,-0.3563072,-0.3389653,-0.32283467,-0.30632156,-0.29137045,-0.2809143,-0.27606875,-0.2764513,-0.2809143,-0.28977656,-0.30389875,-0.32688326,-0.35872996,-0.3958367,-0.43979728,-0.48818904,-0.5382066,-0.58742714,-0.6329816,-0.6745194,-0.7112436,-0.74509865,-0.7737575,-0.796742,-0.8144665,-0.8273773,-0.836654,-0.842711,-0.8443049,-0.8439223,-0.84312534,-0.842711,-0.84108514,-0.8378654,-0.8338487,-0.8298001,-0.8281743,-0.826166,-0.8225318,-0.81851506,-0.8144665,-0.81245816,-0.8108323,-0.80844146,-0.8048073,-0.8007587,-0.7991648,-0.79795337,-0.7951162,-0.79310787,-0.7902707,-0.78867674,-0.78746533,-0.78462815,-0.780994,-0.7781887,-0.7769773,-0.77656287,-0.77535146,-0.7737575,-0.7725462,-0.7733431,-0.7737575,-0.7729287,-0.7717173,-0.7717173,-0.7737575,-0.77493703,-0.7733431,-0.77012336,-0.7672862,-0.7677006,-0.7692945,-0.77012336,-0.76970893,-0.7684976,-0.7684976,-0.76808316,-0.76687175,-0.7660748,-0.76566035,-0.76808316,-0.76970893,-0.7677006,-0.76406646,-0.76084673,-0.7596353,-0.7596353,-0.75880647,-0.7567981,-0.75437534,-0.75478977,-0.7552042,-0.75437534,-0.752367,-0.74952984,-0.7479359,-0.74631006,-0.74471617,-0.74350476,-0.74229336,-0.74309033,-0.74350476,-0.74229336,-0.74108195,-0.7402531,-0.7414645,-0.74309033,-0.7414645,-0.73904175,-0.73582196,-0.7333992,-0.73097646,-0.7273742,-0.7241225,-0.7225286,-0.72453696,-0.7269597,-0.72654533,-0.7249514,-0.7225286,-0.7229111,-0.72374,-0.7229111,-0.7216998,-0.7196914,-0.7188945,-0.7180975,-0.7164717,-0.7148459,-0.712455,-0.71041477,-0.70678055,-0.7003411,-0.6942842,-0.68943864,-0.68621886,-0.6837961,-0.6822022,-0.68137336,-0.68137336,-0.6777392,-0.66243744,-0.6362014,-0.60878575,-0.5914438,-0.59224075,-0.6071918,-0.6241194,-0.63540435,-0.63824165,-0.63581884,-0.63460743,-0.64066434,-0.6567949,-0.6817877,-0.7076094,-0.7241225,-0.72775674,-0.72374,-0.7188945,-0.7176831,-0.7196914,-0.7225286,-0.72453696,-0.7249514,-0.7253339,-0.7249514,-0.7225286,-0.72131723,-0.7221142,-0.7293825,-0.73703337,-0.7188945,-0.63499,-0.4555453,-0.18046486,0.14460135,0.44626856,0.66081154,0.7402849,0.6914787,0.54225504,0.32203758,0.05868852,-0.23249072,-0.5196532,-0.75558674,-0.8967452,-0.9265836,-0.8757691,-0.8007587,-0.7471389,-0.7301795,-0.7414645,-0.76084673,-0.77493703,-0.7777742,-0.7725462,-0.7644808,-0.7572125,-0.7519525,-0.74631006,-0.7386592,-0.7305939,-0.7233256,-0.7176831,-0.712455,-0.70518667,-0.6979183,-0.69026744,-0.6837961,-0.6769422,-0.6688769,-0.66202307,-0.65558356,-0.6503236,-0.64468104,-0.63499,-0.6245338,-0.6148427,-0.60757434,-0.5999235,-0.58822405,-0.5745163,-0.56039405,-0.5482802,-0.53740954,-0.5240843,-0.50674236,-0.48739207,-0.46842426,-0.45028532,-0.43134946,-0.41117024,-0.38977975,-0.36842108,-0.34744495,-0.32646888,-0.3067041,-0.28856516,-0.27444297,-0.2635724,-0.2546782,-0.25145847,-0.2522555,-0.2583124,-0.2695974,-0.28693932,-0.312761,-0.34945333,-0.39663368,-0.44869143,-0.49950588,-0.5474832,-0.5926552,-0.63703024,-0.679365,-0.7168861,-0.7491473,-0.77493703,-0.7955306,-0.81003535,-0.82052344,-0.82779175,-0.8334343,-0.83827984,-0.8407026,-0.8390768,-0.8350601,-0.8305971,-0.826166,-0.8221493,-0.81851506,-0.8156779,-0.81366956,-0.81408393,-0.8120437,-0.80844146,-0.80397844,-0.8003762,-0.7983359,-0.796742,-0.7939048,-0.7902707,-0.7866365,-0.7862539,-0.7866365,-0.7862539,-0.78583956,-0.7838312,-0.7814084,-0.77940005,-0.77735984,-0.7769773,-0.7785712,-0.7806114,-0.7806114,-0.77656287,-0.7725462,-0.77012336,-0.77133477,-0.7729287,-0.7733431,-0.7725462,-0.77133477,-0.77213174,-0.7737575,-0.7733431,-0.7725462,-0.7725462,-0.7737575,-0.7737575,-0.7705059,-0.7664892,-0.7632695,-0.76285505,-0.763652,-0.763652,-0.763652,-0.7632695,-0.76406646,-0.7644808,-0.76285505,-0.76043224,-0.7584239,-0.7584239,-0.7584239,-0.75759506,-0.7560012,-0.7552042,-0.7560012,-0.7560012,-0.75478977,-0.75357836,-0.75157,-0.7507412,-0.7499442,-0.7471389,-0.7438873,-0.7414645,-0.7414645,-0.7406676,-0.73904175,-0.7374478,-0.7366508,-0.7382448,-0.7402531,-0.73987055,-0.7374478,-0.73461056,-0.7333992,-0.73301667,-0.73301667,-0.7333992,-0.73218787,-0.7318053,-0.73139083,-0.7289681,-0.72775674,-0.7281711,-0.7301795,-0.73218787,-0.73139083,-0.72979695,-0.72654533,-0.7229111,-0.7180975,-0.70961773,-0.7023494,-0.69670695,-0.6950811,-0.6946986,-0.6930728,-0.6898531,-0.6817877,-0.66486025,-0.64024997,-0.6132169,-0.5958749,-0.59507793,-0.60999715,-0.6297619,-0.6442666,-0.6491122,-0.6466894,-0.6442666,-0.6491122,-0.6644458,-0.68864167,-0.71404886,-0.7318053,-0.73623645,-0.73139083,-0.7249514,-0.7216998,-0.7229111,-0.7249514,-0.72453696,-0.7229111,-0.7221142,-0.7241225,-0.72574836,-0.7261628,-0.7273742,-0.73260224,-0.73987055,-0.7209028,-0.633396,-0.44748002,-0.16070008,0.17765939,0.49424577,0.72415423,0.81408393,0.76849735,0.61241984,0.37607193,0.09216094,-0.22082323,-0.52449876,-0.77133477,-0.9160955,-0.9419172,-0.8842488,-0.80276704,-0.7467245,-0.73139083,-0.7438873,-0.763652,-0.7769773,-0.780197,-0.77535146,-0.76687175,-0.7572125,-0.7479359,-0.7406676,-0.7342281,-0.72654533,-0.71930885,-0.712455,-0.707195,-0.7019669,-0.6950811,-0.6870159,-0.6797794,-0.6741369,-0.66766554,-0.65960026,-0.6511524,-0.6426727,-0.6362014,-0.6297619,-0.622111,-0.6132169,-0.60272884,-0.5926552,-0.58095574,-0.56766236,-0.5555485,-0.5442635,-0.5341898,-0.521279,-0.503937,-0.48375785,-0.46157038,-0.44222003,-0.4244637,-0.40632474,-0.38777137,-0.36720973,-0.34581912,-0.32366353,-0.30185854,-0.2829227,-0.26679212,-0.25668657,-0.24983263,-0.24501896,-0.24419016,-0.25024706,-0.26558065,-0.28977656,-0.32082635,-0.35872996,-0.4026906,-0.4535051,-0.5071567,-0.5599797,-0.6092002,-0.6551691,-0.6975039,-0.73461056,-0.76566035,-0.79148203,-0.8120437,-0.82900316,-0.84149957,-0.8483535,-0.85240203,-0.853199,-0.8552073,-0.8552073,-0.85358155,-0.8511907,-0.8483535,-0.8463451,-0.8435079,-0.8390768,-0.83544266,-0.83301985,-0.8326373,-0.83101153,-0.8265804,-0.8209379,-0.8156779,-0.81245816,-0.81003535,-0.8060187,-0.8015557,-0.7983359,-0.7963276,-0.7951162,-0.79310787,-0.7902707,-0.7878479,-0.7878479,-0.7890593,-0.78867674,-0.7878479,-0.78542507,-0.78341675,-0.7814084,-0.7785712,-0.7757659,-0.77414006,-0.77493703,-0.77493703,-0.77414006,-0.7729287,-0.77213174,-0.7737575,-0.77493703,-0.7737575,-0.77213174,-0.7705059,-0.7717173,-0.7733431,-0.7729287,-0.7705059,-0.76687175,-0.76527786,-0.76566035,-0.76527786,-0.7648634,-0.7632695,-0.76285505,-0.76285505,-0.7624406,-0.7620581,-0.7600179,-0.75880647,-0.7567981,-0.75437534,-0.7519525,-0.75035864,-0.7507412,-0.7507412,-0.74831843,-0.7459275,-0.74350476,-0.74350476,-0.74509865,-0.74509865,-0.74509865,-0.74471617,-0.7438873,-0.74229336,-0.7394562,-0.7366508,-0.7354394,-0.73703337,-0.7386592,-0.7378622,-0.73623645,-0.73461056,-0.73381364,-0.73381364,-0.73260224,-0.73097646,-0.72979695,-0.7305939,-0.7318053,-0.73139083,-0.72979695,-0.7281711,-0.7269597,-0.7249514,-0.7201058,-0.71325195,-0.70678055,-0.7039753,-0.7015525,-0.6991297,-0.69591,-0.6910645,-0.68421054,-0.6688769,-0.6463069,-0.6208996,-0.60272884,-0.6007205,-0.6116229,-0.62654215,-0.63824165,-0.6422583,-0.6414614,-0.64024997,-0.6442666,-0.66039723,-0.6858363,-0.71404886,-0.73381364,-0.7394562,-0.7342281,-0.72654533,-0.7225286,-0.7233256,-0.7261628,-0.7293825,-0.73218787,-0.7342281,-0.73461056,-0.73301667,-0.7318053,-0.73139083,-0.7378622,-0.7467245,-0.7366508,-0.6700883,-0.509994,-0.24339318,0.09659207,0.43820333,0.7068124,0.8386941,0.82256365,0.68784463,0.4636104,0.18049657,-0.1385445,-0.45997643,-0.72979695,-0.8975421,-0.9439255,-0.8975421,-0.81972647,-0.7592209,-0.73623645,-0.7426759,-0.76285505,-0.7806114,-0.78746533,-0.7826198,-0.77092034,-0.7580095,-0.74831843,-0.7414645,-0.73582196,-0.7293825,-0.7225286,-0.7164717,-0.71204054,-0.70598364,-0.69954413,-0.69269025,-0.68542194,-0.67815363,-0.6692914,-0.66081166,-0.6531608,-0.6466894,-0.63983554,-0.6313877,-0.622908,-0.61404574,-0.60636294,-0.5970863,-0.5850043,-0.5716791,-0.5571743,-0.5442635,-0.53014123,-0.51321375,-0.4954573,-0.4773184,-0.459562,-0.4410087,-0.420447,-0.3986739,-0.3769008,-0.35672164,-0.3357455,-0.31438684,-0.29341072,-0.27523988,-0.26153213,-0.2510441,-0.24259627,-0.23695374,-0.2353279,-0.24176747,-0.25630403,-0.27849162,-0.30954134,-0.34824193,-0.39503974,-0.44665122,-0.49867707,-0.5515318,-0.60151744,-0.6499411,-0.6942842,-0.7301795,-0.7612293,-0.7882623,-0.8120437,-0.83021456,-0.84108514,-0.84672767,-0.8491504,-0.85240203,-0.853996,-0.853199,-0.85077626,-0.847939,-0.8463451,-0.8447193,-0.84108514,-0.836654,-0.8326373,-0.8305971,-0.8273773,-0.8225318,-0.8181007,-0.81366956,-0.8120437,-0.81124675,-0.80844146,-0.8048073,-0.8023845,-0.79996175,-0.79795337,-0.7947018,-0.79189646,-0.7894737,-0.7898881,-0.7902707,-0.7894737,-0.7870509,-0.7838312,-0.7830023,-0.7830023,-0.7830023,-0.7830023,-0.78341675,-0.7838312,-0.78341675,-0.7818228,-0.7806114,-0.7789856,-0.7781887,-0.7769773,-0.7757659,-0.77614844,-0.7785712,-0.78462815,-0.7850425,-0.78220534,-0.77656287,-0.77012336,-0.7684976,-0.76891196,-0.76808316,-0.7684976,-0.76808316,-0.7677006,-0.7677006,-0.76527786,-0.7644808,-0.76406646,-0.76566035,-0.7672862,-0.76808316,-0.76808316,-0.7672862,-0.76527786,-0.7620581,-0.75759506,-0.7552042,-0.75478977,-0.75759506,-0.7600179,-0.7596353,-0.7584239,-0.7567981,-0.75478977,-0.75437534,-0.752367,-0.74952984,-0.7479359,-0.7487328,-0.7491473,-0.7487328,-0.7475214,-0.7443017,-0.74229336,-0.7402531,-0.7386592,-0.7386592,-0.7386592,-0.74108195,-0.74471617,-0.74471617,-0.74471617,-0.7426759,-0.7402531,-0.7374478,-0.7342281,-0.73097646,-0.7285856,-0.7261628,-0.72131723,-0.71446335,-0.70799196,-0.7027639,-0.7023494,-0.7011381,-0.69992673,-0.69670695,-0.6858363,-0.6684944,-0.645478,-0.62332237,-0.61241996,-0.6148427,-0.6285505,-0.64187574,-0.6491122,-0.6495266,-0.6463069,-0.6487297,-0.66039723,-0.68137336,-0.7076094,-0.7305939,-0.7455131,-0.7475214,-0.73987055,-0.7305939,-0.7249514,-0.7253339,-0.7289681,-0.73139083,-0.73260224,-0.7342281,-0.73623645,-0.7374478,-0.73502505,-0.73301667,-0.7386592,-0.74229336,-0.71041477,-0.5979152,-0.37568945,-0.053046048,0.30552447,0.6229079,0.8273772,0.88023186,0.79996145,0.61442804,0.35187602,0.03650093,-0.30511022,-0.6212822,-0.853199,-0.95804775,-0.9431285,-0.8656954,-0.7866365,-0.74350476,-0.7374478,-0.75316393,-0.77012336,-0.7797826,-0.7806114,-0.77493703,-0.7664892,-0.7580095,-0.7519525,-0.7471389,-0.7414645,-0.7342281,-0.7241225,-0.71325195,-0.70598364,-0.6991297,-0.69269025,-0.68542194,-0.678568,-0.6725111,-0.66645414,-0.66122603,-0.65437216,-0.6463069,-0.63782716,-0.6273391,-0.6148427,-0.6039402,-0.59345216,-0.58621573,-0.57693905,-0.5640282,-0.5478976,-0.53256404,-0.5200676,-0.50795376,-0.49383152,-0.47489566,-0.4531225,-0.431732,-0.41158473,-0.39261693,-0.37205523,-0.35066468,-0.32968855,-0.30912685,-0.28977656,-0.27402854,-0.26194656,-0.2530843,-0.24623036,-0.24138492,-0.24176747,-0.25066155,-0.2695974,-0.29742748,-0.33415163,-0.38012052,-0.43214637,-0.48780644,-0.54142624,-0.58863854,-0.633396,-0.6741369,-0.71567476,-0.75316393,-0.7842137,-0.80923843,-0.82779175,-0.8394912,-0.847939,-0.85278463,-0.8556218,-0.8584271,-0.85963845,-0.8584271,-0.85358155,-0.84956485,-0.847939,-0.8487679,-0.8471421,-0.84229654,-0.83544266,-0.82900316,-0.8273773,-0.8265804,-0.824572,-0.8213204,-0.8173037,-0.8128726,-0.8076126,-0.80276704,-0.7995473,-0.7971245,-0.79591316,-0.7951162,-0.7910995,-0.78867674,-0.7878479,-0.7882623,-0.78867674,-0.7890593,-0.79068506,-0.79068506,-0.7910995,-0.78867674,-0.7862539,-0.78542507,-0.7850425,-0.7866365,-0.7862539,-0.78341675,-0.78220534,-0.78341675,-0.7866365,-0.7898881,-0.7882623,-0.78341675,-0.780197,-0.7789856,-0.780994,-0.7838312,-0.7842137,-0.7826198,-0.780197,-0.7785712,-0.77735984,-0.77493703,-0.77414006,-0.7745545,-0.7737575,-0.7729287,-0.77213174,-0.77133477,-0.77133477,-0.7705059,-0.7677006,-0.7644808,-0.76084673,-0.76164365,-0.7632695,-0.76406646,-0.7648634,-0.7644808,-0.7632695,-0.7612293,-0.7572125,-0.75437534,-0.7527814,-0.7527814,-0.7552042,-0.7552042,-0.75437534,-0.75316393,-0.7527814,-0.7519525,-0.74952984,-0.7471389,-0.74309033,-0.7414645,-0.73904175,-0.73461056,-0.7305939,-0.7269597,-0.7253339,-0.72374,-0.72052026,-0.71526027,-0.7112436,-0.70961773,-0.70961773,-0.7035608,-0.6850075,-0.6580063,-0.63259906,-0.6188594,-0.6208996,-0.63581884,-0.6527464,-0.66486025,-0.66808,-0.6656572,-0.66486025,-0.67209667,-0.6918614,-0.71726865,-0.7386592,-0.7519525,-0.75478977,-0.7527814,-0.7499442,-0.74631006,-0.7443017,-0.74309033,-0.74471617,-0.7459275,-0.7455131,-0.7443017,-0.74229336,-0.74309033,-0.7455131,-0.752367,-0.75759506,-0.7333992,-0.64468104,-0.46035898,-0.17443979,0.16516292,0.47852957,0.6902673,0.7547896,0.6858362,0.52249026,0.29420757,0.013102055,-0.30348438,-0.6120055,-0.85278463,-0.971373,-0.96812135,-0.8911027,-0.80397844,-0.74831843,-0.73260224,-0.74509865,-0.7620581,-0.77213174,-0.7733431,-0.7684976,-0.76285505,-0.7584239,-0.752367,-0.74229336,-0.73301667,-0.7253339,-0.7196914,-0.7136345,-0.70678055,-0.6979183,-0.69065,-0.6837961,-0.6769422,-0.6692914,-0.6600146,-0.6511524,-0.6410469,-0.6321846,-0.6257133,-0.6208996,-0.61726546,-0.6107941,-0.5990947,-0.58621573,-0.5741018,-0.56281686,-0.5527432,-0.5390035,-0.5232873,-0.5087826,-0.49625432,-0.4825465,-0.46319616,-0.4410087,-0.41882116,-0.39825946,-0.38012052,-0.36194974,-0.3422169,-0.32324916,-0.30632156,-0.290191,-0.27728015,-0.2663777,-0.25993818,-0.25993818,-0.2635724,-0.27364606,-0.2929963,-0.3220377,-0.36194974,-0.40753615,-0.45513088,-0.5059454,-0.5571743,-0.6071918,-0.65233195,-0.69065,-0.7221142,-0.7519525,-0.7797826,-0.8043929,-0.8213204,-0.8314259,-0.836654,-0.84028816,-0.8443049,-0.847939,-0.8491504,-0.8475565,-0.84551626,-0.84108514,-0.836654,-0.83423126,-0.8326373,-0.8326373,-0.83180845,-0.8273773,-0.8213204,-0.8156779,-0.81245816,-0.8076126,-0.8019701,-0.7947018,-0.7882623,-0.78542507,-0.7838312,-0.7818228,-0.7785712,-0.7757659,-0.7777742,-0.780197,-0.7814084,-0.7806114,-0.7769773,-0.7757659,-0.7745545,-0.7745545,-0.7745545,-0.7737575,-0.7745545,-0.77535146,-0.77493703,-0.7729287,-0.77012336,-0.76970893,-0.77092034,-0.77213174,-0.77213174,-0.7705059,-0.76970893,-0.76808316,-0.7664892,-0.7660748,-0.7660748,-0.76687175,-0.76808316,-0.7660748,-0.76406646,-0.7624406,-0.76566035,-0.7684976,-0.7684976,-0.7660748,-0.76285505,-0.7620581,-0.76084673,-0.76084673,-0.7592209,-0.7567981,-0.7580095,-0.7592209,-0.75759506,-0.75437534,-0.7519525,-0.7519525,-0.7519525,-0.7511556,-0.74952984,-0.7487328,-0.7507412,-0.7527814,-0.752367,-0.7479359,-0.74309033,-0.7414645,-0.74229336,-0.74309033,-0.7414645,-0.7386592,-0.7374478,-0.73623645,-0.73461056,-0.72979695,-0.7225286,-0.71567476,-0.70920336,-0.7039753,-0.7011381,-0.6987153,-0.6979183,-0.69390166,-0.6822022,-0.6632345,-0.64024997,-0.6249163,-0.6208996,-0.6277535,-0.64066434,-0.65233195,-0.65838885,-0.65838885,-0.65638053,-0.65838885,-0.6688769,-0.68822724,-0.71041477,-0.72654533,-0.7342281,-0.7333992,-0.73097646,-0.72775674,-0.7249514,-0.7221142,-0.72052026,-0.7209028,-0.7225286,-0.7225286,-0.7225286,-0.7221142,-0.7233256,-0.72574836,-0.7273742,-0.71567476,-0.66039723,-0.5329784,-0.31196404,-0.018362164,0.28371954,0.5204818,0.62816787,0.60355747,0.48133504,0.2974273,0.0695591,-0.19822127,-0.4853837,-0.7402531,-0.90643626,-0.9524052,-0.9028021,-0.8173037,-0.74831843,-0.71848005,-0.7221142,-0.7394562,-0.75316393,-0.7572125,-0.7552042,-0.7507412,-0.74509865,-0.73582196,-0.72374,-0.7128376,-0.70477223,-0.7011381,-0.6991297,-0.6962925,-0.6918614,-0.68663335,-0.6805764,-0.6717141,-0.66081166,-0.650738,-0.6438841,-0.64305526,-0.6438841,-0.63983554,-0.6313877,-0.6196883,-0.6067774,-0.59428096,-0.58296406,-0.5733049,-0.56441075,-0.55755687,-0.549906,-0.5377921,-0.522076,-0.50431955,-0.4853837,-0.46721292,-0.4494884,-0.4329434,-0.41560143,-0.39704806,-0.376072,-0.35471332,-0.33737135,-0.32366353,-0.3139724,-0.30348438,-0.29098797,-0.27970296,-0.27202016,-0.27323163,-0.2829227,-0.30026466,-0.32608634,-0.35834742,-0.39784503,-0.44384587,-0.49303454,-0.54104376,-0.58580124,-0.6277535,-0.66607165,-0.7019669,-0.73582196,-0.76406646,-0.7878479,-0.80318147,-0.8120437,-0.8173037,-0.8209379,-0.8257834,-0.83101153,-0.8326373,-0.83180845,-0.8298001,-0.8293857,-0.8314259,-0.8285887,-0.82173485,-0.81408393,-0.808824,-0.808824,-0.81124675,-0.8108323,-0.80518985,-0.797539,-0.792279,-0.7890593,-0.7862539,-0.7818228,-0.7781887,-0.77414006,-0.7717173,-0.7717173,-0.77133477,-0.77092034,-0.77012336,-0.76891196,-0.76970893,-0.77092034,-0.77213174,-0.77133477,-0.7677006,-0.7624406,-0.75880647,-0.7580095,-0.7584239,-0.75759506,-0.7572125,-0.7580095,-0.7612293,-0.763652,-0.763652,-0.7596353,-0.75437534,-0.7507412,-0.7511556,-0.7519525,-0.75157,-0.74831843,-0.74631006,-0.74631006,-0.7467245,-0.74831843,-0.75157,-0.7519525,-0.7511556,-0.74831843,-0.7455131,-0.7438873,-0.74509865,-0.74631006,-0.74509865,-0.74350476,-0.73987055,-0.7374478,-0.73461056,-0.7305939,-0.7293825,-0.73218787,-0.7374478,-0.73904175,-0.7366508,-0.7305939,-0.72374,-0.7233256,-0.7261628,-0.7269597,-0.7269597,-0.72574836,-0.7249514,-0.72453696,-0.7221142,-0.7168861,-0.7128376,-0.7100322,-0.70799196,-0.70518667,-0.69992673,-0.6971214,-0.69670695,-0.6898531,-0.67209667,-0.645478,-0.6200708,-0.6092002,-0.61404574,-0.6277535,-0.6410469,-0.6487297,-0.6511524,-0.6511524,-0.6527464,-0.65960026,-0.673308,-0.6918614,-0.70920336,-0.72052026,-0.7253339,-0.72453696,-0.7233256,-0.7209028,-0.7176831,-0.71930885,-0.7221142,-0.72574836,-0.7285856,-0.7273742,-0.7241225,-0.7216998,-0.7229111,-0.73139083,-0.7382448,-0.7160573,-0.6269247,-0.45149678,-0.19015598,0.10666573,0.36963224,0.5374093,0.5757276,0.5063596,0.3631928,0.17039108,-0.059485555,-0.32525748,-0.5918582,-0.808027,-0.9257866,-0.93426627,-0.8721349,-0.79189646,-0.73623645,-0.7188945,-0.7261628,-0.7443017,-0.7552042,-0.75437534,-0.7479359,-0.7414645,-0.7386592,-0.73703337,-0.73260224,-0.72453696,-0.71567476,-0.7088208,-0.7019669,-0.6962925,-0.6946986,-0.6910645,-0.68663335,-0.678568,-0.66645414,-0.6551691,-0.6471038,-0.6434697,-0.6414614,-0.6374128,-0.6309733,-0.62332237,-0.61685103,-0.6092002,-0.5999235,-0.589021,-0.5773216,-0.5680449,-0.55918264,-0.54668623,-0.53014123,-0.51279926,-0.4966687,-0.48053813,-0.46319616,-0.4434315,-0.42245537,-0.40833306,-0.3954541,-0.38133192,-0.3664127,-0.34824193,-0.33211136,-0.32041192,-0.3107527,-0.30590713,-0.3067041,-0.31476945,-0.32889163,-0.35066468,-0.37890917,-0.41439003,-0.45513088,-0.4966687,-0.5369952,-0.5793618,-0.6216966,-0.66364884,-0.7055692,-0.7386592,-0.76527786,-0.7870509,-0.8043929,-0.81650674,-0.824572,-0.82900316,-0.8314259,-0.83423126,-0.8350601,-0.83544266,-0.83423126,-0.83301985,-0.8314259,-0.8298001,-0.8265804,-0.8221493,-0.81771815,-0.8160923,-0.8128726,-0.80723006,-0.80318147,-0.79996175,-0.79996175,-0.80117315,-0.79996175,-0.7963276,-0.7934904,-0.7890593,-0.7842137,-0.77656287,-0.76891196,-0.76527786,-0.76808316,-0.7729287,-0.7745545,-0.7725462,-0.77012336,-0.77133477,-0.77414006,-0.7757659,-0.77493703,-0.77213174,-0.7705059,-0.76970893,-0.7684976,-0.7644808,-0.7596353,-0.7572125,-0.7580095,-0.7592209,-0.7620581,-0.7660748,-0.76891196,-0.77012336,-0.76808316,-0.76406646,-0.7592209,-0.7584239,-0.7580095,-0.7564156,-0.7552042,-0.75316393,-0.7511556,-0.75357836,-0.7539928,-0.75357836,-0.752367,-0.75157,-0.7511556,-0.752367,-0.7527814,-0.7519525,-0.7511556,-0.74952984,-0.7459275,-0.7418789,-0.7382448,-0.7378622,-0.7394562,-0.7406676,-0.7394562,-0.73623645,-0.73461056,-0.7342281,-0.7333992,-0.73381364,-0.73139083,-0.7293825,-0.7293825,-0.7305939,-0.7301795,-0.7269597,-0.7225286,-0.71526027,-0.70961773,-0.707195,-0.70477223,-0.7043578,-0.7035608,-0.7003411,-0.6950811,-0.6805764,-0.6600146,-0.63903856,-0.6269247,-0.6277535,-0.64024997,-0.65638053,-0.66607165,-0.6656572,-0.66122603,-0.6600146,-0.66808,-0.68462497,-0.70598364,-0.72453696,-0.73623645,-0.74350476,-0.7418789,-0.7354394,-0.7269597,-0.7216998,-0.7216998,-0.7261628,-0.7305939,-0.73260224,-0.7333992,-0.7342281,-0.7333992,-0.73301667,-0.7382448,-0.73461056,-0.6983328,-0.5938666,-0.3986739,-0.13086176,0.14982939,0.3740635,0.4882207,0.4833752,0.39181972,0.24339306,0.052217126,-0.17887098,-0.43979728,-0.6878447,-0.8664924,-0.938283,-0.9120788,-0.8378654,-0.76970893,-0.73381364,-0.7318053,-0.7438873,-0.75558674,-0.76084673,-0.7600179,-0.7564156,-0.75157,-0.74108195,-0.7301795,-0.7221142,-0.71726865,-0.71526027,-0.712455,-0.70477223,-0.69591,-0.68822724,-0.6850075,-0.68299913,-0.68016195,-0.67614526,-0.6712997,-0.6640314,-0.65558356,-0.6475183,-0.63862413,-0.633396,-0.62934744,-0.622111,-0.61241996,-0.5999235,-0.589021,-0.5793618,-0.5712965,-0.56240237,-0.55191433,-0.53983235,-0.5261246,-0.50836813,-0.48818904,-0.46721292,-0.448277,-0.43134946,-0.41439003,-0.3974625,-0.37970608,-0.36478692,-0.35149354,-0.3397941,-0.33211136,-0.3284772,-0.32930607,-0.33211136,-0.33816826,-0.34703058,-0.3627786,-0.38977975,-0.42730087,-0.46963567,-0.51321375,-0.55634546,-0.5975007,-0.6362014,-0.6717141,-0.7039753,-0.7305939,-0.7527814,-0.7705059,-0.78341675,-0.7951162,-0.8056042,-0.81529534,-0.8221493,-0.8257834,-0.82779175,-0.8285887,-0.8285887,-0.8265804,-0.8229462,-0.81931204,-0.81529534,-0.81325513,-0.80844146,-0.8035959,-0.79996175,-0.79996175,-0.8019701,-0.8023845,-0.79996175,-0.7939048,-0.7878479,-0.78341675,-0.7806114,-0.7785712,-0.7777742,-0.77940005,-0.7842137,-0.7862539,-0.7826198,-0.77656287,-0.7664892,-0.76164365,-0.76285505,-0.76566035,-0.76970893,-0.77213174,-0.7737575,-0.77012336,-0.7660748,-0.7612293,-0.7584239,-0.76043224,-0.76406646,-0.7664892,-0.76566035,-0.7644808,-0.76566035,-0.763652,-0.75880647,-0.75437534,-0.7511556,-0.75357836,-0.7596353,-0.76285505,-0.7612293,-0.7572125,-0.75357836,-0.7487328,-0.7443017,-0.74350476,-0.74471617,-0.7507412,-0.75316393,-0.75157,-0.74509865,-0.73703337,-0.73502505,-0.73582196,-0.73582196,-0.73381364,-0.7301795,-0.7281711,-0.7273742,-0.72654533,-0.7269597,-0.7269597,-0.7281711,-0.7293825,-0.7281711,-0.7269597,-0.72654533,-0.7281711,-0.72654533,-0.7229111,-0.7164717,-0.71041477,-0.70961773,-0.7128376,-0.7148459,-0.7128376,-0.70477223,-0.69670695,-0.6910645,-0.68822724,-0.68864167,-0.6817877,-0.66607165,-0.64468104,-0.6253308,-0.617648,-0.6257133,-0.6434697,-0.65638053,-0.6616086,-0.6588033,-0.65558356,-0.66122603,-0.6773566,-0.6962925,-0.71204054,-0.72052026,-0.72374,-0.7253339,-0.7273742,-0.7285856,-0.7285856,-0.7293825,-0.7305939,-0.7301795,-0.73097646,-0.7281711,-0.7285856,-0.73097646,-0.73703337,-0.7471389,-0.7539928,-0.74509865,-0.68743026,-0.55797124,-0.34945333,-0.09012091,0.15952039,0.34865618,0.43536603,0.41643023,0.32245207,0.17201686,-0.016736388,-0.24176747,-0.4894004,-0.71726865,-0.8778093,-0.93506324,-0.90117633,-0.825369,-0.7592209,-0.7289681,-0.7293825,-0.74309033,-0.7560012,-0.76084673,-0.75880647,-0.7539928,-0.7459275,-0.73461056,-0.7241225,-0.7164717,-0.7112436,-0.71082914,-0.7116262,-0.70961773,-0.7043578,-0.6946986,-0.6837961,-0.6745194,-0.6688769,-0.66766554,-0.6652428,-0.6600146,-0.650738,-0.63903856,-0.6321846,-0.6297619,-0.6297619,-0.6261277,-0.6148427,-0.5979152,-0.58095574,-0.5672479,-0.5571743,-0.5507029,-0.543849,-0.53457236,-0.522076,-0.5063598,-0.48618066,-0.4660334,-0.448277,-0.43214637,-0.41722727,-0.40351945,-0.39099115,-0.37769777,-0.36156714,-0.34824193,-0.3365425,-0.33332276,-0.33695692,-0.34301382,-0.3486563,-0.35994142,-0.38133192,-0.41400748,-0.45471644,-0.49504292,-0.53055567,-0.5652396,-0.6007205,-0.63824165,-0.67614526,-0.7112436,-0.7406676,-0.763652,-0.780197,-0.792279,-0.797539,-0.79996175,-0.80117315,-0.8019701,-0.808824,-0.81529534,-0.82173485,-0.820109,-0.81245816,-0.80397844,-0.796742,-0.79591316,-0.797539,-0.7963276,-0.79269344,-0.78867674,-0.7866365,-0.7862539,-0.7862539,-0.7866365,-0.78462815,-0.7830023,-0.77735984,-0.7677006,-0.75880647,-0.752367,-0.75357836,-0.7592209,-0.76406646,-0.7672862,-0.76687175,-0.763652,-0.75880647,-0.75357836,-0.7511556,-0.752367,-0.7584239,-0.76285505,-0.7620581,-0.7580095,-0.75357836,-0.75357836,-0.7552042,-0.7560012,-0.75478977,-0.7519525,-0.7507412,-0.752367,-0.7539928,-0.75316393,-0.75357836,-0.75437534,-0.75558674,-0.7567981,-0.7567981,-0.7552042,-0.75558674,-0.7567981,-0.7567981,-0.7564156,-0.7539928,-0.752367,-0.75035864,-0.7499442,-0.75157,-0.75157,-0.7507412,-0.74631006,-0.74108195,-0.73904175,-0.7426759,-0.7455131,-0.74229336,-0.73381364,-0.72654533,-0.72374,-0.7285856,-0.7342281,-0.73502505,-0.73139083,-0.7273742,-0.72654533,-0.7269597,-0.7281711,-0.7301795,-0.7301795,-0.73139083,-0.73097646,-0.72979695,-0.7301795,-0.73260224,-0.73502505,-0.73461056,-0.72775674,-0.7196914,-0.7128376,-0.71446335,-0.7196914,-0.7229111,-0.7229111,-0.7196914,-0.7164717,-0.712455,-0.7076094,-0.7011381,-0.6946986,-0.69269025,-0.6918614,-0.6918614,-0.6918614,-0.6930728,-0.6954956,-0.6954956,-0.6809908,-0.65558356,-0.6277535,-0.61241996,-0.6136313,-0.6257133,-0.64305526,-0.65354335,-0.6588033,-0.66039723,-0.66039723,-0.6644458,-0.6745194,-0.69147885,-0.7088208,-0.7188945,-0.72131723,-0.7168861,-0.71446335,-0.71404886,-0.71567476,-0.71848005,-0.7176831,-0.7164717,-0.7160573,-0.7168861,-0.71848005,-0.7188945,-0.7196914,-0.7216998,-0.7241225,-0.7035608,-0.6297619,-0.47770095,-0.25024706,0.010679245,0.23896194,0.38455153,0.41681278,0.35755038,0.23896194,0.07845318,-0.11473119,-0.3422169,-0.5781504,-0.7733431,-0.8846632,-0.89715964,-0.8463451,-0.780994,-0.7382448,-0.7269597,-0.73461056,-0.7471389,-0.7539928,-0.7539928,-0.7491473,-0.7426759,-0.73703337,-0.7301795,-0.7225286,-0.7160573,-0.7116262,-0.70961773,-0.70598364,-0.6983328,-0.68943864,-0.68137336,-0.6765597,-0.67209667,-0.6656572,-0.6580063,-0.6531608,-0.6503236,-0.6487297,-0.6442666,-0.6374128,-0.6285505,-0.6208996,-0.6120055,-0.60272884,-0.5938666,-0.58458984,-0.5757277,-0.5668335,-0.55513406,-0.5430521,-0.53256404,-0.5228729,-0.50916517,-0.49022925,-0.46842426,-0.44626868,-0.4293092,-0.415187,-0.40189362,-0.38738883,-0.37205523,-0.3603558,-0.3510791,-0.3450222,-0.34138805,-0.34059107,-0.34342825,-0.3510791,-0.36478692,-0.38898283,-0.42003256,-0.45835066,-0.49746567,-0.53457236,-0.5696707,-0.60636294,-0.64468104,-0.68016195,-0.71204054,-0.73703337,-0.75558674,-0.7717173,-0.78542507,-0.7951162,-0.8023845,-0.80723006,-0.8108323,-0.809621,-0.80723006,-0.8060187,-0.80640125,-0.808027,-0.80723006,-0.8019701,-0.7963276,-0.79148203,-0.79068506,-0.78867674,-0.78462815,-0.780197,-0.7769773,-0.77493703,-0.7725462,-0.77012336,-0.7664892,-0.763652,-0.7624406,-0.7600179,-0.75558674,-0.75157,-0.74952984,-0.75157,-0.7539928,-0.7552042,-0.75357836,-0.7475214,-0.74350476,-0.74309033,-0.7455131,-0.75035864,-0.7527814,-0.7519525,-0.74831843,-0.74309033,-0.7406676,-0.7426759,-0.7467245,-0.7507412,-0.75035864,-0.7487328,-0.7459275,-0.7438873,-0.7418789,-0.7402531,-0.73904175,-0.7378622,-0.7406676,-0.7418789,-0.7414645,-0.74108195,-0.7386592,-0.73623645,-0.73301667,-0.7293825,-0.7273742,-0.72654533,-0.7285856,-0.7305939,-0.73097646,-0.7305939,-0.7301795,-0.73097646,-0.7305939,-0.7289681,-0.72654533,-0.72453696,-0.7253339,-0.72654533,-0.7269597,-0.7281711,-0.7293825,-0.73097646,-0.7301795,-0.72574836,-0.72052026,-0.7180975,-0.7196914,-0.72131723,-0.7188945,-0.7136345,-0.70961773,-0.71082914,-0.7136345,-0.7160573,-0.7160573,-0.71526027,-0.71526027,-0.71526027,-0.7136345,-0.70920336,-0.7043578,-0.7023494,-0.7011381,-0.7027639,-0.70598364,-0.70920336,-0.71404886,-0.71526027,-0.71325195,-0.70920336,-0.70639807,-0.70799196,-0.70961773,-0.71041477,-0.71041477,-0.7088208,-0.7084064,-0.70799196,-0.70518667,-0.7027639,-0.70075554,-0.69954413,-0.6991297,-0.6979183,-0.6962925,-0.6971214,-0.6991297,-0.69954413,-0.6962925,-0.69026744,-0.68421054,-0.68258476,-0.68299913,-0.68341357,-0.6837961,-0.68258476,-0.6809908,-0.6737225,-0.6559661,-0.63259906,-0.6116229,-0.60272884,-0.60757434,-0.6200708,-0.63460743,-0.64305526,-0.6466894,-0.6463069,-0.6442666,-0.6487297,-0.66122603,-0.68137336,-0.7015525,-0.7136345,-0.7160573,-0.7128376,-0.70961773,-0.70598364,-0.70477223,-0.70518667,-0.70598364,-0.7084064,-0.71082914,-0.71082914,-0.7100322,-0.70961773,-0.712455,-0.71848005,-0.7180975,-0.68743026,-0.59224075,-0.4184386,-0.17686254,0.08288431,0.2998501,0.4240811,0.43737447,0.36561573,0.2333194,0.05868852,-0.14903253,-0.3885684,-0.622111,-0.80318147,-0.89393985,-0.8890943,-0.8281743,-0.7612293,-0.7201058,-0.7112436,-0.7221142,-0.7382448,-0.7467245,-0.74631006,-0.7406676,-0.7318053,-0.72574836,-0.7196914,-0.7136345,-0.70920336,-0.7055692,-0.7031783,-0.6987153,-0.6918614,-0.6837961,-0.679365,-0.679365,-0.6773566,-0.6700883,-0.65960026,-0.6487297,-0.6422583,-0.63983554,-0.63782716,-0.63259906,-0.6245338,-0.6156397,-0.60598046,-0.59628934,-0.58822405,-0.57974434,-0.5728904,-0.5636138,-0.5503204,-0.5354012,-0.5216615,-0.5115879,-0.5010998,-0.48659503,-0.46804172,-0.448277,-0.43093503,-0.41639835,-0.40189362,-0.38576305,-0.36963248,-0.3563072,-0.3450222,-0.33816826,-0.33533108,-0.33615994,-0.3422169,-0.35066468,-0.3627786,-0.38133192,-0.40916193,-0.4458542,-0.48618066,-0.5257101,-0.56281686,-0.5999235,-0.63862413,-0.6765597,-0.71041477,-0.7378622,-0.7584239,-0.77493703,-0.7878479,-0.7971245,-0.80518985,-0.81245816,-0.81931204,-0.8229462,-0.8241576,-0.8225318,-0.8173037,-0.81325513,-0.80844146,-0.8035959,-0.8007587,-0.8003762,-0.8003762,-0.796742,-0.7910995,-0.78542507,-0.78220534,-0.7830023,-0.7838312,-0.78220534,-0.77735984,-0.7733431,-0.77133477,-0.77213174,-0.7725462,-0.7729287,-0.77213174,-0.77012336,-0.7664892,-0.7612293,-0.7560012,-0.7539928,-0.7567981,-0.76084673,-0.763652,-0.76406646,-0.7612293,-0.7567981,-0.75316393,-0.7507412,-0.75035864,-0.7519525,-0.7560012,-0.7580095,-0.7567981,-0.7552042,-0.752367,-0.75035864,-0.7491473,-0.7479359,-0.7471389,-0.7471389,-0.74952984,-0.7499442,-0.7487328,-0.7471389,-0.7459275,-0.7479359,-0.7499442,-0.7511556,-0.7507412,-0.7487328,-0.7479359,-0.74509865,-0.7426759,-0.7402531,-0.7394562,-0.7418789,-0.7426759,-0.7414645,-0.7386592,-0.73623645,-0.7354394,-0.73502505,-0.73461056,-0.73218787,-0.7301795,-0.7289681,-0.7301795,-0.7305939,-0.73097646,-0.73097646,-0.73097646,-0.7293825,-0.7273742,-0.7261628,-0.72654533,-0.7293825,-0.7301795,-0.7281711,-0.7241225,-0.72131723,-0.72131723,-0.7216998,-0.72131723,-0.71930885,-0.71726865,-0.7164717,-0.7164717,-0.7164717,-0.71526027,-0.7136345,-0.71325195,-0.7128376,-0.7128376,-0.71325195,-0.7148459,-0.7180975,-0.71930885,-0.7164717,-0.71082914,-0.7043578,-0.70075554,-0.7011381,-0.7027639,-0.70518667,-0.70639807,-0.70678055,-0.70598364,-0.7035608,-0.70075554,-0.6983328,-0.6979183,-0.69591,-0.6942842,-0.6942842,-0.6971214,-0.7027639,-0.7076094,-0.707195,-0.7015525,-0.6934872,-0.6870159,-0.68462497,-0.6837961,-0.68421054,-0.68341357,-0.68299913,-0.6809908,-0.678568,-0.6753483,-0.66607165,-0.6499411,-0.62813604,-0.60999715,-0.6023463,-0.6083714,-0.6245338,-0.63983554,-0.645478,-0.6442666,-0.63945293,-0.6410469,-0.651535,-0.6692914,-0.69026744,-0.70639807,-0.7160573,-0.7176831,-0.7148459,-0.7100322,-0.7076094,-0.7076094,-0.7076094,-0.7076094,-0.7076094,-0.7076094,-0.7088208,-0.7088208,-0.7088208,-0.7100322,-0.7164717,-0.7216998,-0.69591,-0.6023463,-0.42086136,-0.1643343,0.11351967,0.3522904,0.50192857,0.53457224,0.47046447,0.3313142,0.14256108,-0.08046168,-0.32968855,-0.5745163,-0.7729287,-0.8814116,-0.88788295,-0.8285887,-0.7584239,-0.7176831,-0.7116262,-0.7253339,-0.7402531,-0.7479359,-0.74831843,-0.74309033,-0.7354394,-0.7289681,-0.7233256,-0.72131723,-0.71930885,-0.7128376,-0.70477223,-0.6962925,-0.69147885,-0.68822724,-0.68462497,-0.678568,-0.6712997,-0.66486025,-0.65960026,-0.6539577,-0.6471038,-0.63862413,-0.6301763,-0.622111,-0.6148427,-0.60878575,-0.60636294,-0.6039402,-0.5979152,-0.5865983,-0.5704677,-0.5535401,-0.54104376,-0.53055567,-0.5188562,-0.504734,-0.48697764,-0.4688387,-0.44987088,-0.43214637,-0.415187,-0.39905643,-0.38496608,-0.3688355,-0.3502822,-0.3325258,-0.31798917,-0.30912685,-0.30389875,-0.30026466,-0.29863882,-0.30185854,-0.3131755,-0.3345341,-0.36236417,-0.39784503,-0.43737447,-0.48012376,-0.5224904,-0.5636138,-0.6043546,-0.6438841,-0.6822022,-0.71526027,-0.74108195,-0.76043224,-0.77656287,-0.7910995,-0.8019701,-0.80923843,-0.81366956,-0.8156779,-0.81851506,-0.8188976,-0.81771815,-0.81529534,-0.81245816,-0.8116612,-0.808824,-0.80318147,-0.797539,-0.79310787,-0.79148203,-0.79068506,-0.7882623,-0.7838312,-0.7789856,-0.77614844,-0.7729287,-0.76891196,-0.7648634,-0.76164365,-0.76084673,-0.76043224,-0.7592209,-0.7580095,-0.7572125,-0.7584239,-0.75880647,-0.75759506,-0.7560012,-0.75357836,-0.7539928,-0.75437534,-0.7552042,-0.75478977,-0.75478977,-0.75558674,-0.75558674,-0.75437534,-0.7539928,-0.75437534,-0.7560012,-0.7564156,-0.75478977,-0.7527814,-0.7519525,-0.75316393,-0.75357836,-0.75157,-0.7491473,-0.7475214,-0.7471389,-0.74831843,-0.7475214,-0.7479359,-0.7487328,-0.74952984,-0.7507412,-0.75035864,-0.7487328,-0.74631006,-0.74631006,-0.74509865,-0.74309033,-0.74108195,-0.73904175,-0.7394562,-0.7394562,-0.7382448,-0.7366508,-0.73502505,-0.73582196,-0.7366508,-0.73582196,-0.7333992,-0.7318053,-0.73097646,-0.72979695,-0.7285856,-0.72775674,-0.7281711,-0.73097646,-0.73139083,-0.72979695,-0.7249514,-0.72052026,-0.71930885,-0.71848005,-0.7180975,-0.71726865,-0.7168861,-0.71930885,-0.7216998,-0.7233256,-0.7233256,-0.72131723,-0.7188945,-0.71526027,-0.7112436,-0.7055692,-0.7043578,-0.70639807,-0.70799196,-0.70961773,-0.70961773,-0.7088208,-0.7100322,-0.7112436,-0.71041477,-0.707195,-0.7031783,-0.7019669,-0.7023494,-0.7019669,-0.70075554,-0.6987153,-0.6991297,-0.69954413,-0.6983328,-0.6942842,-0.6878447,-0.68258476,-0.678568,-0.6757308,-0.6725111,-0.66808,-0.66607165,-0.66645414,-0.6656572,-0.66364884,-0.6539577,-0.63540435,-0.6104115,-0.58863854,-0.5789474,-0.58458984,-0.60193187,-0.6188594,-0.62654215,-0.6257133,-0.622111,-0.6237049,-0.63460743,-0.6531608,-0.67493385,-0.6946986,-0.7088208,-0.7148459,-0.7128376,-0.707195,-0.7011381,-0.69992673,-0.7015525,-0.7027639,-0.70518667,-0.70639807,-0.707195,-0.7076094,-0.7076094,-0.70920336,-0.7180975,-0.72453696,-0.6950811,-0.5918582,-0.39424276,-0.11836529,0.17686248,0.42851222,0.58902085,0.6305586,0.57088196,0.42771518,0.22241688,-0.024801612,-0.3006472,-0.5648252,-0.7733431,-0.8842488,-0.89068824,-0.8326373,-0.76527786,-0.7269597,-0.7221142,-0.73461056,-0.7475214,-0.75437534,-0.7552042,-0.75157,-0.74631006,-0.7394562,-0.73218787,-0.7285856,-0.7249514,-0.7209028,-0.71567476,-0.7088208,-0.7027639,-0.6962925,-0.6898531,-0.68421054,-0.67895055,-0.67493385,-0.6692914,-0.66202307,-0.6539577,-0.6463069,-0.63983554,-0.63177025,-0.622908,-0.6136313,-0.6043546,-0.5970863,-0.589021,-0.577736,-0.5648252,-0.5494915,-0.53661263,-0.5237018,-0.51037645,-0.49625432,-0.47974116,-0.46278173,-0.4434315,-0.4212439,-0.39947087,-0.37890917,-0.36115277,-0.34460777,-0.32688326,-0.30954134,-0.2954191,-0.28655678,-0.27928853,-0.27565432,-0.27523988,-0.27970296,-0.29341072,-0.31559825,-0.34460777,-0.38091755,-0.42366672,-0.46963567,-0.5164335,-0.56281686,-0.6083714,-0.65233195,-0.6946986,-0.72979695,-0.75558674,-0.7745545,-0.78867674,-0.79996175,-0.808824,-0.81366956,-0.8173037,-0.81931204,-0.8221493,-0.8233607,-0.8213204,-0.81851506,-0.81488097,-0.81366956,-0.81245816,-0.80923843,-0.80518985,-0.8019701,-0.80117315,-0.8007587,-0.7991648,-0.79591316,-0.79189646,-0.7898881,-0.78867674,-0.7862539,-0.7838312,-0.78220534,-0.78220534,-0.7818228,-0.7789856,-0.7745545,-0.77092034,-0.77133477,-0.7729287,-0.7737575,-0.7729287,-0.77012336,-0.7684976,-0.7672862,-0.7648634,-0.76285505,-0.76164365,-0.76164365,-0.76043224,-0.76164365,-0.7632695,-0.76527786,-0.7692945,-0.7692945,-0.76527786,-0.7612293,-0.7584239,-0.7584239,-0.7596353,-0.7592209,-0.7572125,-0.75478977,-0.75437534,-0.75357836,-0.7511556,-0.74831843,-0.7459275,-0.7455131,-0.7455131,-0.7455131,-0.7443017,-0.74350476,-0.74471617,-0.7443017,-0.74229336,-0.73904175,-0.7366508,-0.73623645,-0.73703337,-0.7366508,-0.7354394,-0.73381364,-0.7333992,-0.73301667,-0.73139083,-0.72979695,-0.7285856,-0.7289681,-0.7281711,-0.7253339,-0.7229111,-0.7221142,-0.7249514,-0.7273742,-0.7269597,-0.7241225,-0.7216998,-0.7221142,-0.72453696,-0.72453696,-0.7221142,-0.71848005,-0.7180975,-0.71930885,-0.7196914,-0.7196914,-0.7180975,-0.7168861,-0.71526027,-0.712455,-0.70920336,-0.70678055,-0.70799196,-0.71041477,-0.7116262,-0.71082914,-0.70961773,-0.70961773,-0.70920336,-0.7076094,-0.70598364,-0.7035608,-0.70477223,-0.70598364,-0.7035608,-0.6979183,-0.69026744,-0.68462497,-0.6817877,-0.679365,-0.6773566,-0.6753483,-0.6753483,-0.673308,-0.6652428,-0.6471038,-0.6212822,-0.5987121,-0.58822405,-0.5926552,-0.6083714,-0.6261277,-0.63824165,-0.63983554,-0.6337786,-0.6285505,-0.63259906,-0.6511524,-0.6777392,-0.7035608,-0.7209028,-0.7261628,-0.7241225,-0.7188945,-0.7136345,-0.712455,-0.71446335,-0.7188945,-0.72374,-0.7253339,-0.7249514,-0.72374,-0.72453696,-0.7261628,-0.7301795,-0.73301667,-0.707195,-0.61525714,-0.4293092,-0.15263486,0.16474855,0.45312238,0.65357494,0.7281709,0.6870476,0.54952335,0.33858252,0.08167291,-0.20912373,-0.49303454,-0.72654533,-0.86732125,-0.8995824,-0.853996,-0.7842137,-0.73703337,-0.72574836,-0.7402531,-0.75880647,-0.7692945,-0.76891196,-0.76084673,-0.7527814,-0.74471617,-0.7374478,-0.7305939,-0.7241225,-0.7201058,-0.7148459,-0.7076094,-0.6987153,-0.69026744,-0.68421054,-0.67895055,-0.6729255,-0.6656572,-0.6575919,-0.6531608,-0.6495266,-0.6438841,-0.63581884,-0.6245338,-0.61404574,-0.6035577,-0.5946635,-0.58621573,-0.5773216,-0.56766236,-0.5559629,-0.54104376,-0.5249132,-0.50795376,-0.49303454,-0.47690398,-0.45835066,-0.4402117,-0.42086136,-0.40109664,-0.38050306,-0.35793304,-0.33494854,-0.31476945,-0.2990533,-0.28451663,-0.27080876,-0.25872684,-0.24823874,-0.24297881,-0.24176747,-0.24661303,-0.25993818,-0.2833053,-0.31760657,-0.35872996,-0.40310502,-0.44987088,-0.49829453,-0.549109,-0.5982977,-0.6442666,-0.68542194,-0.72052026,-0.7527814,-0.77940005,-0.8007587,-0.8160923,-0.8265804,-0.8346457,-0.8394912,-0.84108514,-0.84108514,-0.8394912,-0.8390768,-0.8378654,-0.8338487,-0.82900316,-0.8241576,-0.8225318,-0.8229462,-0.8225318,-0.8213204,-0.8188976,-0.8173037,-0.8160923,-0.81408393,-0.8108323,-0.808027,-0.80640125,-0.80518985,-0.80276704,-0.8003762,-0.797539,-0.796742,-0.7951162,-0.7910995,-0.78583956,-0.7814084,-0.7797826,-0.7797826,-0.7781887,-0.7757659,-0.77414006,-0.77614844,-0.7789856,-0.77940005,-0.7769773,-0.7737575,-0.7725462,-0.77213174,-0.77092034,-0.76808316,-0.7648634,-0.763652,-0.76285505,-0.7612293,-0.7596353,-0.7584239,-0.7596353,-0.76043224,-0.7600179,-0.75880647,-0.75759506,-0.7584239,-0.75759506,-0.7552042,-0.7519525,-0.7499442,-0.7511556,-0.7527814,-0.7539928,-0.7539928,-0.752367,-0.7519525,-0.75035864,-0.7471389,-0.7443017,-0.74229336,-0.74309033,-0.74350476,-0.7426759,-0.74108195,-0.73987055,-0.74108195,-0.74229336,-0.74229336,-0.73987055,-0.7374478,-0.7374478,-0.73703337,-0.7354394,-0.73301667,-0.73097646,-0.7301795,-0.7293825,-0.72775674,-0.7261628,-0.72574836,-0.7273742,-0.7273742,-0.72574836,-0.7229111,-0.72131723,-0.7229111,-0.7241225,-0.7233256,-0.71848005,-0.71567476,-0.7160573,-0.71848005,-0.7216998,-0.7221142,-0.71930885,-0.7168861,-0.71404886,-0.71041477,-0.70518667,-0.69954413,-0.6950811,-0.6898531,-0.68462497,-0.679365,-0.6765597,-0.67614526,-0.6737225,-0.66243744,-0.64024997,-0.6116229,-0.589818,-0.5813702,-0.58742714,-0.60476905,-0.62332237,-0.63703024,-0.64066434,-0.63703024,-0.63581884,-0.6442666,-0.66645414,-0.69390166,-0.71446335,-0.72374,-0.7225286,-0.71848005,-0.71567476,-0.7148459,-0.7160573,-0.71848005,-0.7221142,-0.7241225,-0.7241225,-0.7229111,-0.7229111,-0.72574836,-0.73097646,-0.7382448,-0.7333992,-0.6822022,-0.5478976,-0.30912685,0.013102055,0.3539163,0.6402497,0.8084413,0.8338487,0.73907363,0.5486944,0.29219925,-0.0098823905,-0.33010298,-0.6192738,-0.8281743,-0.9205585,-0.9068188,-0.8378654,-0.7672862,-0.73139083,-0.73097646,-0.74952984,-0.76808316,-0.7757659,-0.77213174,-0.763652,-0.7560012,-0.7491473,-0.7418789,-0.7342281,-0.7261628,-0.71930885,-0.7112436,-0.7023494,-0.6934872,-0.6858363,-0.6822022,-0.678568,-0.6712997,-0.66243744,-0.65233195,-0.64468104,-0.63903856,-0.6329816,-0.6245338,-0.61525714,-0.6067774,-0.5979152,-0.58863854,-0.57853293,-0.5680449,-0.55755687,-0.5442635,-0.5277185,-0.51037645,-0.49303454,-0.47770095,-0.4619848,-0.443017,-0.4212439,-0.39784503,-0.3769008,-0.35551023,-0.33415163,-0.312761,-0.29178488,-0.2748574,-0.25952375,-0.24623036,-0.23612493,-0.23006797,-0.23048234,-0.23574233,-0.24540156,-0.2611496,-0.28693932,-0.3256719,-0.37243778,-0.42366672,-0.47569257,-0.5281329,-0.58095574,-0.6309733,-0.6757308,-0.71404886,-0.7471389,-0.7781887,-0.80276704,-0.81972647,-0.8305971,-0.83827984,-0.84551626,-0.8515732,-0.85479295,-0.85358155,-0.84956485,-0.8463451,-0.84312534,-0.8386624,-0.8350601,-0.8326373,-0.8322229,-0.83101153,-0.8273773,-0.8209379,-0.8144665,-0.8108323,-0.80844146,-0.80518985,-0.79996175,-0.7955306,-0.7934904,-0.79269344,-0.79310787,-0.792279,-0.7902707,-0.7878479,-0.7842137,-0.7797826,-0.7757659,-0.77414006,-0.77535146,-0.77614844,-0.7757659,-0.77414006,-0.7729287,-0.77535146,-0.7777742,-0.7785712,-0.77656287,-0.77414006,-0.77414006,-0.77614844,-0.7777742,-0.7777742,-0.77656287,-0.77656287,-0.77535146,-0.7725462,-0.77012336,-0.7684976,-0.76970893,-0.7717173,-0.7725462,-0.7705059,-0.7677006,-0.7664892,-0.7660748,-0.76566035,-0.7644808,-0.7624406,-0.76164365,-0.7600179,-0.7592209,-0.75759506,-0.75558674,-0.75437534,-0.752367,-0.7499442,-0.7479359,-0.7475214,-0.74952984,-0.7507412,-0.7499442,-0.7467245,-0.74350476,-0.74350476,-0.7455131,-0.7471389,-0.74831843,-0.74631006,-0.7443017,-0.7418789,-0.73904175,-0.7374478,-0.7366508,-0.73703337,-0.7366508,-0.73461056,-0.73218787,-0.72979695,-0.73139083,-0.73301667,-0.73381364,-0.7318053,-0.7285856,-0.7273742,-0.7273742,-0.7273742,-0.7269597,-0.72654533,-0.72775674,-0.7285856,-0.7273742,-0.7241225,-0.7201058,-0.7168861,-0.71325195,-0.707195,-0.69992673,-0.6930728,-0.6890561,-0.68743026,-0.6858363,-0.6837961,-0.67493385,-0.6575919,-0.6321846,-0.6083714,-0.59670377,-0.60193187,-0.6204852,-0.63903856,-0.6479008,-0.64589244,-0.64066434,-0.6410469,-0.6527464,-0.6757308,-0.7031783,-0.7273742,-0.7426759,-0.74631006,-0.7426759,-0.7374478,-0.73381364,-0.73381364,-0.7342281,-0.7342281,-0.7354394,-0.73623645,-0.73904175,-0.7402531,-0.73904175,-0.7402531,-0.7479359,-0.7519525,-0.71526027,-0.59428096,-0.36398995,-0.039306402,0.31518364,0.62332225,0.81931186,0.86853254,0.7898878,0.6067773,0.35028195,0.04335487,-0.28977656,-0.5982977,-0.82900316,-0.938283,-0.9298352,-0.85683316,-0.7818228,-0.7438873,-0.74471617,-0.7644808,-0.78462815,-0.79310787,-0.79148203,-0.7826198,-0.77092034,-0.7596353,-0.7511556,-0.7471389,-0.7438873,-0.73904175,-0.7318053,-0.7225286,-0.71526027,-0.7088208,-0.7023494,-0.6946986,-0.6858363,-0.6773566,-0.6688769,-0.6600146,-0.6519494,-0.6442666,-0.63983554,-0.63460743,-0.6269247,-0.61726546,-0.6043546,-0.5918582,-0.5789474,-0.5660366,-0.55232877,-0.53740954,-0.5232873,-0.50674236,-0.48697764,-0.46561897,-0.4442284,-0.42366672,-0.4026906,-0.38012052,-0.3563072,-0.3337372,-0.3139724,-0.2954191,-0.2764513,-0.25789797,-0.24138492,-0.23048234,-0.22483987,-0.22321403,-0.22684824,-0.23733628,-0.25710106,-0.28451663,-0.31961495,-0.36236417,-0.41158473,-0.4668303,-0.5228729,-0.5765246,-0.6249163,-0.6688769,-0.70961773,-0.7443017,-0.7729287,-0.7943192,-0.80923843,-0.8225318,-0.8322229,-0.8398738,-0.8463451,-0.8491504,-0.8515732,-0.85077626,-0.8459307,-0.84028816,-0.83544266,-0.83423126,-0.8346457,-0.8338487,-0.83180845,-0.82900316,-0.82696295,-0.82495457,-0.8209379,-0.8144665,-0.80844146,-0.8060187,-0.8043929,-0.8019701,-0.797539,-0.79269344,-0.7902707,-0.79068506,-0.7910995,-0.7902707,-0.78867674,-0.7878479,-0.7866365,-0.7842137,-0.7806114,-0.7789856,-0.780994,-0.78341675,-0.78462815,-0.7814084,-0.77735984,-0.77535146,-0.77493703,-0.77535146,-0.7757659,-0.77614844,-0.7781887,-0.7797826,-0.7797826,-0.7769773,-0.7745545,-0.77493703,-0.7769773,-0.7777742,-0.77614844,-0.7729287,-0.76891196,-0.7664892,-0.7664892,-0.7677006,-0.7672862,-0.76808316,-0.76687175,-0.76406646,-0.7624406,-0.7612293,-0.76164365,-0.7620581,-0.7596353,-0.7572125,-0.75478977,-0.75437534,-0.75357836,-0.752367,-0.7507412,-0.7499442,-0.75316393,-0.7560012,-0.7560012,-0.75157,-0.7459275,-0.74309033,-0.74350476,-0.7459275,-0.74631006,-0.74509865,-0.7426759,-0.7394562,-0.73703337,-0.73502505,-0.73381364,-0.73502505,-0.73461056,-0.7318053,-0.7269597,-0.72131723,-0.71567476,-0.71082914,-0.70639807,-0.7011381,-0.69670695,-0.6946986,-0.68943864,-0.6753483,-0.6531608,-0.62934744,-0.6136313,-0.6107941,-0.6196883,-0.63259906,-0.6426727,-0.6483152,-0.6495266,-0.650738,-0.6567949,-0.6741369,-0.69954413,-0.72374,-0.7386592,-0.7418789,-0.73904175,-0.7374478,-0.73703337,-0.73703337,-0.73623645,-0.73582196,-0.7394562,-0.74229336,-0.7418789,-0.7378622,-0.73381364,-0.7333992,-0.7378622,-0.74509865,-0.7366508,-0.6741369,-0.5261246,-0.27163768,0.063916564,0.40795052,0.6817876,0.8165066,0.8056041,0.6789824,0.46762717,0.19500136,-0.12764204,-0.4619848,-0.7475214,-0.9241608,-0.96611303,-0.9112818,-0.8225318,-0.75558674,-0.7305939,-0.73987055,-0.7620581,-0.7785712,-0.780197,-0.7717173,-0.7600179,-0.75316393,-0.7499442,-0.7467245,-0.74229336,-0.73502505,-0.7269597,-0.7188945,-0.71041477,-0.7031783,-0.6962925,-0.6910645,-0.68621886,-0.6805764,-0.6741369,-0.66645414,-0.65838885,-0.6483152,-0.63661575,-0.6237049,-0.61241996,-0.6043546,-0.5975007,-0.5910294,-0.5837929,-0.57368743,-0.56240237,-0.5482802,-0.53055567,-0.5123849,-0.49466032,-0.47811538,-0.45997643,-0.43941474,-0.4160158,-0.39303136,-0.37447798,-0.35672164,-0.33937967,-0.32245213,-0.3026874,-0.284931,-0.2688005,-0.25388128,-0.24380761,-0.240556,-0.24501896,-0.25668657,-0.27364606,-0.29863882,-0.33294016,-0.376072,-0.42487812,-0.47489566,-0.5261246,-0.5773216,-0.62813604,-0.6745194,-0.71325195,-0.7443017,-0.77133477,-0.7955306,-0.8160923,-0.8314259,-0.8407026,-0.8435079,-0.8475565,-0.8511907,-0.8544104,-0.85683316,-0.8556218,-0.853199,-0.8499793,-0.8459307,-0.84149957,-0.836654,-0.8326373,-0.8281743,-0.8225318,-0.8156779,-0.81044984,-0.80923843,-0.80923843,-0.80844146,-0.8048073,-0.7983359,-0.79148203,-0.7862539,-0.78341675,-0.7806114,-0.7781887,-0.7769773,-0.7757659,-0.77414006,-0.7745545,-0.7745545,-0.77535146,-0.7737575,-0.77133477,-0.76891196,-0.76808316,-0.76891196,-0.7684976,-0.7664892,-0.76566035,-0.76566035,-0.7684976,-0.77012336,-0.7684976,-0.7664892,-0.7644808,-0.7644808,-0.76406646,-0.76285505,-0.76084673,-0.76084673,-0.7648634,-0.76891196,-0.7684976,-0.7660748,-0.7620581,-0.76164365,-0.76285505,-0.7632695,-0.7620581,-0.76043224,-0.7612293,-0.7624406,-0.7620581,-0.7596353,-0.7572125,-0.7580095,-0.75880647,-0.7567981,-0.7519525,-0.7467245,-0.74509865,-0.74471617,-0.7455131,-0.7459275,-0.74509865,-0.74631006,-0.74509865,-0.74108195,-0.73502505,-0.7305939,-0.7301795,-0.73260224,-0.73502505,-0.73582196,-0.73502505,-0.73461056,-0.7333992,-0.7281711,-0.7209028,-0.7128376,-0.7088208,-0.70678055,-0.70639807,-0.7076094,-0.7076094,-0.70678055,-0.6987153,-0.6797794,-0.6511524,-0.62332237,-0.6116229,-0.6148427,-0.62934744,-0.645478,-0.6559661,-0.65838885,-0.6567949,-0.65558356,-0.66081166,-0.67614526,-0.7015525,-0.7269597,-0.7426759,-0.74471617,-0.7378622,-0.7301795,-0.7249514,-0.7229111,-0.7253339,-0.7285856,-0.73218787,-0.73502505,-0.7354394,-0.7333992,-0.7318053,-0.73301667,-0.7402531,-0.7471389,-0.72979695,-0.6495266,-0.47690398,-0.2034812,0.12684488,0.43778884,0.6531606,0.72373986,0.66686857,0.5184417,0.30711842,0.04861486,-0.2522555,-0.5555485,-0.8023845,-0.93748605,-0.9511938,-0.887086,-0.8056042,-0.74952984,-0.73097646,-0.7394562,-0.75759506,-0.77092034,-0.7733431,-0.7664892,-0.7560012,-0.7471389,-0.7414645,-0.73623645,-0.7305939,-0.72654533,-0.7221142,-0.7160573,-0.70799196,-0.6983328,-0.6898531,-0.68421054,-0.679365,-0.673308,-0.6656572,-0.6580063,-0.65354335,-0.6471038,-0.63862413,-0.6273391,-0.61605406,-0.60757434,-0.5999235,-0.5910294,-0.5781504,-0.5636138,-0.5515318,-0.5402149,-0.53014123,-0.51805925,-0.50151426,-0.4833753,-0.46399313,-0.443017,-0.42245537,-0.4026906,-0.38534862,-0.36842108,-0.3490708,-0.3280946,-0.3087443,-0.29379326,-0.28371966,-0.27565432,-0.26921487,-0.26478374,-0.26717466,-0.27686572,-0.29420775,-0.32002944,-0.3542989,-0.3986739,-0.44786257,-0.49950588,-0.549906,-0.5979152,-0.6434697,-0.68299913,-0.7160573,-0.74350476,-0.76687175,-0.79068506,-0.81003535,-0.8233607,-0.83180845,-0.8346457,-0.83585703,-0.837451,-0.83706844,-0.8346457,-0.8322229,-0.8298001,-0.82779175,-0.82495457,-0.8221493,-0.81931204,-0.8188976,-0.81851506,-0.8160923,-0.81245816,-0.8068156,-0.80318147,-0.79996175,-0.7963276,-0.79189646,-0.78867674,-0.7878479,-0.78746533,-0.7850425,-0.780197,-0.7757659,-0.7733431,-0.77213174,-0.7725462,-0.7729287,-0.7733431,-0.77614844,-0.7789856,-0.7777742,-0.7729287,-0.76891196,-0.7677006,-0.76970893,-0.77213174,-0.7717173,-0.76808316,-0.7660748,-0.76808316,-0.7733431,-0.7806114,-0.7830023,-0.7818228,-0.7757659,-0.76687175,-0.7600179,-0.7580095,-0.7600179,-0.7624406,-0.763652,-0.76285505,-0.76043224,-0.76084673,-0.76084673,-0.7612293,-0.76043224,-0.7592209,-0.7600179,-0.75880647,-0.7560012,-0.75316393,-0.7511556,-0.75357836,-0.75478977,-0.75357836,-0.7511556,-0.7487328,-0.7467245,-0.7443017,-0.7378622,-0.7318053,-0.73097646,-0.7374478,-0.74631006,-0.75157,-0.75035864,-0.7467245,-0.74350476,-0.73987055,-0.7382448,-0.7354394,-0.7333992,-0.73381364,-0.7333992,-0.7318053,-0.7285856,-0.72654533,-0.7293825,-0.7281711,-0.7241225,-0.7164717,-0.707195,-0.7003411,-0.69670695,-0.6962925,-0.69954413,-0.70075554,-0.69670695,-0.679365,-0.6491122,-0.6204852,-0.60598046,-0.61120856,-0.62813604,-0.6434697,-0.6511524,-0.6503236,-0.6483152,-0.6479008,-0.65558356,-0.67209667,-0.6954956,-0.71848005,-0.7366508,-0.74309033,-0.7402531,-0.73582196,-0.73260224,-0.7318053,-0.73218787,-0.7333992,-0.7342281,-0.73502505,-0.73461056,-0.7318053,-0.72775674,-0.7253339,-0.7305939,-0.73904175,-0.72453696,-0.64468104,-0.47205842,-0.20587212,0.11192572,0.40351927,0.6023462,0.6660714,0.6075742,0.46440732,0.26194644,0.013102055,-0.2776627,-0.5741018,-0.8168893,-0.9495999,-0.9564538,-0.8834518,-0.7963276,-0.7386592,-0.72374,-0.7354394,-0.7552042,-0.76970893,-0.77493703,-0.77133477,-0.7620581,-0.75157,-0.7426759,-0.7354394,-0.7305939,-0.7253339,-0.71930885,-0.712455,-0.70678055,-0.7011381,-0.69591,-0.6890561,-0.6822022,-0.67209667,-0.66081166,-0.6527464,-0.6463069,-0.64305526,-0.63862413,-0.6309733,-0.6204852,-0.6104115,-0.6031433,-0.59507793,-0.5853869,-0.5733049,-0.55918264,-0.5482802,-0.53740954,-0.5261246,-0.5115879,-0.49587178,-0.47932678,-0.45914757,-0.43737447,-0.41560143,-0.3954541,-0.37890917,-0.3627786,-0.34543663,-0.3272658,-0.31196404,-0.30185854,-0.29462212,-0.2893622,-0.28572798,-0.28572798,-0.29462212,-0.3131755,-0.3385827,-0.37205523,-0.41075587,-0.4555453,-0.50431955,-0.5535401,-0.60030603,-0.64305526,-0.68137336,-0.7164717,-0.7487328,-0.77614844,-0.79875034,-0.81650674,-0.8273773,-0.8326373,-0.8350601,-0.8386624,-0.8435079,-0.8471421,-0.8459307,-0.8398738,-0.8326373,-0.8298001,-0.8281743,-0.8273773,-0.8241576,-0.81771815,-0.8156779,-0.8156779,-0.81650674,-0.8160923,-0.81124675,-0.80518985,-0.7995473,-0.79269344,-0.7878479,-0.7850425,-0.7850425,-0.7862539,-0.78583956,-0.7814084,-0.77656287,-0.7729287,-0.77133477,-0.7733431,-0.7745545,-0.77735984,-0.7785712,-0.7769773,-0.77213174,-0.76687175,-0.7648634,-0.76808316,-0.7737575,-0.77656287,-0.7745545,-0.76970893,-0.7660748,-0.7660748,-0.7684976,-0.77092034,-0.77133477,-0.77012336,-0.7664892,-0.7632695,-0.76164365,-0.7624406,-0.76687175,-0.7705059,-0.7717173,-0.7684976,-0.76566035,-0.7644808,-0.76527786,-0.76566035,-0.7644808,-0.7620581,-0.7592209,-0.7572125,-0.7552042,-0.75357836,-0.7539928,-0.7552042,-0.7564156,-0.7560012,-0.75478977,-0.7527814,-0.75357836,-0.7552042,-0.7539928,-0.75157,-0.7491473,-0.7467245,-0.74509865,-0.7455131,-0.74509865,-0.7443017,-0.74509865,-0.74471617,-0.7414645,-0.7382448,-0.7382448,-0.7394562,-0.7402531,-0.7378622,-0.7318053,-0.7273742,-0.7281711,-0.7305939,-0.73139083,-0.7273742,-0.72131723,-0.7168861,-0.71325195,-0.71082914,-0.7076094,-0.70678055,-0.70920336,-0.7112436,-0.7084064,-0.6918614,-0.66686857,-0.64305526,-0.6257133,-0.622908,-0.6309733,-0.6438841,-0.6567949,-0.66364884,-0.66364884,-0.66081166,-0.66202307,-0.6777392,-0.7003411,-0.7233256,-0.7366508,-0.73703337,-0.73139083,-0.72654533,-0.7233256,-0.7225286,-0.7229111,-0.72374,-0.72574836,-0.7269597,-0.72979695,-0.73218787,-0.7354394,-0.73623645,-0.7366508,-0.73904175,-0.72979695,-0.6777392,-0.5454749,-0.3184036,-0.021167457,0.2768656,0.5063596,0.61563957,0.601549,0.49424577,0.31840336,0.09216094,-0.17686254,-0.46440756,-0.7196914,-0.8890943,-0.9463483,-0.9112818,-0.83544266,-0.7692945,-0.73582196,-0.7318053,-0.7438873,-0.7564156,-0.76285505,-0.7620581,-0.7584239,-0.7519525,-0.74471617,-0.7366508,-0.7285856,-0.7233256,-0.7196914,-0.7168861,-0.71204054,-0.70518667,-0.69670695,-0.68621886,-0.6765597,-0.6688769,-0.6640314,-0.66282,-0.6616086,-0.6567949,-0.6483152,-0.6374128,-0.62654215,-0.6164366,-0.605566,-0.5946635,-0.5850043,-0.5773216,-0.5708821,-0.5620198,-0.55111736,-0.53862095,-0.52529573,-0.50957954,-0.49102622,-0.4700501,-0.4494884,-0.43415475,-0.42003256,-0.40351945,-0.38496608,-0.3655839,-0.3490708,-0.33615994,-0.3244605,-0.31438684,-0.3067041,-0.30389875,-0.30632156,-0.3131755,-0.32646888,-0.34703058,-0.37849474,-0.4176098,-0.45835066,-0.49867707,-0.53740954,-0.5793618,-0.622908,-0.66808,-0.7076094,-0.7382448,-0.76285505,-0.77940005,-0.7934904,-0.80640125,-0.81771815,-0.8293857,-0.8378654,-0.8407026,-0.8378654,-0.83301985,-0.83101153,-0.83180845,-0.83301985,-0.8322229,-0.8265804,-0.81851506,-0.81366956,-0.81245816,-0.8144665,-0.8168893,-0.8181007,-0.81245816,-0.8043929,-0.79591316,-0.7890593,-0.78746533,-0.78746533,-0.7878479,-0.7870509,-0.7866365,-0.7866365,-0.7838312,-0.7781887,-0.7729287,-0.7705059,-0.77133477,-0.7733431,-0.7717173,-0.7672862,-0.7644808,-0.76527786,-0.76687175,-0.7677006,-0.7684976,-0.76891196,-0.77213174,-0.7745545,-0.7737575,-0.76891196,-0.763652,-0.76164365,-0.76285505,-0.7644808,-0.7632695,-0.7600179,-0.7584239,-0.76084673,-0.76406646,-0.76566035,-0.7632695,-0.75880647,-0.7539928,-0.75157,-0.7499442,-0.75035864,-0.75316393,-0.7552042,-0.7539928,-0.75035864,-0.7467245,-0.7459275,-0.7471389,-0.7499442,-0.7511556,-0.7511556,-0.75157,-0.7499442,-0.7475214,-0.7438873,-0.74350476,-0.7438873,-0.7467245,-0.7487328,-0.7467245,-0.7443017,-0.7443017,-0.74309033,-0.74309033,-0.7418789,-0.7406676,-0.74108195,-0.7406676,-0.7394562,-0.7382448,-0.73703337,-0.7378622,-0.7386592,-0.73904175,-0.73904175,-0.7394562,-0.74350476,-0.7438873,-0.7382448,-0.7269597,-0.7168861,-0.71325195,-0.712455,-0.7136345,-0.7088208,-0.7019669,-0.6971214,-0.6942842,-0.68743026,-0.6717141,-0.6479008,-0.62654215,-0.6148427,-0.6188594,-0.63177025,-0.645478,-0.65558356,-0.6559661,-0.65233195,-0.6499411,-0.6575919,-0.6765597,-0.70075554,-0.72131723,-0.73301667,-0.73381364,-0.73097646,-0.72654533,-0.7233256,-0.7225286,-0.7241225,-0.7293825,-0.73097646,-0.7293825,-0.7253339,-0.7229111,-0.7253339,-0.73139083,-0.7402531,-0.74350476,-0.71567476,-0.62332237,-0.4402117,-0.16917986,0.13612151,0.40473068,0.57129633,0.6043546,0.5301411,0.38416898,0.18652165,-0.05142021,-0.32525748,-0.5979152,-0.81408393,-0.9274124,-0.9310466,-0.8669068,-0.7910995,-0.74229336,-0.7301795,-0.7406676,-0.75478977,-0.76084673,-0.7596353,-0.75558674,-0.75437534,-0.75437534,-0.7507412,-0.7438873,-0.7342281,-0.7273742,-0.72374,-0.7209028,-0.71567476,-0.707195,-0.69591,-0.68462497,-0.6765597,-0.6737225,-0.6729255,-0.67088526,-0.66364884,-0.6519494,-0.63782716,-0.6269247,-0.6224935,-0.61806244,-0.6104115,-0.6007205,-0.589021,-0.57853293,-0.56887376,-0.55838567,-0.5462718,-0.53135264,-0.51480764,-0.4966687,-0.47932678,-0.46319616,-0.45028532,-0.4382034,-0.420447,-0.3974625,-0.3716408,-0.3486563,-0.33415163,-0.32646888,-0.32082635,-0.312761,-0.30511022,-0.30227292,-0.30511022,-0.31559825,-0.32930607,-0.34945333,-0.3792917,-0.41882116,-0.46520454,-0.516019,-0.5636138,-0.6083714,-0.6479008,-0.68462497,-0.7196914,-0.7499442,-0.7757659,-0.79310787,-0.8023845,-0.8076126,-0.8144665,-0.8233607,-0.83180845,-0.83585703,-0.8338487,-0.8298001,-0.8273773,-0.82696295,-0.8273773,-0.826166,-0.8241576,-0.8221493,-0.8188976,-0.81408393,-0.80518985,-0.796742,-0.79189646,-0.79068506,-0.7902707,-0.78867674,-0.7838312,-0.7814084,-0.77940005,-0.7789856,-0.77735984,-0.77535146,-0.7745545,-0.7725462,-0.76891196,-0.7648634,-0.7632695,-0.76566035,-0.7705059,-0.7737575,-0.7717173,-0.76687175,-0.763652,-0.7620581,-0.7612293,-0.7596353,-0.75759506,-0.7560012,-0.7580095,-0.76043224,-0.76164365,-0.7612293,-0.7620581,-0.7600179,-0.7584239,-0.7552042,-0.7507412,-0.7491473,-0.7487328,-0.7491473,-0.74952984,-0.7499442,-0.7511556,-0.75035864,-0.74952984,-0.7467245,-0.7438873,-0.7443017,-0.74509865,-0.7459275,-0.7443017,-0.7418789,-0.7414645,-0.74108195,-0.7418789,-0.74108195,-0.7394562,-0.7402531,-0.7406676,-0.7406676,-0.7374478,-0.73301667,-0.7301795,-0.7289681,-0.7289681,-0.7273742,-0.7253339,-0.7261628,-0.7281711,-0.7301795,-0.73097646,-0.7285856,-0.7269597,-0.7261628,-0.7269597,-0.72654533,-0.7249514,-0.72374,-0.7229111,-0.72453696,-0.72453696,-0.7229111,-0.7188945,-0.7116262,-0.7039753,-0.6979183,-0.6950811,-0.69390166,-0.6930728,-0.6922758,-0.6910645,-0.68822724,-0.67895055,-0.66039723,-0.6362014,-0.61605406,-0.60878575,-0.6164366,-0.63259906,-0.6466894,-0.65233195,-0.6531608,-0.65437216,-0.65838885,-0.6696739,-0.68621886,-0.7039753,-0.7209028,-0.7301795,-0.73218787,-0.72775674,-0.72374,-0.7225286,-0.7241225,-0.7261628,-0.7261628,-0.72574836,-0.72654533,-0.7281711,-0.7293825,-0.7293825,-0.7301795,-0.7374478,-0.7378622,-0.6987153,-0.58175266,-0.3700469,-0.08288437,0.21677446,0.46077335,0.59549236,0.601549,0.5087825,0.3438108,0.12968206,-0.12120259,-0.39503974,-0.65233195,-0.8390768,-0.9201441,-0.90117633,-0.8314259,-0.7660748,-0.7333992,-0.7318053,-0.74509865,-0.7560012,-0.75880647,-0.75437534,-0.7471389,-0.7406676,-0.73623645,-0.7342281,-0.73097646,-0.7241225,-0.7148459,-0.70639807,-0.6991297,-0.6942842,-0.69065,-0.6850075,-0.67895055,-0.673308,-0.66645414,-0.6588033,-0.6511524,-0.64509547,-0.64187574,-0.63703024,-0.6297619,-0.617648,-0.60476905,-0.59507793,-0.58621573,-0.57693905,-0.5668335,-0.5559629,-0.5450604,-0.53256404,-0.5184418,-0.5010998,-0.48417228,-0.47046453,-0.45713925,-0.44142312,-0.42207277,-0.40026778,-0.38050306,-0.36236417,-0.34581912,-0.33010298,-0.31559825,-0.30469579,-0.29663044,-0.29057354,-0.28776824,-0.29137045,-0.301476,-0.32324916,-0.35149354,-0.38617748,-0.4265039,-0.4712615,-0.5172304,-0.5608084,-0.6011349,-0.63945293,-0.6773566,-0.712455,-0.74229336,-0.7644808,-0.78220534,-0.7971245,-0.8076126,-0.81408393,-0.8156779,-0.8144665,-0.8156779,-0.8168893,-0.81771815,-0.8168893,-0.8156779,-0.81650674,-0.81650674,-0.81366956,-0.8076126,-0.8007587,-0.7971245,-0.7963276,-0.79591316,-0.7943192,-0.79148203,-0.7894737,-0.7878479,-0.7862539,-0.780994,-0.77614844,-0.7725462,-0.7692945,-0.7672862,-0.76406646,-0.7596353,-0.7592209,-0.7596353,-0.76043224,-0.76043224,-0.7592209,-0.7596353,-0.76043224,-0.76084673,-0.7600179,-0.75880647,-0.7592209,-0.75880647,-0.7580095,-0.75759506,-0.75759506,-0.7600179,-0.76164365,-0.76084673,-0.7572125,-0.75437534,-0.75437534,-0.75478977,-0.75357836,-0.74952984,-0.7459275,-0.74471617,-0.74631006,-0.7487328,-0.7491473,-0.7479359,-0.7475214,-0.74631006,-0.7455131,-0.74309033,-0.7414645,-0.73987055,-0.7386592,-0.7382448,-0.7366508,-0.73502505,-0.73502505,-0.7342281,-0.73218787,-0.7289681,-0.72654533,-0.72654533,-0.72654533,-0.7269597,-0.7253339,-0.72374,-0.72374,-0.7249514,-0.72374,-0.72052026,-0.71726865,-0.71567476,-0.7168861,-0.7180975,-0.7176831,-0.71526027,-0.71325195,-0.7116262,-0.71041477,-0.70920336,-0.70920336,-0.71041477,-0.7128376,-0.71404886,-0.71204054,-0.7112436,-0.71082914,-0.7112436,-0.7116262,-0.70920336,-0.707195,-0.707195,-0.70799196,-0.70799196,-0.7055692,-0.7011381,-0.6975039,-0.6942842,-0.6890561,-0.68341357,-0.679365,-0.6769422,-0.6757308,-0.67493385,-0.673308,-0.6692914,-0.66122603,-0.6442666,-0.6216966,-0.60151744,-0.5938666,-0.60151744,-0.61685103,-0.63055885,-0.6362014,-0.63540435,-0.633396,-0.63540435,-0.64509547,-0.6616086,-0.68299913,-0.7027639,-0.71325195,-0.71446335,-0.70920336,-0.7031783,-0.7019669,-0.7027639,-0.70518667,-0.707195,-0.70920336,-0.712455,-0.71526027,-0.71726865,-0.7168861,-0.7180975,-0.7253339,-0.72775674,-0.6922758,-0.5789474,-0.36762416,-0.07803881,0.23048222,0.49102616,0.6507379,0.6846247,0.6120373,0.4551307,0.23733616,-0.021581888,-0.30590713,-0.5773216,-0.78462815,-0.8890943,-0.88667154,-0.8213204,-0.7519525,-0.71404886,-0.71204054,-0.7273742,-0.7438873,-0.75316393,-0.75357836,-0.74952984,-0.7426759,-0.73461056,-0.72775674,-0.7201058,-0.71204054,-0.7031783,-0.6950811,-0.6898531,-0.68542194,-0.6809908,-0.6741369,-0.66607165,-0.65960026,-0.6531608,-0.6479008,-0.64066434,-0.63259906,-0.6249163,-0.61847687,-0.61120856,-0.6031433,-0.5958749,-0.58863854,-0.5805732,-0.5712965,-0.5587683,-0.5458574,-0.5341898,-0.5216615,-0.50795376,-0.49223757,-0.47569257,-0.46118784,-0.44786257,-0.43252897,-0.41196728,-0.38977975,-0.36842108,-0.3490708,-0.33332276,-0.31881797,-0.30711848,-0.29704487,-0.28856516,-0.2821257,-0.2776627,-0.27928853,-0.28977656,-0.3067041,-0.3284772,-0.3542989,-0.3885684,-0.43214637,-0.48375785,-0.53661263,-0.5850043,-0.6273391,-0.66645414,-0.7019669,-0.73218787,-0.7572125,-0.77735984,-0.79591316,-0.81124675,-0.8225318,-0.8281743,-0.8305971,-0.8314259,-0.83180845,-0.8314259,-0.8281743,-0.8241576,-0.8221493,-0.82052344,-0.8188976,-0.81650674,-0.8120437,-0.81003535,-0.808824,-0.8076126,-0.80518985,-0.80276704,-0.80117315,-0.8003762,-0.79996175,-0.79795337,-0.7955306,-0.7943192,-0.79310787,-0.79068506,-0.7870509,-0.78341675,-0.7826198,-0.78462815,-0.7866365,-0.7866365,-0.78542507,-0.7850425,-0.78542507,-0.7866365,-0.7870509,-0.7866365,-0.7870509,-0.7866365,-0.7850425,-0.7814084,-0.7789856,-0.7797826,-0.7826198,-0.7850425,-0.78462815,-0.78220534,-0.7797826,-0.7785712,-0.77735984,-0.77535146,-0.7725462,-0.77133477,-0.77092034,-0.7717173,-0.76970893,-0.7677006,-0.76687175,-0.7660748,-0.7660748,-0.7660748,-0.7644808,-0.76406646,-0.7644808,-0.763652,-0.7624406,-0.76084673,-0.7600179,-0.75880647,-0.7572125,-0.75437534,-0.75157,-0.7507412,-0.7507412,-0.7507412,-0.74831843,-0.7455131,-0.7455131,-0.74631006,-0.7475214,-0.74631006,-0.74309033,-0.7414645,-0.7418789,-0.7438873,-0.74471617,-0.74471617,-0.74509865,-0.7455131,-0.7455131,-0.74309033,-0.7406676,-0.73987055,-0.73987055,-0.7406676,-0.7394562,-0.7374478,-0.73623645,-0.73623645,-0.7366508,-0.73582196,-0.7342281,-0.73301667,-0.73218787,-0.7305939,-0.72775674,-0.7249514,-0.72374,-0.72374,-0.7249514,-0.72374,-0.72131723,-0.7176831,-0.71325195,-0.7084064,-0.7019669,-0.6975039,-0.6954956,-0.6954956,-0.6946986,-0.6878447,-0.6729255,-0.6511524,-0.62654215,-0.60878575,-0.60272884,-0.6092002,-0.6245338,-0.63903856,-0.64589244,-0.64305526,-0.63782716,-0.6374128,-0.6495266,-0.6717141,-0.6975039,-0.7188945,-0.73139083,-0.73301667,-0.7285856,-0.7216998,-0.71726865,-0.7176831,-0.7188945,-0.7196914,-0.7188945,-0.7188945,-0.72052026,-0.72374,-0.72654533,-0.7285856,-0.73502505,-0.73139083,-0.6822022,-0.5486946,-0.31355804,-0.004239857,0.31317532,0.5741018,0.7245368,0.7463099,0.65717745,0.47652137,0.232108,-0.055054426,-0.3575186,-0.6309733,-0.83021456,-0.91972965,-0.9056393,-0.837451,-0.77092034,-0.73987055,-0.7438873,-0.7632695,-0.7789856,-0.7842137,-0.7818228,-0.77535146,-0.76808316,-0.7596353,-0.7519525,-0.74509865,-0.73987055,-0.73461056,-0.72775674,-0.72052026,-0.7148459,-0.7088208,-0.7023494,-0.6942842,-0.6858363,-0.679365,-0.673308,-0.66686857,-0.6592177,-0.6519494,-0.6466894,-0.6410469,-0.633396,-0.6212822,-0.6083714,-0.5975007,-0.58863854,-0.57974434,-0.5680449,-0.5539546,-0.5406293,-0.5269215,-0.51200235,-0.49466032,-0.4753101,-0.45513088,-0.43536615,-0.41439003,-0.39140558,-0.3700469,-0.35149354,-0.33533108,-0.31961495,-0.30306995,-0.28977656,-0.28129685,-0.27728015,-0.27686572,-0.27928853,-0.28693932,-0.30348438,-0.32889163,-0.36115277,-0.39905643,-0.4434315,-0.492652,-0.54263765,-0.59064686,-0.634193,-0.67493385,-0.71446335,-0.74831843,-0.77614844,-0.796742,-0.8120437,-0.8257834,-0.83706844,-0.8439223,-0.8451337,-0.8439223,-0.84312534,-0.84312534,-0.84312534,-0.84108514,-0.8394912,-0.83827984,-0.836654,-0.8334343,-0.82779175,-0.8225318,-0.8209379,-0.8209379,-0.82052344,-0.81771815,-0.81366956,-0.81124675,-0.81003535,-0.809621,-0.8076126,-0.8043929,-0.8019701,-0.7995473,-0.79591316,-0.7910995,-0.7870509,-0.78746533,-0.7902707,-0.79269344,-0.79310787,-0.79068506,-0.7882623,-0.7878479,-0.78746533,-0.7850425,-0.7830023,-0.78220534,-0.7830023,-0.7838312,-0.7830023,-0.7814084,-0.7806114,-0.77940005,-0.7777742,-0.77414006,-0.77012336,-0.7692945,-0.77012336,-0.77133477,-0.77012336,-0.7660748,-0.763652,-0.7612293,-0.7600179,-0.7584239,-0.7580095,-0.7596353,-0.7612293,-0.7620581,-0.7596353,-0.7560012,-0.75316393,-0.7527814,-0.75316393,-0.75316393,-0.7527814,-0.75357836,-0.7539928,-0.7527814,-0.74952984,-0.74631006,-0.74509865,-0.74509865,-0.74350476,-0.73987055,-0.73582196,-0.73461056,-0.7354394,-0.7378622,-0.7374478,-0.7354394,-0.73461056,-0.7342281,-0.73381364,-0.73139083,-0.7301795,-0.7301795,-0.73097646,-0.73218787,-0.7301795,-0.72654533,-0.7253339,-0.72654533,-0.7281711,-0.7285856,-0.7281711,-0.72775674,-0.72775674,-0.7261628,-0.72052026,-0.71404886,-0.70799196,-0.7035608,-0.70075554,-0.6962925,-0.69147885,-0.6878447,-0.68621886,-0.68542194,-0.68137336,-0.6688769,-0.6479008,-0.6224935,-0.60151744,-0.5926552,-0.5982977,-0.6148427,-0.6313877,-0.64187574,-0.64305526,-0.64024997,-0.6426727,-0.6559661,-0.679365,-0.70639807,-0.7285856,-0.7402531,-0.7406676,-0.7354394,-0.7289681,-0.7269597,-0.7293825,-0.73301667,-0.73582196,-0.73461056,-0.73260224,-0.7318053,-0.7318053,-0.73381364,-0.7382448,-0.7475214,-0.7475214,-0.70075554,-0.56441075,-0.31961495,0.008256435,0.35270476,0.6406642,0.8112465,0.8414993,0.74956167,0.5567597,0.29420757,-0.015110493,-0.34059107,-0.633396,-0.842711,-0.93343747,-0.9165099,-0.8435079,-0.77614844,-0.7459275,-0.7507412,-0.77133477,-0.7862539,-0.78867674,-0.78220534,-0.7737575,-0.7660748,-0.7580095,-0.75157,-0.7467245,-0.7418789,-0.7366508,-0.7293825,-0.7209028,-0.7136345,-0.70799196,-0.7023494,-0.6946986,-0.6858363,-0.6777392,-0.6705027,-0.66486025,-0.65717745,-0.6487297,-0.64024997,-0.63055885,-0.6208996,-0.6104115,-0.5999235,-0.59064686,-0.58095574,-0.5696707,-0.55513406,-0.53983235,-0.52449876,-0.51037645,-0.49424595,-0.47489566,-0.45513088,-0.43536615,-0.415187,-0.3958367,-0.37486058,-0.3542989,-0.3357455,-0.3184036,-0.30106157,-0.2833053,-0.26679212,-0.255507,-0.24945009,-0.24903572,-0.2530843,-0.26478374,-0.28451663,-0.3139724,-0.3510791,-0.39261693,-0.43979728,-0.49102622,-0.5458574,-0.5999235,-0.6491122,-0.6922758,-0.7305939,-0.76285505,-0.7902707,-0.81003535,-0.8241576,-0.8338487,-0.84108514,-0.8463451,-0.84956485,-0.8519876,-0.853996,-0.853996,-0.8511907,-0.8463451,-0.841914,-0.8390768,-0.837451,-0.83423126,-0.8298001,-0.8257834,-0.82374316,-0.82374316,-0.8229462,-0.81931204,-0.81488097,-0.8120437,-0.81044984,-0.808027,-0.8043929,-0.8007587,-0.7983359,-0.7963276,-0.7955306,-0.79189646,-0.7894737,-0.7878479,-0.7878479,-0.7882623,-0.7862539,-0.7842137,-0.7826198,-0.7806114,-0.7789856,-0.7769773,-0.77614844,-0.7769773,-0.77940005,-0.7797826,-0.7777742,-0.77535146,-0.77414006,-0.7737575,-0.7737575,-0.77213174,-0.77133477,-0.7705059,-0.77012336,-0.76970893,-0.7664892,-0.7648634,-0.76527786,-0.7644808,-0.7632695,-0.76084673,-0.75880647,-0.75880647,-0.7592209,-0.7580095,-0.7539928,-0.752367,-0.7519525,-0.75357836,-0.7539928,-0.7527814,-0.7519525,-0.752367,-0.75316393,-0.7527814,-0.7491473,-0.7467245,-0.74631006,-0.74631006,-0.7459275,-0.7438873,-0.7414645,-0.74108195,-0.7426759,-0.7443017,-0.7438873,-0.7418789,-0.7394562,-0.73623645,-0.73381364,-0.73218787,-0.73301667,-0.73502505,-0.73703337,-0.73703337,-0.73381364,-0.7301795,-0.7281711,-0.72775674,-0.7293825,-0.72775674,-0.72453696,-0.7209028,-0.7160573,-0.7100322,-0.7027639,-0.6962925,-0.6934872,-0.6946986,-0.69670695,-0.69591,-0.68864167,-0.6717141,-0.6466894,-0.6216966,-0.60272884,-0.5982977,-0.6083714,-0.6253308,-0.64066434,-0.6475183,-0.6466894,-0.6434697,-0.6442666,-0.65638053,-0.678568,-0.70518667,-0.7273742,-0.73703337,-0.7342281,-0.7249514,-0.71930885,-0.71930885,-0.7233256,-0.7273742,-0.7273742,-0.72654533,-0.7261628,-0.72654533,-0.7269597,-0.7269597,-0.7285856,-0.73582196,-0.73301667,-0.68137336,-0.53983235,-0.29098797,0.042143464,0.39261675,0.6870476,0.8624754,0.89231384,0.7947335,0.59306943,0.31719208,-0.0074597,-0.3486563,-0.6511524,-0.8612643,-0.9439255,-0.91571295,-0.836654,-0.7672862,-0.7374478,-0.7426759,-0.76164365,-0.7777742,-0.78341675,-0.780197,-0.7725462,-0.763652,-0.7560012,-0.7507412,-0.7467245,-0.74108195,-0.73097646,-0.7209028,-0.7128376,-0.70799196,-0.7039753,-0.6979183,-0.68943864,-0.68016195,-0.6729255,-0.66645414,-0.6588033,-0.6503236,-0.6410469,-0.63259906,-0.6253308,-0.61685103,-0.6079888,-0.59628934,-0.5833785,-0.5700851,-0.55634546,-0.5434665,-0.53135264,-0.5184418,-0.5031082,-0.48576623,-0.46804172,-0.44907397,-0.43093503,-0.41037333,-0.38697445,-0.36357552,-0.34180248,-0.32245213,-0.3042814,-0.28693932,-0.2712232,-0.25952375,-0.25187296,-0.24661303,-0.24419016,-0.2470274,-0.25872684,-0.28008544,-0.30912685,-0.34744495,-0.39303136,-0.4450572,-0.5007173,-0.5547515,-0.6031433,-0.6483152,-0.6910645,-0.73097646,-0.7660748,-0.79189646,-0.8116612,-0.82696295,-0.8407026,-0.8511907,-0.8572157,-0.85925597,-0.85884154,-0.8584271,-0.8572157,-0.85358155,-0.84956485,-0.8471421,-0.8451337,-0.8435079,-0.8386624,-0.83301985,-0.8285887,-0.826166,-0.824572,-0.82052344,-0.81529534,-0.8108323,-0.808824,-0.8076126,-0.80518985,-0.80276704,-0.80117315,-0.79996175,-0.79996175,-0.7991648,-0.79875034,-0.7991648,-0.79996175,-0.79875034,-0.7947018,-0.7910995,-0.79068506,-0.79189646,-0.7934904,-0.79189646,-0.79068506,-0.79068506,-0.79269344,-0.7934904,-0.79189646,-0.7898881,-0.78867674,-0.79068506,-0.792279,-0.7902707,-0.7862539,-0.7842137,-0.78462815,-0.78542507,-0.7850425,-0.7830023,-0.7814084,-0.7826198,-0.7838312,-0.78220534,-0.7789856,-0.77535146,-0.7745545,-0.77493703,-0.7725462,-0.7705059,-0.7677006,-0.7677006,-0.76891196,-0.7684976,-0.76808316,-0.7664892,-0.7644808,-0.763652,-0.7632695,-0.7644808,-0.7660748,-0.7660748,-0.76406646,-0.7584239,-0.7539928,-0.752367,-0.7527814,-0.7527814,-0.75035864,-0.7475214,-0.7455131,-0.7455131,-0.7459275,-0.7438873,-0.74350476,-0.7438873,-0.7459275,-0.7475214,-0.7467245,-0.7455131,-0.74471617,-0.7455131,-0.7459275,-0.74309033,-0.7394562,-0.7333992,-0.72654533,-0.7209028,-0.7136345,-0.7088208,-0.707195,-0.70799196,-0.7088208,-0.70518667,-0.69390166,-0.6717141,-0.64468104,-0.622111,-0.61241996,-0.61847687,-0.63581884,-0.65354335,-0.66243744,-0.66202307,-0.6575919,-0.65638053,-0.667283,-0.68822724,-0.71404886,-0.7386592,-0.7539928,-0.7584239,-0.7552042,-0.7471389,-0.7418789,-0.74108195,-0.7443017,-0.7471389,-0.7459275,-0.74350476,-0.7418789,-0.7418789,-0.74350476,-0.7443017,-0.75035864,-0.75357836,-0.7233256,-0.6156397,-0.39905643,-0.081258655,0.2792884,0.60276055,0.81931186,0.8882973,0.82173455,0.64589226,0.38777125,0.07523346,-0.2643693,-0.58175266,-0.82173485,-0.9411202,-0.9407058,-0.870541,-0.7934904,-0.74831843,-0.74309033,-0.76084673,-0.780197,-0.79148203,-0.792279,-0.78746533,-0.780197,-0.77092034,-0.7620581,-0.7539928,-0.7467245,-0.73987055,-0.73097646,-0.7229111,-0.7164717,-0.71204054,-0.7084064,-0.7027639,-0.6954956,-0.6878447,-0.6805764,-0.673308,-0.6644458,-0.6547547,-0.6466894,-0.63782716,-0.6273391,-0.61525714,-0.6031433,-0.5938666,-0.58701265,-0.5793618,-0.56645095,-0.5507029,-0.5337754,-0.5172304,-0.5003029,-0.48012376,-0.45914757,-0.4377889,-0.4184386,-0.3998853,-0.38012052,-0.35793304,-0.3357455,-0.31438684,-0.29462212,-0.27728015,-0.26395494,-0.25588965,-0.25187296,-0.25145847,-0.25346684,-0.2611496,-0.27686572,-0.30549276,-0.34342825,-0.3885684,-0.43941474,-0.492652,-0.5462718,-0.5975007,-0.6442666,-0.6858363,-0.7241225,-0.7572125,-0.7842137,-0.8048073,-0.82052344,-0.83301985,-0.8439223,-0.85077626,-0.85358155,-0.8544104,-0.8544104,-0.85479295,-0.85278463,-0.8483535,-0.8435079,-0.8390768,-0.8362396,-0.8326373,-0.82779175,-0.8241576,-0.82173485,-0.8213204,-0.820109,-0.81488097,-0.81044984,-0.8068156,-0.8060187,-0.80518985,-0.8023845,-0.7995473,-0.79591316,-0.7943192,-0.7934904,-0.7910995,-0.7902707,-0.79068506,-0.79189646,-0.79189646,-0.7898881,-0.7882623,-0.7862539,-0.78583956,-0.78542507,-0.78341675,-0.7818228,-0.7826198,-0.7850425,-0.7866365,-0.78542507,-0.7830023,-0.7797826,-0.7785712,-0.7785712,-0.7769773,-0.7757659,-0.77535146,-0.7757659,-0.7777742,-0.7789856,-0.7797826,-0.7806114,-0.7818228,-0.7806114,-0.7781887,-0.77535146,-0.7745545,-0.7757659,-0.77735984,-0.7757659,-0.7733431,-0.77092034,-0.7692945,-0.76891196,-0.7672862,-0.76527786,-0.763652,-0.7632695,-0.76164365,-0.7592209,-0.7572125,-0.7572125,-0.7600179,-0.76285505,-0.7632695,-0.7612293,-0.7584239,-0.75759506,-0.7572125,-0.75759506,-0.7584239,-0.75880647,-0.7580095,-0.75437534,-0.7471389,-0.73904175,-0.7318053,-0.7273742,-0.7233256,-0.71848005,-0.71567476,-0.71526027,-0.71446335,-0.70518667,-0.68341357,-0.65558356,-0.6329816,-0.62654215,-0.63703024,-0.65354335,-0.66766554,-0.6729255,-0.67209667,-0.6700883,-0.67209667,-0.68621886,-0.71041477,-0.7382448,-0.7612293,-0.7705059,-0.76891196,-0.7612293,-0.7560012,-0.75437534,-0.7552042,-0.75759506,-0.7600179,-0.76285505,-0.76406646,-0.76285505,-0.76084673,-0.7596353,-0.7620581,-0.76970893,-0.77092034,-0.73502505,-0.6208996,-0.40230805,-0.08489287,0.2760687,0.60033774,0.8165066,0.8794031,0.8048072,0.6213138,0.3571359,0.040549517,-0.30185854,-0.6188594,-0.853199,-0.9645191,-0.9576652,-0.88667154,-0.81044984,-0.7648634,-0.7592209,-0.77535146,-0.7955306,-0.8060187,-0.8035959,-0.7943192,-0.7842137,-0.77656287,-0.77213174,-0.7677006,-0.7620581,-0.7552042,-0.7467245,-0.73623645,-0.7261628,-0.7176831,-0.71041477,-0.7055692,-0.69992673,-0.6922758,-0.6850075,-0.6769422,-0.6692914,-0.6600146,-0.6491122,-0.63903856,-0.63055885,-0.6224935,-0.61283433,-0.5995091,-0.5837929,-0.5692563,-0.55755687,-0.5458574,-0.531767,-0.5152221,-0.49625432,-0.47690398,-0.4567567,-0.43536615,-0.41480446,-0.39503974,-0.376072,-0.35672164,-0.33332276,-0.31113523,-0.29219937,-0.27849162,-0.26838607,-0.25789797,-0.24862128,-0.24419016,-0.24862128,-0.26274353,-0.28534544,-0.31719214,-0.3563072,-0.40230805,-0.4522937,-0.5023112,-0.5527432,-0.6031433,-0.6527464,-0.6979183,-0.73623645,-0.7692945,-0.7955306,-0.81771815,-0.8338487,-0.84229654,-0.84672767,-0.8491504,-0.8519876,-0.85600436,-0.85763013,-0.8572157,-0.85479295,-0.85077626,-0.8463451,-0.84149957,-0.8386624,-0.83706844,-0.836654,-0.83544266,-0.83180845,-0.8281743,-0.824572,-0.8221493,-0.81931204,-0.81488097,-0.809621,-0.8043929,-0.80117315,-0.7991648,-0.7963276,-0.7934904,-0.792279,-0.79269344,-0.79310787,-0.792279,-0.79068506,-0.7890593,-0.7894737,-0.7894737,-0.7882623,-0.7862539,-0.7842137,-0.78462815,-0.7862539,-0.7870509,-0.7882623,-0.7890593,-0.7894737,-0.7878479,-0.78462815,-0.780994,-0.77940005,-0.780197,-0.7806114,-0.7785712,-0.7757659,-0.7733431,-0.7737575,-0.77535146,-0.77614844,-0.77656287,-0.77656287,-0.77614844,-0.77414006,-0.7717173,-0.77012336,-0.7692945,-0.7705059,-0.77012336,-0.76808316,-0.76527786,-0.7644808,-0.7648634,-0.7648634,-0.7624406,-0.7596353,-0.7564156,-0.75437534,-0.75357836,-0.75316393,-0.752367,-0.7519525,-0.7527814,-0.752367,-0.7491473,-0.7459275,-0.74350476,-0.74229336,-0.7418789,-0.7418789,-0.7414645,-0.7414645,-0.7418789,-0.7406676,-0.7354394,-0.72979695,-0.7249514,-0.7229111,-0.72131723,-0.7176831,-0.7112436,-0.7035608,-0.6991297,-0.69670695,-0.6930728,-0.6817877,-0.66122603,-0.6362014,-0.6148427,-0.60598046,-0.61241996,-0.6277535,-0.6434697,-0.6519494,-0.6519494,-0.6487297,-0.6503236,-0.6652428,-0.69026744,-0.7176831,-0.7394562,-0.7487328,-0.74952984,-0.7455131,-0.7402531,-0.7378622,-0.7366508,-0.7374478,-0.7402531,-0.74229336,-0.74471617,-0.7455131,-0.74631006,-0.7459275,-0.7467245,-0.7539928,-0.75759506,-0.7209028,-0.6007205,-0.36762416,-0.037298024,0.3276801,0.64793265,0.85399604,0.9104848,0.8322226,0.6418755,0.36842096,0.040549517,-0.30912685,-0.6261277,-0.85479295,-0.95683634,-0.94150275,-0.8644841,-0.7870509,-0.74631006,-0.74471617,-0.76406646,-0.7838312,-0.79310787,-0.7910995,-0.7830023,-0.7733431,-0.76406646,-0.7560012,-0.75035864,-0.7443017,-0.7374478,-0.7293825,-0.7201058,-0.712455,-0.70598364,-0.69992673,-0.69269025,-0.68421054,-0.6757308,-0.6692914,-0.66243744,-0.6539577,-0.64509547,-0.63703024,-0.62934744,-0.6208996,-0.6095828,-0.5970863,-0.58458984,-0.5745163,-0.5640282,-0.5503204,-0.53457236,-0.5188562,-0.5031082,-0.48576623,-0.464822,-0.44180566,-0.41965002,-0.40109664,-0.38254327,-0.36316115,-0.3422169,-0.32082635,-0.3026874,-0.2861424,-0.2704262,-0.25668657,-0.24623036,-0.240556,-0.24097043,-0.24581599,-0.2583124,-0.27928853,-0.3099239,-0.34785938,-0.3922025,-0.44263446,-0.4966687,-0.5539546,-0.60878575,-0.65638053,-0.6971214,-0.7333992,-0.76566035,-0.7939048,-0.8156779,-0.8314259,-0.84229654,-0.8491504,-0.853996,-0.853996,-0.8519876,-0.8491504,-0.8475565,-0.8451337,-0.84149957,-0.8378654,-0.8350601,-0.8346457,-0.83423126,-0.83101153,-0.8265804,-0.82173485,-0.81931204,-0.8181007,-0.81529534,-0.8120437,-0.80844146,-0.80640125,-0.8048073,-0.80276704,-0.7991648,-0.79591316,-0.7955306,-0.7951162,-0.792279,-0.78867674,-0.78583956,-0.7842137,-0.7838312,-0.7826198,-0.780994,-0.7797826,-0.7806114,-0.780994,-0.7781887,-0.7737575,-0.77012336,-0.76970893,-0.77213174,-0.7745545,-0.7745545,-0.7737575,-0.7733431,-0.7737575,-0.7733431,-0.7729287,-0.7725462,-0.7729287,-0.7737575,-0.7733431,-0.7717173,-0.77012336,-0.76970893,-0.7692945,-0.76808316,-0.7677006,-0.7664892,-0.7664892,-0.7660748,-0.7632695,-0.76084673,-0.75880647,-0.7592209,-0.76084673,-0.7612293,-0.76084673,-0.7596353,-0.7584239,-0.7552042,-0.7507412,-0.7467245,-0.7438873,-0.7443017,-0.7455131,-0.74471617,-0.74350476,-0.7426759,-0.74350476,-0.7443017,-0.74309033,-0.7406676,-0.7374478,-0.73623645,-0.73582196,-0.73502505,-0.73381364,-0.7301795,-0.72654533,-0.7233256,-0.71848005,-0.7148459,-0.7116262,-0.7084064,-0.7039753,-0.6983328,-0.69147885,-0.68663335,-0.6858363,-0.68663335,-0.6837961,-0.6705027,-0.6471038,-0.6200708,-0.5990947,-0.5930696,-0.6031433,-0.6208996,-0.6374128,-0.64468104,-0.64305526,-0.63824165,-0.6414614,-0.65838885,-0.6850075,-0.712455,-0.73301667,-0.7402531,-0.7386592,-0.73260224,-0.72654533,-0.72374,-0.7241225,-0.72775674,-0.7301795,-0.72979695,-0.7289681,-0.7269597,-0.72775674,-0.7305939,-0.73582196,-0.7459275,-0.74509865,-0.6954956,-0.5539546,-0.29863882,0.04577756,0.40957618,0.7136662,0.89231384,0.92256665,0.8229462,0.6164684,0.32972026,-0.009467959,-0.36156714,-0.66766554,-0.87417513,-0.9511938,-0.91972965,-0.84028816,-0.77012336,-0.7374478,-0.7418789,-0.76084673,-0.77493703,-0.7789856,-0.77493703,-0.7684976,-0.76285505,-0.7560012,-0.7479359,-0.73904175,-0.7318053,-0.72453696,-0.7160573,-0.7088208,-0.7015525,-0.6954956,-0.6890561,-0.68016195,-0.67088526,-0.6632345,-0.65717745,-0.650738,-0.6422583,-0.6313877,-0.6204852,-0.6120055,-0.6039402,-0.5946635,-0.58417547,-0.572476,-0.5608084,-0.5474832,-0.531767,-0.5164335,-0.50151426,-0.48901784,-0.47448123,-0.45592785,-0.43415475,-0.41279614,-0.39303136,-0.37447798,-0.35350186,-0.33051747,-0.30832994,-0.28856516,-0.2712232,-0.25509262,-0.24218184,-0.23331958,-0.22927094,-0.23006797,-0.23491353,-0.24581599,-0.26679212,-0.29946768,-0.3410055,-0.3881858,-0.43737447,-0.48818904,-0.5434665,-0.5990947,-0.6503236,-0.6934872,-0.7285856,-0.7584239,-0.7826198,-0.80318147,-0.8188976,-0.8285887,-0.83585703,-0.8390768,-0.8394912,-0.8390768,-0.8390768,-0.84028816,-0.8407026,-0.83706844,-0.8305971,-0.824572,-0.8229462,-0.8233607,-0.8233607,-0.8213204,-0.8173037,-0.81366956,-0.80844146,-0.8035959,-0.79996175,-0.796742,-0.796742,-0.7963276,-0.79310787,-0.7878479,-0.7830023,-0.7806114,-0.7789856,-0.7781887,-0.7777742,-0.7781887,-0.780994,-0.7826198,-0.780994,-0.7777742,-0.7729287,-0.7733431,-0.7745545,-0.77535146,-0.77656287,-0.77535146,-0.77535146,-0.77493703,-0.7725462,-0.76970893,-0.7672862,-0.7684976,-0.7705059,-0.77092034,-0.7692945,-0.76566035,-0.7632695,-0.76164365,-0.76084673,-0.76084673,-0.7620581,-0.76406646,-0.76566035,-0.7648634,-0.76164365,-0.75759506,-0.75558674,-0.75437534,-0.7539928,-0.7539928,-0.7527814,-0.752367,-0.7511556,-0.7487328,-0.7467245,-0.7459275,-0.7459275,-0.74631006,-0.7459275,-0.7443017,-0.7418789,-0.74108195,-0.73904175,-0.7378622,-0.7366508,-0.73623645,-0.7378622,-0.73904175,-0.7382448,-0.7378622,-0.73703337,-0.7378622,-0.73904175,-0.7374478,-0.73381364,-0.7281711,-0.7229111,-0.7168861,-0.70961773,-0.7023494,-0.6954956,-0.69026744,-0.68743026,-0.6858363,-0.68299913,-0.6729255,-0.6547547,-0.6297619,-0.6071918,-0.5979152,-0.60476905,-0.6216966,-0.63782716,-0.64589244,-0.64509547,-0.6422583,-0.6463069,-0.6616086,-0.6858363,-0.71204054,-0.7318053,-0.7414645,-0.74108195,-0.73502505,-0.7293825,-0.7269597,-0.7289681,-0.73218787,-0.7354394,-0.7366508,-0.7354394,-0.73461056,-0.7342281,-0.7342281,-0.7378622,-0.7471389,-0.74952984,-0.7043578,-0.5708821,-0.32608634,0.0123051405,0.3764863,0.69106436,0.8878828,0.93468046,0.84675944,0.6483152,0.36921787,0.03608656,-0.31881797,-0.63782716,-0.86368704,-0.9572508,-0.93222606,-0.8503618,-0.77535146,-0.7406676,-0.74350476,-0.76285505,-0.7785712,-0.78341675,-0.7806114,-0.77414006,-0.7660748,-0.75759506,-0.7491473,-0.7418789,-0.73502505,-0.7285856,-0.7216998,-0.71446335,-0.7084064,-0.7011381,-0.6934872,-0.6870159,-0.6809908,-0.6757308,-0.6696739,-0.65960026,-0.6487297,-0.63782716,-0.62934744,-0.6208996,-0.61241996,-0.6031433,-0.59345216,-0.58296406,-0.5720935,-0.55918264,-0.543849,-0.52851546,-0.51480764,-0.49988842,-0.48296094,-0.464822,-0.44384587,-0.42366672,-0.40310502,-0.38133192,-0.35914445,-0.33775383,-0.3184036,-0.30026466,-0.2841341,-0.26921487,-0.255507,-0.2470274,-0.24218184,-0.24097043,-0.24623036,-0.26032072,-0.2841341,-0.3159808,-0.35471332,-0.40026778,-0.4494884,-0.503937,-0.55918264,-0.60999715,-0.6559661,-0.6954956,-0.73218787,-0.7620581,-0.7866365,-0.80640125,-0.8221493,-0.83585703,-0.8463451,-0.8519876,-0.85240203,-0.8499793,-0.8487679,-0.8471421,-0.8451337,-0.842711,-0.8394912,-0.83706844,-0.8338487,-0.8298001,-0.82696295,-0.824572,-0.82374316,-0.8209379,-0.81529534,-0.80844146,-0.8023845,-0.8019701,-0.80276704,-0.8019701,-0.7991648,-0.7951162,-0.792279,-0.79068506,-0.7898881,-0.7878479,-0.7850425,-0.7842137,-0.7830023,-0.78220534,-0.78220534,-0.78220534,-0.7826198,-0.78341675,-0.78220534,-0.780197,-0.7789856,-0.7806114,-0.78220534,-0.7830023,-0.7842137,-0.7838312,-0.78462815,-0.7826198,-0.780197,-0.7769773,-0.77535146,-0.7769773,-0.7785712,-0.7777742,-0.77535146,-0.7729287,-0.7737575,-0.77493703,-0.7757659,-0.7737575,-0.77092034,-0.77012336,-0.77092034,-0.77213174,-0.7717173,-0.7705059,-0.76808316,-0.76527786,-0.7632695,-0.7612293,-0.7592209,-0.76043224,-0.7600179,-0.75759506,-0.75558674,-0.7539928,-0.7552042,-0.7564156,-0.7560012,-0.752367,-0.7479359,-0.74631006,-0.7467245,-0.7479359,-0.7479359,-0.74631006,-0.74471617,-0.7414645,-0.73582196,-0.7289681,-0.7216998,-0.7160573,-0.7112436,-0.707195,-0.7055692,-0.7027639,-0.6975039,-0.6822022,-0.65717745,-0.6289649,-0.60878575,-0.605566,-0.6156397,-0.6313877,-0.64509547,-0.65233195,-0.6539577,-0.6539577,-0.6575919,-0.6700883,-0.6918614,-0.71848005,-0.7386592,-0.7475214,-0.7459275,-0.7378622,-0.73301667,-0.73139083,-0.73260224,-0.73461056,-0.73703337,-0.74108195,-0.74350476,-0.74229336,-0.74108195,-0.73987055,-0.74631006,-0.7592209,-0.7567981,-0.6987153,-0.5462718,-0.2841341,0.063916564,0.42691827,0.7310083,0.90723324,0.931429,0.82699466,0.61726534,0.32729757,-0.017947733,-0.38091755,-0.6954956,-0.9007938,-0.96694183,-0.9233638,-0.8390768,-0.76970893,-0.7402531,-0.7455131,-0.76406646,-0.7814084,-0.7890593,-0.78542507,-0.77535146,-0.76406646,-0.75558674,-0.75035864,-0.74631006,-0.7402531,-0.7305939,-0.7229111,-0.71567476,-0.70961773,-0.7035608,-0.69591,-0.68822724,-0.68137336,-0.67493385,-0.66808,-0.66081166,-0.6531608,-0.64305526,-0.6329816,-0.6208996,-0.6104115,-0.60272884,-0.59507793,-0.58458984,-0.5716791,-0.5555485,-0.5394179,-0.5240843,-0.50916517,-0.49383152,-0.47770095,-0.4607734,-0.4410087,-0.4192356,-0.39663368,-0.37527496,-0.35471332,-0.3345341,-0.31476945,-0.2954191,-0.2788741,-0.2659632,-0.25388128,-0.24218184,-0.23612493,-0.23733628,-0.24983263,-0.2712232,-0.29863882,-0.3325258,-0.37326664,-0.42165834,-0.4736842,-0.52733594,-0.5793618,-0.63055885,-0.68016195,-0.72374,-0.7580095,-0.78341675,-0.8023845,-0.82173485,-0.8386624,-0.853199,-0.8616787,-0.86327267,-0.86206126,-0.8604673,-0.85884154,-0.8564187,-0.85358155,-0.8511907,-0.8471421,-0.8435079,-0.8394912,-0.8362396,-0.83544266,-0.83585703,-0.83423126,-0.8298001,-0.8233607,-0.8168893,-0.8128726,-0.81003535,-0.80518985,-0.79996175,-0.7951162,-0.79189646,-0.79068506,-0.7910995,-0.79068506,-0.7894737,-0.7862539,-0.7818228,-0.7781887,-0.77535146,-0.7777742,-0.7814084,-0.78462815,-0.78462815,-0.78220534,-0.77940005,-0.7781887,-0.7789856,-0.7814084,-0.7826198,-0.7814084,-0.77614844,-0.7705059,-0.76687175,-0.76808316,-0.7733431,-0.7785712,-0.7797826,-0.7789856,-0.77735984,-0.77735984,-0.7777742,-0.7769773,-0.7733431,-0.7692945,-0.7677006,-0.7672862,-0.7692945,-0.77092034,-0.77092034,-0.7717173,-0.76970893,-0.76527786,-0.7612293,-0.7567981,-0.75478977,-0.7552042,-0.7560012,-0.7564156,-0.75558674,-0.7552042,-0.7552042,-0.7560012,-0.7552042,-0.75357836,-0.7511556,-0.7471389,-0.74309033,-0.73904175,-0.7366508,-0.7378622,-0.73703337,-0.73381364,-0.72654533,-0.7168861,-0.71041477,-0.7088208,-0.70961773,-0.7084064,-0.6975039,-0.6777392,-0.6539577,-0.6337786,-0.6241194,-0.6277535,-0.6410469,-0.6539577,-0.6600146,-0.66039723,-0.6575919,-0.6632345,-0.6805764,-0.7055692,-0.73139083,-0.7511556,-0.7592209,-0.7572125,-0.7491473,-0.73904175,-0.73260224,-0.73301667,-0.73703337,-0.74229336,-0.74509865,-0.74509865,-0.7467245,-0.74831843,-0.7479359,-0.7479359,-0.75316393,-0.7527814,-0.71930885,-0.6120055,-0.40109664,-0.09133226,0.25993812,0.5753131,0.7789854,0.8362714,0.76164365,0.58580124,0.33373702,0.018362045,-0.33131444,-0.6575919,-0.893111,-0.99113774,-0.9649016,-0.87860626,-0.79875034,-0.75880647,-0.75478977,-0.76687175,-0.7781887,-0.7826198,-0.7826198,-0.780197,-0.77414006,-0.7660748,-0.7564156,-0.7491473,-0.7426759,-0.73461056,-0.7269597,-0.7201058,-0.71567476,-0.7112436,-0.70518667,-0.69670695,-0.68542194,-0.678568,-0.6729255,-0.66808,-0.66243744,-0.6547547,-0.6463069,-0.63703024,-0.6273391,-0.61605406,-0.6043546,-0.5946635,-0.58175266,-0.5668335,-0.55111736,-0.5354012,-0.5237018,-0.51359624,-0.5007173,-0.48417228,-0.46319616,-0.44142312,-0.4184386,-0.3934139,-0.36963248,-0.3486563,-0.33211136,-0.31798917,-0.30389875,-0.29137045,-0.2821257,-0.28008544,-0.28129685,-0.284931,-0.29341072,-0.30711848,-0.33051747,-0.36115277,-0.40026778,-0.4458542,-0.4954573,-0.5486946,-0.5979152,-0.6422583,-0.6837961,-0.7225286,-0.7567981,-0.7862539,-0.8076126,-0.82173485,-0.8334343,-0.8443049,-0.8515732,-0.8564187,-0.8572157,-0.85804456,-0.86005294,-0.86084986,-0.85884154,-0.85240203,-0.8451337,-0.84149957,-0.8407026,-0.8407026,-0.8378654,-0.8326373,-0.8265804,-0.82173485,-0.81650674,-0.8116612,-0.80923843,-0.80723006,-0.8056042,-0.80117315,-0.7947018,-0.79068506,-0.79148203,-0.7943192,-0.796742,-0.797539,-0.7955306,-0.7955306,-0.7955306,-0.79148203,-0.7830023,-0.77656287,-0.77493703,-0.7789856,-0.7870509,-0.792279,-0.79269344,-0.792279,-0.7910995,-0.7890593,-0.7850425,-0.780994,-0.7789856,-0.7785712,-0.7789856,-0.780197,-0.7806114,-0.7838312,-0.7866365,-0.7870509,-0.7842137,-0.7797826,-0.7769773,-0.7757659,-0.77614844,-0.7757659,-0.77614844,-0.7777742,-0.77735984,-0.7769773,-0.77493703,-0.7729287,-0.76970893,-0.76527786,-0.76043224,-0.75759506,-0.7592209,-0.76406646,-0.7664892,-0.7660748,-0.7612293,-0.75558674,-0.7519525,-0.7507412,-0.7507412,-0.7511556,-0.7499442,-0.7487328,-0.74631006,-0.7438873,-0.74309033,-0.7406676,-0.73703337,-0.73097646,-0.7249514,-0.7196914,-0.71526027,-0.71404886,-0.7160573,-0.7176831,-0.7136345,-0.69954413,-0.6741369,-0.645478,-0.6249163,-0.6204852,-0.6321846,-0.6511524,-0.66607165,-0.6717141,-0.6688769,-0.6652428,-0.6700883,-0.68542194,-0.7084064,-0.7318053,-0.7479359,-0.75437534,-0.7511556,-0.7438873,-0.7374478,-0.73381364,-0.73502505,-0.7366508,-0.73703337,-0.7374478,-0.73904175,-0.7426759,-0.74509865,-0.7475214,-0.74952984,-0.75316393,-0.7479359,-0.69954413,-0.5728904,-0.34664798,-0.040135205,0.28008533,0.54266953,0.6850072,0.6902673,0.58659816,0.40390182,0.16395164,-0.122796476,-0.43013805,-0.7088208,-0.9015907,-0.9709586,-0.9330549,-0.8487679,-0.77493703,-0.73987055,-0.7402531,-0.7552042,-0.7677006,-0.77213174,-0.77133477,-0.7672862,-0.7600179,-0.75035864,-0.7418789,-0.73703337,-0.73381364,-0.7301795,-0.72374,-0.7168861,-0.71082914,-0.7027639,-0.69390166,-0.68299913,-0.6737225,-0.6692914,-0.66808,-0.66486025,-0.6580063,-0.6475183,-0.63661575,-0.6277535,-0.6200708,-0.6120055,-0.6039402,-0.59670377,-0.5878097,-0.5793618,-0.56887376,-0.5571743,-0.54467785,-0.52934426,-0.5111735,-0.49182314,-0.47167587,-0.45270813,-0.43415475,-0.41480446,-0.39503974,-0.37769777,-0.36357552,-0.3502822,-0.33415163,-0.3184036,-0.3099239,-0.30632156,-0.31033832,-0.31719214,-0.32646888,-0.34059107,-0.36478692,-0.39784503,-0.43536615,-0.47569257,-0.5188562,-0.5656221,-0.6148427,-0.66282,-0.70518667,-0.7414645,-0.76970893,-0.7894737,-0.80276704,-0.81044984,-0.81771815,-0.8273773,-0.83706844,-0.8451337,-0.8471421,-0.8435079,-0.8398738,-0.836654,-0.83423126,-0.8305971,-0.8257834,-0.8229462,-0.8221493,-0.8221493,-0.820109,-0.81771815,-0.8144665,-0.8116612,-0.8076126,-0.8007587,-0.7947018,-0.79068506,-0.7894737,-0.78867674,-0.7862539,-0.7818228,-0.7785712,-0.77735984,-0.77735984,-0.77735984,-0.7769773,-0.7769773,-0.77614844,-0.77414006,-0.7717173,-0.77012336,-0.77012336,-0.7717173,-0.77414006,-0.7729287,-0.77012336,-0.7677006,-0.76527786,-0.7644808,-0.7644808,-0.763652,-0.76285505,-0.76285505,-0.76164365,-0.76164365,-0.7620581,-0.7644808,-0.76687175,-0.7677006,-0.76566035,-0.7612293,-0.7580095,-0.75558674,-0.75437534,-0.7539928,-0.75316393,-0.7539928,-0.75357836,-0.7507412,-0.74631006,-0.74350476,-0.7443017,-0.74631006,-0.7479359,-0.74631006,-0.7438873,-0.74309033,-0.7438873,-0.74509865,-0.74229336,-0.73904175,-0.7374478,-0.7374478,-0.7394562,-0.73904175,-0.73623645,-0.73301667,-0.7289681,-0.7269597,-0.7253339,-0.7249514,-0.7249514,-0.7261628,-0.72374,-0.7188945,-0.71446335,-0.7116262,-0.70961773,-0.7076094,-0.70518667,-0.7027639,-0.7003411,-0.6918614,-0.6741369,-0.6487297,-0.6253308,-0.61605406,-0.6204852,-0.63460743,-0.6495266,-0.65960026,-0.6632345,-0.6600146,-0.65558356,-0.65558356,-0.66766554,-0.6918614,-0.71726865,-0.73582196,-0.7414645,-0.73904175,-0.7342281,-0.73097646,-0.72979695,-0.72775674,-0.7261628,-0.7273742,-0.7273742,-0.72775674,-0.72654533,-0.72574836,-0.7289681,-0.7378622,-0.7467245,-0.7318053,-0.65558356,-0.48981482,-0.22767705,0.088112354,0.38576305,0.6031431,0.68743014,0.64994085,0.5208646,0.32324898,0.075616,-0.21314037,-0.50916517,-0.75759506,-0.90643626,-0.93627465,-0.88262296,-0.80397844,-0.7459275,-0.72453696,-0.73139083,-0.7507412,-0.7660748,-0.7717173,-0.76687175,-0.7560012,-0.7467245,-0.7402531,-0.73623645,-0.73218787,-0.7261628,-0.7201058,-0.7136345,-0.707195,-0.6987153,-0.6898531,-0.68299913,-0.6773566,-0.6729255,-0.66686857,-0.6600146,-0.6531608,-0.645478,-0.63782716,-0.6269247,-0.61726546,-0.6095828,-0.6035577,-0.5975007,-0.589021,-0.57853293,-0.56766236,-0.5543371,-0.5402149,-0.5237018,-0.5075712,-0.49303454,-0.47770095,-0.46035898,-0.4377889,-0.41480446,-0.3954541,-0.37849474,-0.36398995,-0.34945333,-0.3337372,-0.32041192,-0.30912685,-0.3006472,-0.29462212,-0.29258192,-0.296216,-0.3067041,-0.32487488,-0.3490708,-0.3821289,-0.4240811,-0.4712615,-0.521279,-0.5692563,-0.61404574,-0.6547547,-0.69026744,-0.72131723,-0.7467245,-0.7684976,-0.7878479,-0.8035959,-0.81488097,-0.81851506,-0.8181007,-0.8173037,-0.8181007,-0.81972647,-0.82052344,-0.82052344,-0.820109,-0.81771815,-0.81529534,-0.8116612,-0.80923843,-0.81044984,-0.81003535,-0.808027,-0.80276704,-0.79591316,-0.79189646,-0.7890593,-0.7878479,-0.7850425,-0.7818228,-0.7797826,-0.7785712,-0.77735984,-0.7745545,-0.7717173,-0.76891196,-0.76527786,-0.76285505,-0.7596353,-0.7592209,-0.7620581,-0.76406646,-0.76406646,-0.7612293,-0.7584239,-0.7580095,-0.76043224,-0.76164365,-0.7592209,-0.7564156,-0.75558674,-0.7564156,-0.75880647,-0.7612293,-0.7624406,-0.7624406,-0.7612293,-0.75880647,-0.75478977,-0.752367,-0.75316393,-0.7572125,-0.76164365,-0.763652,-0.763652,-0.7620581,-0.7584239,-0.7552042,-0.7511556,-0.7499442,-0.7511556,-0.752367,-0.7527814,-0.75035864,-0.7475214,-0.7455131,-0.74509865,-0.74509865,-0.7438873,-0.7426759,-0.7426759,-0.74229336,-0.7406676,-0.7386592,-0.7374478,-0.7386592,-0.7402531,-0.74108195,-0.7382448,-0.7354394,-0.7342281,-0.7354394,-0.7386592,-0.73987055,-0.7394562,-0.73904175,-0.7382448,-0.7366508,-0.7342281,-0.7318053,-0.7305939,-0.7301795,-0.73139083,-0.7305939,-0.7285856,-0.7273742,-0.72574836,-0.72374,-0.7209028,-0.7160573,-0.71204054,-0.70799196,-0.70477223,-0.7003411,-0.6950811,-0.6918614,-0.69026744,-0.68864167,-0.68341357,-0.6705027,-0.6503236,-0.6285505,-0.6136313,-0.60999715,-0.61847687,-0.634193,-0.6475183,-0.6519494,-0.6479008,-0.64305526,-0.6463069,-0.6616086,-0.68542194,-0.7100322,-0.7269597,-0.73461056,-0.73381364,-0.72979695,-0.7233256,-0.72131723,-0.7225286,-0.7253339,-0.72775674,-0.7285856,-0.72654533,-0.7249514,-0.72453696,-0.72574836,-0.73097646,-0.7402531,-0.72979695,-0.6592177,-0.4966687,-0.23733628,0.0792501,0.3809173,0.6099969,0.71930885,0.7092352,0.5982976,0.40473068,0.15387797,-0.13733315,-0.4329434,-0.68864167,-0.85600436,-0.91166437,-0.87940323,-0.80923843,-0.75316393,-0.73301667,-0.7418789,-0.76043224,-0.7717173,-0.7725462,-0.7660748,-0.7580095,-0.7507412,-0.7443017,-0.7402531,-0.73703337,-0.73381364,-0.7285856,-0.7201058,-0.71041477,-0.7019669,-0.6954956,-0.69026744,-0.6837961,-0.67815363,-0.6745194,-0.6705027,-0.6652428,-0.65558356,-0.645478,-0.6362014,-0.6289649,-0.622908,-0.6144283,-0.6039402,-0.59345216,-0.58296406,-0.5728904,-0.561191,-0.54706883,-0.53256404,-0.5172304,-0.5007173,-0.48216397,-0.4636106,-0.44665122,-0.43013805,-0.41400748,-0.3954541,-0.37568945,-0.35713607,-0.34059107,-0.32646888,-0.31234658,-0.3006472,-0.29341072,-0.290191,-0.29219937,-0.29825628,-0.3107527,-0.3325258,-0.36357552,-0.40230805,-0.4458542,-0.49303454,-0.54263765,-0.5914438,-0.6362014,-0.673308,-0.7084064,-0.7402531,-0.76891196,-0.792279,-0.80723006,-0.8156779,-0.8233607,-0.8305971,-0.83585703,-0.837451,-0.8362396,-0.8338487,-0.83021456,-0.82779175,-0.824572,-0.8209379,-0.81650674,-0.81245816,-0.808824,-0.8060187,-0.80518985,-0.8068156,-0.80844146,-0.8076126,-0.8023845,-0.7934904,-0.7862539,-0.7818228,-0.780994,-0.7806114,-0.780197,-0.77940005,-0.7781887,-0.7777742,-0.7777742,-0.7769773,-0.77735984,-0.7769773,-0.77414006,-0.77012336,-0.7677006,-0.7684976,-0.7692945,-0.7705059,-0.7677006,-0.76527786,-0.76527786,-0.76687175,-0.7692945,-0.76970893,-0.7672862,-0.7677006,-0.7672862,-0.76808316,-0.7664892,-0.76406646,-0.76285505,-0.763652,-0.7648634,-0.7648634,-0.76406646,-0.7644808,-0.76527786,-0.76566035,-0.763652,-0.76084673,-0.7580095,-0.7580095,-0.75880647,-0.7592209,-0.7600179,-0.75880647,-0.7564156,-0.7527814,-0.7491473,-0.74631006,-0.7467245,-0.7487328,-0.7491473,-0.7471389,-0.74509865,-0.7426759,-0.74108195,-0.7406676,-0.73987055,-0.7402531,-0.74108195,-0.7406676,-0.7382448,-0.73381364,-0.7305939,-0.73139083,-0.73502505,-0.7382448,-0.7378622,-0.7366508,-0.73582196,-0.7366508,-0.7382448,-0.7366508,-0.7333992,-0.73139083,-0.72979695,-0.72979695,-0.72979695,-0.7281711,-0.7285856,-0.7301795,-0.7305939,-0.7285856,-0.72574836,-0.7233256,-0.7229111,-0.7225286,-0.71930885,-0.7136345,-0.70799196,-0.7039753,-0.7019669,-0.69954413,-0.6975039,-0.6954956,-0.6922758,-0.68299913,-0.66364884,-0.63782716,-0.6148427,-0.6031433,-0.6067774,-0.6200708,-0.63540435,-0.6475183,-0.65233195,-0.6499411,-0.64589244,-0.6487297,-0.66364884,-0.68822724,-0.71446335,-0.73139083,-0.7382448,-0.7374478,-0.7342281,-0.73218787,-0.7289681,-0.72654533,-0.7261628,-0.72775674,-0.7289681,-0.7301795,-0.73097646,-0.73260224,-0.73582196,-0.7443017,-0.75035864,-0.7293825,-0.63862413,-0.44665122,-0.15346372,0.1909846,0.51158786,0.7447159,0.84312534,0.813287,0.6773566,0.4551307,0.17121994,-0.15505755,-0.47690398,-0.7386592,-0.8927285,-0.9245752,-0.87334627,-0.79996175,-0.75157,-0.74229336,-0.7584239,-0.7777742,-0.78746533,-0.7850425,-0.7797826,-0.7757659,-0.7745545,-0.7725462,-0.7660748,-0.75759506,-0.7479359,-0.7386592,-0.7301795,-0.7196914,-0.71204054,-0.70639807,-0.7011381,-0.6954956,-0.68743026,-0.6777392,-0.6696739,-0.6632345,-0.65838885,-0.651535,-0.6442666,-0.63540435,-0.6241194,-0.61283433,-0.5995091,-0.58621573,-0.5728904,-0.5587683,-0.5450604,-0.531767,-0.5188562,-0.5063598,-0.4914406,-0.47409868,-0.4531225,-0.43335783,-0.415187,-0.3954541,-0.37447798,-0.35471332,-0.33695692,-0.32245213,-0.3087443,-0.29219937,-0.27444297,-0.2611496,-0.25710106,-0.26153213,-0.27402854,-0.29420775,-0.32324916,-0.3603558,-0.403902,-0.4494884,-0.49344897,-0.53862095,-0.5865983,-0.6374128,-0.6858363,-0.72654533,-0.75880647,-0.7830023,-0.80276704,-0.81972647,-0.83180845,-0.84028816,-0.8459307,-0.8499793,-0.85278463,-0.853199,-0.8511907,-0.8483535,-0.8451337,-0.84312534,-0.8390768,-0.83301985,-0.8257834,-0.81851506,-0.8116612,-0.80640125,-0.8076126,-0.8144665,-0.8225318,-0.8281743,-0.8265804,-0.8181007,-0.8076126,-0.8007587,-0.797539,-0.797539,-0.79795337,-0.797539,-0.79795337,-0.797539,-0.7955306,-0.79189646,-0.78542507,-0.78220534,-0.7862539,-0.7955306,-0.80640125,-0.8128726,-0.8108323,-0.8023845,-0.7943192,-0.7878479,-0.7826198,-0.7789856,-0.77656287,-0.77493703,-0.7777742,-0.7814084,-0.780994,-0.7797826,-0.7806114,-0.78341675,-0.78462815,-0.78220534,-0.7729287,-0.76164365,-0.7580095,-0.7612293,-0.76527786,-0.7644808,-0.7600179,-0.7564156,-0.7596353,-0.7692945,-0.7785712,-0.7789856,-0.7717173,-0.76084673,-0.752367,-0.7499442,-0.7499442,-0.752367,-0.752367,-0.7507412,-0.7507412,-0.7455131,-0.74309033,-0.74309033,-0.7443017,-0.7487328,-0.75357836,-0.75558674,-0.75478977,-0.74831843,-0.7386592,-0.73139083,-0.7301795,-0.7342281,-0.7402531,-0.74350476,-0.74108195,-0.73703337,-0.73502505,-0.7354394,-0.7378622,-0.7378622,-0.73301667,-0.7261628,-0.71726865,-0.71204054,-0.70639807,-0.7031783,-0.7023494,-0.7027639,-0.70598364,-0.70799196,-0.7076094,-0.7027639,-0.69026744,-0.6656572,-0.63460743,-0.60878575,-0.60030603,-0.6079888,-0.62654215,-0.6442666,-0.65638053,-0.65960026,-0.6551691,-0.6511524,-0.6551691,-0.67209667,-0.70075554,-0.7293825,-0.7414645,-0.7366508,-0.7241225,-0.7136345,-0.71082914,-0.7168861,-0.72654533,-0.73502505,-0.74108195,-0.73987055,-0.7386592,-0.73703337,-0.73301667,-0.72775674,-0.7273742,-0.73218787,-0.7233256,-0.66364884,-0.5051484,-0.23089683,0.117982626,0.4563421,0.69590986,0.7826197,0.73464227,0.59791505,0.39988506,0.14460135,-0.16637444,-0.49587178,-0.7757659,-0.9379005,-0.96694183,-0.9056393,-0.8188976,-0.75035864,-0.71726865,-0.7188945,-0.7414645,-0.76970893,-0.7866365,-0.78220534,-0.76084673,-0.7378622,-0.7273742,-0.7273742,-0.73097646,-0.7289681,-0.7221142,-0.7160573,-0.7116262,-0.70678055,-0.6954956,-0.6769422,-0.6580063,-0.6499411,-0.6475183,-0.650738,-0.65437216,-0.6483152,-0.6362014,-0.622111,-0.6104115,-0.605566,-0.6067774,-0.605566,-0.59064686,-0.5648252,-0.53578377,-0.5123849,-0.50272566,-0.50151426,-0.5019287,-0.49466032,-0.47690398,-0.448277,-0.4184386,-0.3958367,-0.38455164,-0.38091755,-0.37285227,-0.3462336,-0.30912685,-0.27728015,-0.26315796,-0.26800352,-0.28371966,-0.301476,-0.31154966,-0.32162333,-0.3357455,-0.35270494,-0.376072,-0.41196728,-0.46319616,-0.5224904,-0.5789474,-0.622908,-0.65233195,-0.68016195,-0.71930885,-0.77012336,-0.8181007,-0.8435079,-0.84551626,-0.83301985,-0.8168893,-0.8128726,-0.82052344,-0.83101153,-0.841914,-0.847939,-0.8459307,-0.8390768,-0.83301985,-0.83301985,-0.83706844,-0.84028816,-0.8322229,-0.81366956,-0.792279,-0.77493703,-0.76891196,-0.7830023,-0.8023845,-0.8160923,-0.8213204,-0.81488097,-0.80276704,-0.792279,-0.7826198,-0.76970893,-0.75880647,-0.7596353,-0.77735984,-0.7971245,-0.8015557,-0.7850425,-0.7592209,-0.74350476,-0.75035864,-0.7729287,-0.7862539,-0.780197,-0.76043224,-0.74350476,-0.7467245,-0.7705059,-0.79795337,-0.81124675,-0.80276704,-0.77213174,-0.7366508,-0.712455,-0.71325195,-0.7394562,-0.7725462,-0.79269344,-0.7902707,-0.76970893,-0.7479359,-0.7366508,-0.73987055,-0.75035864,-0.7632695,-0.77213174,-0.7717173,-0.7624406,-0.7487328,-0.73904175,-0.7406676,-0.7467245,-0.7527814,-0.7539928,-0.7426759,-0.7293825,-0.7188945,-0.71567476,-0.72453696,-0.7455131,-0.76687175,-0.78220534,-0.77940005,-0.7580095,-0.73381364,-0.7188945,-0.71848005,-0.72574836,-0.7273742,-0.72052026,-0.7116262,-0.7164717,-0.73260224,-0.7414645,-0.73987055,-0.7301795,-0.72374,-0.73139083,-0.7438873,-0.7479359,-0.73502505,-0.7136345,-0.7031783,-0.70799196,-0.7201058,-0.7273742,-0.7196914,-0.70477223,-0.6934872,-0.6918614,-0.69591,-0.7003411,-0.7011381,-0.6983328,-0.69065,-0.6745194,-0.6495266,-0.6253308,-0.61120856,-0.61605406,-0.6337786,-0.6531608,-0.66686857,-0.6692914,-0.6592177,-0.64589244,-0.64187574,-0.651535,-0.6737225,-0.7031783,-0.7273742,-0.73987055,-0.74831843,-0.75035864,-0.7455131,-0.7366508,-0.72654533,-0.72131723,-0.7216998,-0.72453696,-0.7249514,-0.7241225,-0.7269597,-0.7354394,-0.75316393,-0.76527786,-0.7499442,-0.673308,-0.50916517,-0.25346684,0.06069672,0.36921787,0.6099969,0.7281709,0.7196914,0.6075742,0.42286956,0.18330193,-0.108291686,-0.4244637,-0.70678055,-0.8943224,-0.95281965,-0.9056393,-0.8213204,-0.76043224,-0.7386592,-0.7511556,-0.7733431,-0.7870509,-0.7878479,-0.780994,-0.76970893,-0.75880647,-0.7564156,-0.7592209,-0.7584239,-0.75157,-0.7402531,-0.7249514,-0.7112436,-0.7019669,-0.69670695,-0.69269025,-0.6922758,-0.6946986,-0.69065,-0.68016195,-0.6692914,-0.66243744,-0.66364884,-0.66364884,-0.6539577,-0.6321846,-0.6071918,-0.58863854,-0.57693905,-0.57368743,-0.5789474,-0.5813702,-0.57693905,-0.5587683,-0.5232873,-0.4813351,-0.4458542,-0.4244637,-0.41965002,-0.4256751,-0.4329434,-0.4256751,-0.39503974,-0.3502822,-0.3079155,-0.2833053,-0.284931,-0.2990533,-0.3067041,-0.301476,-0.29219937,-0.28856516,-0.30185854,-0.3272658,-0.3627786,-0.403902,-0.45028532,-0.4990915,-0.5478976,-0.5910294,-0.6313877,-0.6777392,-0.7253339,-0.76566035,-0.79310787,-0.8023845,-0.80276704,-0.8068156,-0.81650674,-0.8293857,-0.83544266,-0.8338487,-0.8298001,-0.82696295,-0.8350601,-0.8483535,-0.853996,-0.84229654,-0.8209379,-0.8048073,-0.79996175,-0.8116612,-0.8233607,-0.82052344,-0.81003535,-0.79795337,-0.792279,-0.7947018,-0.7983359,-0.80518985,-0.8116612,-0.81325513,-0.808824,-0.7934904,-0.7717173,-0.763652,-0.7729287,-0.79189646,-0.8056042,-0.7991648,-0.7757659,-0.7539928,-0.7487328,-0.76084673,-0.7797826,-0.7882623,-0.7866365,-0.7797826,-0.780197,-0.7878479,-0.7934904,-0.78746533,-0.7692945,-0.75157,-0.7511556,-0.7684976,-0.792279,-0.8019701,-0.78583956,-0.7580095,-0.73987055,-0.7443017,-0.77092034,-0.8003762,-0.80640125,-0.7894737,-0.76406646,-0.74471617,-0.7438873,-0.76084673,-0.77493703,-0.7789856,-0.7717173,-0.7552042,-0.73703337,-0.72654533,-0.7289681,-0.74108195,-0.7567981,-0.76808316,-0.77133477,-0.76285505,-0.75035864,-0.7394562,-0.7285856,-0.7253339,-0.73097646,-0.7386592,-0.7467245,-0.7527814,-0.7507412,-0.7455131,-0.7402531,-0.7301795,-0.7241225,-0.7249514,-0.7293825,-0.7333992,-0.7289681,-0.71848005,-0.7128376,-0.7168861,-0.7249514,-0.7285856,-0.7233256,-0.71526027,-0.71204054,-0.7128376,-0.71404886,-0.71446335,-0.7164717,-0.7233256,-0.73260224,-0.7301795,-0.7148459,-0.69269025,-0.67209667,-0.66645414,-0.67209667,-0.68258476,-0.68621886,-0.6777392,-0.6580063,-0.633396,-0.61726546,-0.6116229,-0.61806244,-0.6309733,-0.6466894,-0.66364884,-0.67209667,-0.66766554,-0.6547547,-0.64468104,-0.650738,-0.6805764,-0.7196914,-0.7471389,-0.75316393,-0.7426759,-0.72775674,-0.71930885,-0.7196914,-0.7221142,-0.7233256,-0.7253339,-0.7281711,-0.73301667,-0.73461056,-0.73703337,-0.74350476,-0.75558674,-0.75157,-0.6809908,-0.5071567,-0.2252543,0.12158489,0.4539193,0.7063979,0.83184004,0.8285886,0.71848,0.5244986,0.26436913,-0.051834643,-0.3833403,-0.67493385,-0.8656954,-0.9257866,-0.8834518,-0.8056042,-0.7519525,-0.7374478,-0.7527814,-0.77414006,-0.78462815,-0.7814084,-0.7660748,-0.7560012,-0.7600179,-0.7733431,-0.78583956,-0.7830023,-0.7584239,-0.72453696,-0.7003411,-0.69269025,-0.6975039,-0.70518667,-0.7116262,-0.7088208,-0.6991297,-0.68421054,-0.66686857,-0.6551691,-0.6479008,-0.6438841,-0.63824165,-0.6277535,-0.6208996,-0.61726546,-0.61525714,-0.60598046,-0.5865983,-0.56039405,-0.53578377,-0.5200676,-0.51359624,-0.5115879,-0.50272566,-0.48659503,-0.46157038,-0.43214637,-0.40310502,-0.38455164,-0.37527496,-0.3708439,-0.35592467,-0.33051747,-0.30469579,-0.2833053,-0.2704262,-0.26558065,-0.2643693,-0.2659632,-0.27606875,-0.29825628,-0.32324916,-0.3522905,-0.3893972,-0.43616313,-0.4914406,-0.5482802,-0.5982977,-0.63945293,-0.673308,-0.7035608,-0.73582196,-0.7677006,-0.7939048,-0.81366956,-0.8241576,-0.82779175,-0.8298001,-0.83706844,-0.847939,-0.8584271,-0.86285824,-0.85925597,-0.8491504,-0.8386624,-0.8314259,-0.8298001,-0.8322229,-0.8378654,-0.84229654,-0.84312534,-0.8334343,-0.8181007,-0.8060187,-0.79875034,-0.80276704,-0.8068156,-0.8019701,-0.797539,-0.79996175,-0.81245816,-0.824572,-0.820109,-0.79591316,-0.76687175,-0.75759506,-0.7733431,-0.79875034,-0.81366956,-0.80723006,-0.78746533,-0.7737575,-0.7769773,-0.7902707,-0.8003762,-0.7995473,-0.7894737,-0.77735984,-0.77614844,-0.7862539,-0.7951162,-0.7971245,-0.79875034,-0.8019701,-0.80276704,-0.79996175,-0.78867674,-0.7660748,-0.74831843,-0.7487328,-0.75880647,-0.77213174,-0.78341675,-0.79148203,-0.79189646,-0.7878479,-0.7757659,-0.7620581,-0.7572125,-0.76406646,-0.77535146,-0.7785712,-0.77213174,-0.7644808,-0.76566035,-0.77414006,-0.77940005,-0.77414006,-0.75759506,-0.7406676,-0.73987055,-0.7539928,-0.7684976,-0.7757659,-0.7672862,-0.7491473,-0.73301667,-0.7253339,-0.72775674,-0.7378622,-0.75157,-0.7632695,-0.7692945,-0.76970893,-0.7584239,-0.73904175,-0.71848005,-0.6991297,-0.69591,-0.70639807,-0.7289681,-0.7475214,-0.752367,-0.7487328,-0.7366508,-0.72654533,-0.72052026,-0.72131723,-0.7229111,-0.7209028,-0.71526027,-0.70598364,-0.6962925,-0.6910645,-0.6946986,-0.70075554,-0.7011381,-0.68421054,-0.651535,-0.61525714,-0.59345216,-0.5987121,-0.6241194,-0.6527464,-0.66686857,-0.66122603,-0.6426727,-0.6253308,-0.62654215,-0.650738,-0.69065,-0.72654533,-0.7438873,-0.7443017,-0.73904175,-0.7366508,-0.73502505,-0.72979695,-0.7209028,-0.71404886,-0.7148459,-0.7253339,-0.7374478,-0.7487328,-0.7507412,-0.73582196,-0.7180975,-0.712455,-0.71204054,-0.6817877,-0.56845933,-0.3365425,-0.015939355,0.32044363,0.59670365,0.7535783,0.7850424,0.7068124,0.53135264,0.2760687,-0.041729152,-0.3792917,-0.6725111,-0.8677038,-0.9370716,-0.90844464,-0.837451,-0.7733431,-0.7418789,-0.74309033,-0.7596353,-0.77614844,-0.78220534,-0.7781887,-0.76970893,-0.763652,-0.7580095,-0.7499442,-0.7406676,-0.73097646,-0.72775674,-0.7273742,-0.7209028,-0.7100322,-0.6991297,-0.6946986,-0.6979183,-0.6991297,-0.6918614,-0.67815363,-0.6644458,-0.65558356,-0.6479008,-0.64066434,-0.63177025,-0.6208996,-0.6071918,-0.59507793,-0.58621573,-0.58095574,-0.58095574,-0.5761102,-0.561191,-0.5402149,-0.5172304,-0.49746567,-0.47811538,-0.45755368,-0.4390003,-0.42245537,-0.40712172,-0.38977975,-0.36842108,-0.34785938,-0.32768023,-0.31113523,-0.29742748,-0.28451663,-0.27728015,-0.27565432,-0.28250825,-0.29500467,-0.312761,-0.33695692,-0.37042946,-0.4123817,-0.45997643,-0.5071567,-0.5539546,-0.5987121,-0.6426727,-0.68258476,-0.7188945,-0.7507412,-0.7781887,-0.8023845,-0.820109,-0.8305971,-0.83706844,-0.8435079,-0.8503618,-0.8544104,-0.8552073,-0.8515732,-0.8475565,-0.8463451,-0.8463451,-0.8459307,-0.842711,-0.83827984,-0.83423126,-0.8298001,-0.824572,-0.820109,-0.8160923,-0.81325513,-0.81044984,-0.8056042,-0.7991648,-0.79189646,-0.792279,-0.7947018,-0.797539,-0.79795337,-0.7939048,-0.7890593,-0.78462815,-0.7814084,-0.7797826,-0.7781887,-0.7789856,-0.7797826,-0.77940005,-0.7785712,-0.77735984,-0.7785712,-0.7789856,-0.7781887,-0.77535146,-0.77092034,-0.76891196,-0.76891196,-0.77012336,-0.77133477,-0.7733431,-0.77493703,-0.7757659,-0.77493703,-0.7725462,-0.7705059,-0.76970893,-0.7692945,-0.76970893,-0.76970893,-0.76970893,-0.77012336,-0.76970893,-0.76687175,-0.76527786,-0.763652,-0.7644808,-0.76406646,-0.7624406,-0.76164365,-0.7632695,-0.7672862,-0.76808316,-0.7644808,-0.7580095,-0.75316393,-0.75316393,-0.7560012,-0.7564156,-0.75478977,-0.7527814,-0.7519525,-0.75157,-0.74952984,-0.7471389,-0.74471617,-0.7443017,-0.7455131,-0.74509865,-0.74471617,-0.74229336,-0.7426759,-0.74309033,-0.74108195,-0.7394562,-0.7386592,-0.73904175,-0.73987055,-0.7386592,-0.7354394,-0.7305939,-0.7281711,-0.72574836,-0.72052026,-0.71446335,-0.7088208,-0.70598364,-0.7043578,-0.7023494,-0.6987153,-0.6942842,-0.6858363,-0.6700883,-0.6479008,-0.62813604,-0.6188594,-0.6241194,-0.63903856,-0.6539577,-0.66081166,-0.6600146,-0.65717745,-0.6559661,-0.66202307,-0.679365,-0.70518667,-0.7318053,-0.7491473,-0.7499442,-0.74108195,-0.73139083,-0.7273742,-0.7293825,-0.7333992,-0.7354394,-0.7366508,-0.73904175,-0.74108195,-0.7402531,-0.73904175,-0.7414645,-0.7499442,-0.74952984,-0.70075554,-0.5668335,-0.33010298,-0.016736388,0.31033814,0.58057296,0.7354393,0.756001,0.66323423,0.48375773,0.24301052,-0.044980764,-0.35592467,-0.6426727,-0.8503618,-0.9379005,-0.9148841,-0.836654,-0.7664892,-0.73461056,-0.73904175,-0.7600179,-0.77656287,-0.7870509,-0.79189646,-0.79189646,-0.7838312,-0.77012336,-0.7539928,-0.7418789,-0.73461056,-0.7318053,-0.7285856,-0.7261628,-0.72374,-0.72131723,-0.71446335,-0.70598364,-0.70075554,-0.6934872,-0.6850075,-0.6717141,-0.65717745,-0.64509547,-0.63499,-0.6313877,-0.63782716,-0.6426727,-0.6410469,-0.6237049,-0.59224075,-0.56281686,-0.549906,-0.5503204,-0.54668623,-0.5277185,-0.49625432,-0.46721292,-0.4535051,-0.44907397,-0.44665122,-0.43374038,-0.40712172,-0.3769008,-0.3486563,-0.3272658,-0.3168096,-0.31033832,-0.3026874,-0.28572798,-0.26395494,-0.2546782,-0.25910938,-0.2833053,-0.3220377,-0.36599833,-0.41317862,-0.46035898,-0.51037645,-0.55918264,-0.5995091,-0.633396,-0.66243744,-0.6898531,-0.71526027,-0.74229336,-0.7757659,-0.81044984,-0.8398738,-0.85479295,-0.8544104,-0.8407026,-0.826166,-0.825369,-0.8305971,-0.83544266,-0.842711,-0.8491504,-0.85683316,-0.8624757,-0.8544104,-0.83585703,-0.81245816,-0.7934904,-0.78867674,-0.7934904,-0.80276704,-0.81124675,-0.8160923,-0.81325513,-0.8023845,-0.7878479,-0.77735984,-0.7830023,-0.8003762,-0.81245816,-0.8048073,-0.7814084,-0.7600179,-0.7567981,-0.76970893,-0.78583956,-0.79310787,-0.78746533,-0.77092034,-0.7592209,-0.7539928,-0.7560012,-0.76084673,-0.763652,-0.76970893,-0.77656287,-0.78583956,-0.7838312,-0.7717173,-0.75357836,-0.74831843,-0.763652,-0.78583956,-0.7943192,-0.7902707,-0.78462815,-0.77656287,-0.77092034,-0.76406646,-0.7491473,-0.7382448,-0.7394562,-0.7519525,-0.7664892,-0.7757659,-0.7789856,-0.76891196,-0.7564156,-0.74831843,-0.7467245,-0.7507412,-0.75316393,-0.75880647,-0.76566035,-0.7733431,-0.7781887,-0.76891196,-0.74831843,-0.72775674,-0.712455,-0.7088208,-0.7164717,-0.7273742,-0.7402531,-0.752367,-0.7584239,-0.75316393,-0.7402531,-0.7293825,-0.7249514,-0.72654533,-0.7289681,-0.7261628,-0.71404886,-0.70518667,-0.7084064,-0.71848005,-0.7269597,-0.72453696,-0.7112436,-0.6979183,-0.6934872,-0.6987153,-0.7019669,-0.6934872,-0.6765597,-0.65233195,-0.6245338,-0.6051516,-0.5990947,-0.6071918,-0.6301763,-0.6499411,-0.6495266,-0.63945293,-0.62934744,-0.6337786,-0.66282,-0.7023494,-0.73582196,-0.7539928,-0.7567981,-0.7499442,-0.73582196,-0.7221142,-0.7088208,-0.69992673,-0.6979183,-0.7019669,-0.7180975,-0.7426759,-0.76406646,-0.7733431,-0.76164365,-0.7438873,-0.7378622,-0.7333992,-0.6918614,-0.5620198,-0.31234658,0.02680993,0.37728322,0.6636486,0.82699466,0.84675944,0.743919,0.54952335,0.2986387,0.012719512,-0.29178488,-0.5745163,-0.79269344,-0.90844464,-0.9173069,-0.8604673,-0.7955306,-0.7584239,-0.7560012,-0.7692945,-0.7757659,-0.76891196,-0.76043224,-0.7644808,-0.7777742,-0.79189646,-0.796742,-0.78542507,-0.76808316,-0.7491473,-0.7229111,-0.6975039,-0.68137336,-0.6837961,-0.7031783,-0.72574836,-0.73139083,-0.712455,-0.68341357,-0.6539577,-0.63460743,-0.6329816,-0.6422583,-0.65437216,-0.6567949,-0.6466894,-0.6249163,-0.5979152,-0.5720935,-0.5539546,-0.5422551,-0.5382066,-0.5369952,-0.53256404,-0.51321375,-0.4813351,-0.45149678,-0.42851228,-0.4160158,-0.40351945,-0.38292587,-0.3603558,-0.3397941,-0.3244605,-0.30832994,-0.28856516,-0.27163768,-0.26194656,-0.26274353,-0.2695974,-0.2809143,-0.30306995,-0.3389653,-0.38050306,-0.41882116,-0.45149678,-0.47852975,-0.51037645,-0.55918264,-0.61685103,-0.6797794,-0.7386592,-0.7789856,-0.7991648,-0.8056042,-0.8068156,-0.81325513,-0.824572,-0.841914,-0.85804456,-0.8669068,-0.86891514,-0.8612643,-0.84672767,-0.8350601,-0.83301985,-0.8378654,-0.8471421,-0.8544104,-0.84956485,-0.837451,-0.8233607,-0.8108323,-0.80640125,-0.8056042,-0.8048073,-0.8023845,-0.80276704,-0.80640125,-0.81124675,-0.81408393,-0.8108323,-0.8023845,-0.79269344,-0.78341675,-0.7745545,-0.77092034,-0.7717173,-0.77940005,-0.78746533,-0.7902707,-0.7902707,-0.7850425,-0.780197,-0.77940005,-0.7814084,-0.7830023,-0.7806114,-0.7757659,-0.7677006,-0.76164365,-0.76043224,-0.7632695,-0.76808316,-0.7729287,-0.77614844,-0.7785712,-0.77940005,-0.7789856,-0.77535146,-0.7692945,-0.76406646,-0.76164365,-0.76164365,-0.763652,-0.76566035,-0.7677006,-0.7684976,-0.7705059,-0.77012336,-0.76566035,-0.7600179,-0.75558674,-0.7552042,-0.7560012,-0.7564156,-0.75558674,-0.75357836,-0.7527814,-0.75316393,-0.75316393,-0.75357836,-0.75357836,-0.7552042,-0.7564156,-0.75437534,-0.74952984,-0.74350476,-0.7382448,-0.7342281,-0.72979695,-0.72374,-0.7164717,-0.7128376,-0.71041477,-0.7088208,-0.70477223,-0.69147885,-0.67088526,-0.6466894,-0.6273391,-0.6204852,-0.6269247,-0.6422583,-0.65638053,-0.6644458,-0.667283,-0.66766554,-0.6745194,-0.6898531,-0.7112436,-0.73381364,-0.7507412,-0.75759506,-0.7564156,-0.7507412,-0.7471389,-0.7475214,-0.7511556,-0.7539928,-0.75437534,-0.75157,-0.7511556,-0.752367,-0.75437534,-0.7564156,-0.76043224,