-0.7357184,-0.7337581,-0.7337581,-0.7345544,-0.73492205,-0.7337581,-0.73259413,-0.7329923,-0.7345544,-0.73492205,-0.73339045,-0.73106253,-0.7302662,-0.7295004,-0.72833645,-0.7264067,-0.72447693,-0.72447693,-0.7248446,-0.72447693,-0.7229148,-0.7213833,-0.72175086,-0.72175086,-0.7202193,-0.7174932,-0.7140013,-0.7140013,-0.7155634,-0.715931,-0.714767,-0.7109076,-0.7074157,-0.7023922,-0.69733816,-0.6915183,-0.68572915,-0.683003,-0.6810733,-0.67914355,-0.6744877,-0.662848,-0.64425516,-0.6210065,-0.60085154,-0.59153974,-0.59735966,-0.61402273,-0.62992,-0.63766956,-0.63534164,-0.62992,-0.63184977,-0.64581734,-0.67059755,-0.6985022,-0.7205869,-0.7322265,-0.73339045,-0.72757065,-0.7213833,-0.7182589,-0.71942294,-0.7229148,-0.72524273,-0.72524273,-0.72447693,-0.72524273,-0.7271725,-0.7298986,-0.73339045,-0.74074185,-0.74230397,-0.7039238,-0.5822587,-0.35167092,-0.024596393,0.3377341,0.6620823,0.88179624,0.9561982,0.8965297,0.718259,0.44855583,0.1148957,-0.24820042,-0.58109474,-0.82561946,-0.93760526,-0.92712957,-0.85272765,-0.7794897,-0.7457959,-0.7508193,-0.77330226,-0.7926609,-0.80004287,-0.79808253,-0.79112935,-0.7818176,-0.7721383,-0.76282656,-0.7566392,-0.75121754,-0.7457959,-0.73917973,-0.73182833,-0.72524273,-0.7182589,-0.71050936,-0.70199406,-0.6934787,-0.68649495,-0.67990935,-0.6717615,-0.6620822,-0.652403,-0.64425516,-0.6369038,-0.6291236,-0.6198425,-0.60976505,-0.60045326,-0.5896101,-0.57683706,-0.56170547,-0.5458082,-0.5311054,-0.51597387,-0.4993108,-0.4803198,-0.45939898,-0.43924403,-0.41872144,-0.39740252,-0.37531775,-0.35360056,-0.33307803,-0.3136888,-0.29469782,-0.27687073,-0.262168,-0.253622,-0.25013012,-0.2509266,-0.25595003,-0.26679325,-0.28694826,-0.31564915,-0.35243666,-0.39507455,-0.4427359,-0.4946549,-0.5477685,-0.5992893,-0.6465831,-0.69075257,-0.7306644,-0.7647563,-0.7926609,-0.81321406,-0.82794744,-0.84032226,-0.84963393,-0.8554538,-0.85854745,-0.85971147,-0.8601096,-0.85971147,-0.85698533,-0.8531258,-0.8488682,-0.84614205,-0.8442123,-0.84111863,-0.83722854,-0.8325727,-0.8310411,-0.82987714,-0.82794744,-0.82405734,-0.8194015,-0.815542,-0.81281585,-0.8104879,-0.8077924,-0.8054645,-0.80430055,-0.8031366,-0.8012068,-0.79771495,-0.7949888,-0.7946212,-0.795387,-0.7949888,-0.7926609,-0.7895672,-0.7884032,-0.7884032,-0.7891996,-0.7895672,-0.78880143,-0.7891996,-0.78880143,-0.7876375,-0.7857077,-0.78414553,-0.78414553,-0.7833798,-0.78065366,-0.776396,-0.7721383,-0.77137256,-0.7729041,-0.77406806,-0.7748338,-0.7744663,-0.7748338,-0.77366984,-0.7705761,-0.7667167,-0.763623,-0.76438874,-0.7659203,-0.76708424,-0.7667167,-0.7647563,-0.7639905,-0.7632248,-0.7612951,-0.7581707,-0.75624096,-0.75700676,-0.75700676,-0.7566392,-0.75354546,-0.7500536,-0.7488896,-0.7492572,-0.7500536,-0.7492572,-0.74809325,-0.74809325,-0.74772567,-0.7465617,-0.74383557,-0.74074185,-0.74074185,-0.74074185,-0.7403437,-0.7395779,-0.73841393,-0.73804635,-0.73804635,-0.7376481,-0.7357184,-0.7337581,-0.7329923,-0.7322265,-0.7314302,-0.7302662,-0.7287346,-0.7287346,-0.72833645,-0.7271725,-0.7260085,-0.7256409,-0.72757065,-0.7287346,-0.72913283,-0.7271725,-0.72447693,-0.72368056,-0.7229148,-0.722149,-0.7205869,-0.7190553,-0.7198211,-0.7202193,-0.71942294,-0.7167274,-0.7140013,-0.7136031,-0.71439946,-0.71439946,-0.71207154,-0.70781386,-0.704322,-0.7000643,-0.69501024,-0.6895886,-0.68416697,-0.6810733,-0.6787454,-0.6764174,-0.6736913,-0.66983175,-0.6605201,-0.64269304,-0.6175146,-0.59426594,-0.58342266,-0.59000826,-0.60667133,-0.6233344,-0.632248,-0.63184977,-0.62992,-0.6330137,-0.6465831,-0.6694336,-0.6961742,-0.7190553,-0.7306644,-0.7302662,-0.723313,-0.7163292,-0.71439946,-0.715931,-0.71865714,-0.71942294,-0.71942294,-0.72098505,-0.7229148,-0.72447693,-0.7248446,-0.7279689,-0.7376481,-0.7376481,-0.6891904,-0.5512604,-0.3020798,0.037400126,0.40242612,0.7190553,0.91861427,0.9697676,0.8864522,0.6911509,0.40980804,0.066468716,-0.3020798,-0.632248,-0.8608754,-0.94844854,-0.91628635,-0.8333691,-0.7632248,-0.7345544,-0.74230397,-0.7632248,-0.7798879,-0.78647345,-0.7833798,-0.776396,-0.7678807,-0.76013106,-0.75391304,-0.74732745,-0.73997605,-0.7314302,-0.7240788,-0.71942294,-0.71516526,-0.7097436,-0.70159584,-0.69308054,-0.68609667,-0.6802769,-0.6744877,-0.66673815,-0.65742636,-0.64851284,-0.6395993,-0.6306858,-0.6210065,-0.610929,-0.6016173,-0.5911722,-0.57913435,-0.56519735,-0.55046403,-0.53652704,-0.5213955,-0.5051306,-0.4861396,-0.46598458,-0.4469936,-0.42800254,-0.40748,-0.38499707,-0.36174834,-0.34042943,-0.31990683,-0.3001194,-0.28152663,-0.2652617,-0.253622,-0.24703646,-0.24354452,-0.24238056,-0.24627072,-0.2594418,-0.282323,-0.31448525,-0.35476458,-0.40205836,-0.45474315,-0.5082243,-0.55937755,-0.6062732,-0.6496768,-0.6919165,-0.73106253,-0.7651545,-0.7930591,-0.81397986,-0.83064294,-0.8422826,-0.84963393,-0.853524,-0.8554538,-0.8577817,-0.85854745,-0.8581493,-0.8550556,-0.8515637,-0.85003215,-0.8481024,-0.8449781,-0.8399546,-0.83453304,-0.83064294,-0.82715106,-0.8248231,-0.8217294,-0.8186357,-0.8170735,-0.815542,-0.8116519,-0.80586267,-0.80004287,-0.796551,-0.7946212,-0.79382485,-0.7926609,-0.79073113,-0.79073113,-0.7899654,-0.78880143,-0.78607523,-0.7833798,-0.7829816,-0.7837473,-0.78454375,-0.7829816,-0.7810518,-0.78065366,-0.7810518,-0.78258336,-0.78221583,-0.7802861,-0.7791221,-0.7783257,-0.77795815,-0.77755994,-0.77755994,-0.7791221,-0.7798879,-0.7802861,-0.7787239,-0.7767942,-0.776396,-0.776396,-0.77563024,-0.77406806,-0.7725059,-0.77174014,-0.77097434,-0.7686464,-0.7655527,-0.76245904,-0.7616626,-0.7616626,-0.76049864,-0.7574049,-0.755077,-0.75431126,-0.755077,-0.75431126,-0.7519833,-0.7484914,-0.7469599,-0.7465617,-0.7469599,-0.7469599,-0.7465617,-0.74732745,-0.7469599,-0.7449995,-0.74074185,-0.7376481,-0.7376481,-0.7395779,-0.74150765,-0.74150765,-0.73917973,-0.7376481,-0.7368824,-0.73725,-0.73725,-0.736086,-0.7353202,-0.7337581,-0.73106253,-0.72757065,-0.72524273,-0.7248446,-0.7260085,-0.7260085,-0.7240788,-0.7213833,-0.71942294,-0.7190553,-0.7198211,-0.7205869,-0.7205869,-0.7205869,-0.71942294,-0.7167274,-0.71283734,-0.71050936,-0.7109076,-0.7116734,-0.7124697,-0.71130574,-0.70857966,-0.70625174,-0.703158,-0.6985022,-0.69231474,-0.68609667,-0.68183905,-0.6787454,-0.6775814,-0.6768156,-0.67525345,-0.66983175,-0.6531687,-0.6275921,-0.60045326,-0.58342266,-0.5837902,-0.5977578,-0.6144209,-0.62449837,-0.6256623,-0.6233344,-0.6241002,-0.6337795,-0.6539345,-0.680675,-0.7066499,-0.7225166,-0.7260085,-0.7202193,-0.7140013,-0.71207154,-0.7155634,-0.7198211,-0.72175086,-0.72175086,-0.723313,-0.7248446,-0.7264067,-0.72680485,-0.7279689,-0.73648417,-0.74306977,-0.7163292,-0.61169475,-0.39973044,-0.08313161,0.28658068,0.63261557,0.88412416,0.9883604,0.94921434,0.78803563,0.5311055,0.20326531,-0.16681468,-0.52255946,-0.796551,-0.9368395,-0.93993324,-0.8647655,-0.7829816,-0.7376481,-0.73415625,-0.7527491,-0.7729041,-0.7837473,-0.7833798,-0.77599776,-0.7659203,-0.75624096,-0.75042117,-0.7457959,-0.74114007,-0.7353202,-0.7279689,-0.7202193,-0.7109076,-0.70122826,-0.6915183,-0.68376875,-0.6787454,-0.6733237,-0.6671057,-0.6589886,-0.6504426,-0.6434895,-0.63534164,-0.6264281,-0.6151867,-0.6055074,-0.59812534,-0.59000826,-0.5799308,-0.5655956,-0.54969823,-0.5353631,-0.5202315,-0.5051306,-0.48574138,-0.46445304,-0.44389987,-0.42374486,-0.40358984,-0.38230157,-0.36174834,-0.34159338,-0.3222348,-0.30244738,-0.28192484,-0.2652617,-0.2540202,-0.24703646,-0.24317694,-0.24045086,-0.24008328,-0.24820042,-0.26565987,-0.29316622,-0.32958615,-0.374552,-0.42530704,-0.4803198,-0.5349649,-0.58535236,-0.632248,-0.67565167,-0.715931,-0.75042117,-0.7783257,-0.80041045,-0.8182375,-0.8314087,-0.84032226,-0.84344655,-0.84304833,-0.84344655,-0.84344655,-0.84304833,-0.8414862,-0.8399546,-0.83955646,-0.8380249,-0.8349006,-0.8291114,-0.8228934,-0.8194015,-0.81670594,-0.81321406,-0.80816,-0.8031366,-0.80080867,-0.7988789,-0.796551,-0.7918951,-0.7868717,-0.7837473,-0.7810518,-0.7783257,-0.7748338,-0.7729041,-0.7744663,-0.7767942,-0.77755994,-0.775232,-0.77174014,-0.7705761,-0.77137256,-0.7729041,-0.77330226,-0.7729041,-0.77330226,-0.77330226,-0.7725059,-0.7702086,-0.7686464,-0.7702086,-0.77137256,-0.7721383,-0.7705761,-0.7678807,-0.7667167,-0.7659203,-0.7659203,-0.7651545,-0.76282656,-0.76282656,-0.7632248,-0.76282656,-0.7620608,-0.76245904,-0.7632248,-0.763623,-0.76245904,-0.76049864,-0.75700676,-0.7574049,-0.7593347,-0.75973284,-0.75780314,-0.75431126,-0.7519833,-0.7492572,-0.74772567,-0.743468,-0.73917973,-0.73804635,-0.7388121,-0.73917973,-0.7376481,-0.7345544,-0.7337581,-0.73415625,-0.736086,-0.73492205,-0.73339045,-0.73259413,-0.7302662,-0.72913283,-0.72757065,-0.72680485,-0.72680485,-0.72680485,-0.7248446,-0.72175086,-0.7198211,-0.7205869,-0.7213833,-0.72098505,-0.7182589,-0.715931,-0.71709496,-0.71942294,-0.722149,-0.72175086,-0.7190553,-0.71516526,-0.7116734,-0.71050936,-0.71130574,-0.71283734,-0.7136031,-0.71130574,-0.70585346,-0.7004319,-0.69693995,-0.69693995,-0.6965724,-0.6938463,-0.6895886,-0.68572915,-0.68223727,-0.6736913,-0.6566606,-0.6314516,-0.6105308,-0.6035776,-0.6105308,-0.6264281,-0.63766956,-0.6403651,-0.6369038,-0.6337795,-0.63803715,-0.6520047,-0.6736913,-0.6996661,-0.7198211,-0.7295004,-0.7287346,-0.72175086,-0.715931,-0.71439946,-0.71516526,-0.7182589,-0.72098505,-0.723313,-0.72524273,-0.7271725,-0.7264067,-0.7256409,-0.72833645,-0.7368824,-0.73492205,-0.68572915,-0.55628383,-0.3202744,0.0064018965,0.36135018,0.66750395,0.8515638,0.8860539,0.79112947,0.5961957,0.3218366,-0.015682876,-0.3772475,-0.6961742,-0.90271693,-0.9647441,-0.91628635,-0.82987714,-0.76282656,-0.7353202,-0.7395779,-0.7554752,-0.76748246,-0.77174014,-0.7682482,-0.7593347,-0.75042117,-0.74306977,-0.736086,-0.73106253,-0.7256409,-0.7205869,-0.7167274,-0.71207154,-0.70625174,-0.6981039,-0.68842465,-0.67914355,-0.67023003,-0.6624805,-0.65433264,-0.6477471,-0.6430912,-0.63843536,-0.63108397,-0.6210065,-0.60936683,-0.59735966,-0.5872821,-0.5783686,-0.5675253,-0.55628383,-0.5450424,-0.531473,-0.5171379,-0.4993108,-0.47995216,-0.46096116,-0.4419701,-0.42141694,-0.4001286,-0.37764573,-0.3570925,-0.3373357,-0.31834465,-0.29935366,-0.28308874,-0.27028513,-0.2610041,-0.2555824,-0.2524581,-0.254786,-0.2648635,-0.28152663,-0.30557168,-0.33773392,-0.37764573,-0.426471,-0.47915578,-0.53226936,-0.5822587,-0.62875605,-0.6740895,-0.7136031,-0.74772567,-0.775232,-0.79731673,-0.81670594,-0.8333691,-0.84614205,-0.85196185,-0.853524,-0.853524,-0.85272765,-0.8542898,-0.8542898,-0.8515637,-0.84770423,-0.84111863,-0.8352988,-0.829479,-0.82598704,-0.8236591,-0.8228934,-0.82136184,-0.8186357,-0.814378,-0.81088614,-0.8062303,-0.80353475,-0.80080867,-0.79808253,-0.796551,-0.79382485,-0.7899654,-0.7857077,-0.7818176,-0.78065366,-0.7787239,-0.776396,-0.77330226,-0.77174014,-0.7748338,-0.7787239,-0.7794897,-0.77599776,-0.77097434,-0.7686464,-0.76941216,-0.7721383,-0.7744663,-0.77599776,-0.77795815,-0.77795815,-0.7771617,-0.77330226,-0.7705761,-0.7705761,-0.7721383,-0.77330226,-0.77174014,-0.77137256,-0.77174014,-0.7729041,-0.7729041,-0.7702086,-0.7682482,-0.76748246,-0.76708424,-0.7651545,-0.7616626,-0.76089686,-0.763623,-0.76748246,-0.76708424,-0.7612951,-0.75431126,-0.7492572,-0.74965537,-0.7519833,-0.7519833,-0.7500536,-0.7484914,-0.7469599,-0.74732745,-0.74772567,-0.74772567,-0.74809325,-0.7465617,-0.74383557,-0.7388121,-0.73492205,-0.73415625,-0.7357184,-0.7376481,-0.73725,-0.7376481,-0.73841393,-0.7388121,-0.73917973,-0.7376481,-0.73339045,-0.7298986,-0.7260085,-0.7213833,-0.71439946,-0.70818144,-0.7050878,-0.7035562,-0.70159584,-0.69501024,-0.67990935,-0.6578246,-0.63457584,-0.6202407,-0.6175146,-0.6291236,-0.6454191,-0.6578246,-0.6609183,-0.6570282,-0.65433264,-0.6609183,-0.67718315,-0.6985022,-0.71709496,-0.7295004,-0.73415625,-0.7322265,-0.72757065,-0.7225166,-0.71942294,-0.72098505,-0.7256409,-0.7295004,-0.7298986,-0.7279689,-0.72524273,-0.72175086,-0.7213833,-0.72524273,-0.7306644,-0.71207154,-0.6330137,-0.4597972,-0.18464172,0.14472997,0.45164943,0.66517603,0.73841393,0.6845652,0.5403867,0.3256961,0.054430723,-0.25751215,-0.5647992,-0.8077924,-0.9321836,-0.93371516,-0.8620394,-0.7802861,-0.7302662,-0.72175086,-0.73648417,-0.7527491,-0.75973284,-0.7554752,-0.74732745,-0.74114007,-0.7368824,-0.7322265,-0.72757065,-0.7229148,-0.7182589,-0.7132355,-0.7066499,-0.69890034,-0.6911508,-0.6810733,-0.6740895,-0.66866785,-0.66477776,-0.6613165,-0.65586424,-0.6469507,-0.6369038,-0.62799025,-0.6202407,-0.61325693,-0.6051092,-0.5946641,-0.5841884,-0.57487667,-0.5671271,-0.55861175,-0.5458082,-0.530309,-0.51364595,-0.4958189,-0.47799182,-0.4597972,-0.440408,-0.42104936,-0.40205836,-0.38346553,-0.36251414,-0.3423592,-0.3260942,-0.31292307,-0.30324376,-0.29393196,-0.2850185,-0.27883106,-0.27843285,-0.28541666,-0.29935366,-0.3210708,-0.35323304,-0.39158267,-0.43538457,-0.4814837,-0.52798116,-0.57450914,-0.6202407,-0.6624805,-0.70122826,-0.73415625,-0.76245904,-0.7857077,-0.80273837,-0.81397986,-0.8209636,-0.8267834,-0.83064294,-0.8325727,-0.8325727,-0.83297086,-0.8352988,-0.8376267,-0.8380249,-0.8341348,-0.8267834,-0.81903386,-0.8136122,-0.8120501,-0.8097222,-0.8089564,-0.81012034,-0.81012034,-0.80932397,-0.8062303,-0.80004287,-0.7930591,-0.78880143,-0.7857077,-0.7833798,-0.7818176,-0.7802861,-0.77795815,-0.7744663,-0.7702086,-0.7682482,-0.76904464,-0.77137256,-0.7725059,-0.7702086,-0.7667167,-0.76438874,-0.7651545,-0.76708424,-0.7667167,-0.7651545,-0.7632248,-0.76013106,-0.7585689,-0.7566392,-0.7566392,-0.75973284,-0.76282656,-0.7639905,-0.76245904,-0.76013106,-0.75973284,-0.7620608,-0.763623,-0.76089686,-0.7558428,-0.7519833,-0.7508193,-0.7515851,-0.75121754,-0.7500536,-0.74965537,-0.75042117,-0.7531473,-0.755077,-0.7554752,-0.75431126,-0.7523815,-0.7469599,-0.74074185,-0.73725,-0.73725,-0.7403437,-0.7442337,-0.7457959,-0.7457959,-0.7457959,-0.7453977,-0.74463195,-0.7419058,-0.7388121,-0.7368824,-0.736086,-0.73492205,-0.7322265,-0.7298986,-0.7271725,-0.7240788,-0.7198211,-0.71207154,-0.7039238,-0.6981039,-0.6981039,-0.7008301,-0.7000643,-0.69035435,-0.67059755,-0.6461849,-0.6271939,-0.6198425,-0.6271939,-0.64269304,-0.6570282,-0.66477776,-0.66401196,-0.66168404,-0.6659417,-0.67914355,-0.6996661,-0.71865714,-0.7322265,-0.73648417,-0.73339045,-0.72913283,-0.7248446,-0.72524273,-0.7295004,-0.73339045,-0.736086,-0.73415625,-0.7302662,-0.7287346,-0.7298986,-0.73182833,-0.736086,-0.74150765,-0.7295004,-0.6675039,-0.5221919,-0.28115904,0.020737052,0.31485283,0.532637,0.62137413,0.5900084,0.4687109,0.28152668,0.046681285,-0.22844356,-0.51404417,-0.75780314,-0.9070052,-0.93993324,-0.8872178,-0.80586267,-0.7442337,-0.72098505,-0.7279689,-0.74463195,-0.7554752,-0.75700676,-0.7531473,-0.7465617,-0.73997605,-0.73259413,-0.7248446,-0.7190553,-0.7136031,-0.7074157,-0.6996661,-0.6926823,-0.68842465,-0.685331,-0.68183905,-0.67565167,-0.6679021,-0.6613165,-0.65433264,-0.6477471,-0.63920116,-0.63184977,-0.62602997,-0.6206083,-0.6144209,-0.6035776,-0.59153974,-0.5802983,-0.5690875,-0.557846,-0.5458082,-0.53380096,-0.5221919,-0.5105523,-0.49661523,-0.47839004,-0.4590314,-0.44120437,-0.42414302,-0.40515208,-0.38499707,-0.36484206,-0.34897536,-0.33656996,-0.32532847,-0.31408697,-0.30324376,-0.29665816,-0.29782212,-0.30440772,-0.31718075,-0.33773392,-0.36793578,-0.40438628,-0.44546205,-0.48690534,-0.52994144,-0.578001,-0.62602997,-0.67023003,-0.70625174,-0.73415625,-0.7589671,-0.7791221,-0.7957852,-0.80586267,-0.8112843,-0.8170735,-0.82329154,-0.8275492,-0.828315,-0.82561946,-0.8236591,-0.82329154,-0.8236591,-0.8228934,-0.8209636,-0.8178699,-0.81590956,-0.814378,-0.8104879,-0.80662847,-0.80430055,-0.8031366,-0.80041045,-0.796551,-0.7918951,-0.78803563,-0.7853095,-0.7833798,-0.7802861,-0.77755994,-0.7767942,-0.77563024,-0.77366984,-0.76904464,-0.7655527,-0.7639905,-0.7659203,-0.7678807,-0.76748246,-0.76438874,-0.7616626,-0.76089686,-0.7616626,-0.76245904,-0.76245904,-0.7620608,-0.7612951,-0.7593347,-0.75700676,-0.7566392,-0.7566392,-0.7585689,-0.75973284,-0.7574049,-0.75354546,-0.75121754,-0.7508193,-0.75121754,-0.75042117,-0.7492572,-0.74772567,-0.7469599,-0.7469599,-0.7453977,-0.743468,-0.7426716,-0.7419058,-0.74114007,-0.7388121,-0.7368824,-0.7353202,-0.736086,-0.736086,-0.73492205,-0.73492205,-0.7357184,-0.73804635,-0.73804635,-0.7353202,-0.7329923,-0.7329923,-0.7353202,-0.73841393,-0.73804635,-0.736086,-0.73415625,-0.7337581,-0.73339045,-0.73106253,-0.7287346,-0.7271725,-0.7256409,-0.7240788,-0.71942294,-0.714767,-0.71050936,-0.7070174,-0.7039238,-0.7000643,-0.6981039,-0.69693995,-0.69231474,-0.6783471,-0.65356696,-0.62875605,-0.61558485,-0.61828035,-0.63341194,-0.64927864,-0.6585904,-0.6597543,-0.6578246,-0.6578246,-0.6620822,-0.67525345,-0.6942445,-0.7132355,-0.7260085,-0.72913283,-0.72757065,-0.7248446,-0.7229148,-0.72175086,-0.7190553,-0.7174932,-0.7174932,-0.7190553,-0.72098505,-0.7213833,-0.7213833,-0.72447693,-0.7306644,-0.736086,-0.714767,-0.63108397,-0.46019542,-0.20286697,0.09706879,0.3753178,0.57178307,0.6442553,0.60161734,0.4687109,0.26875377,0.022268653,-0.2582779,-0.5353631,-0.7585689,-0.88488984,-0.9035133,-0.85039973,-0.78258336,-0.73804635,-0.7260085,-0.736086,-0.7515851,-0.7616626,-0.7620608,-0.7558428,-0.7484914,-0.74230397,-0.7376481,-0.73259413,-0.7264067,-0.7198211,-0.7140013,-0.7101418,-0.7050878,-0.6981039,-0.69075257,-0.6834012,-0.6775814,-0.6717615,-0.6644102,-0.65586424,-0.6481147,-0.6411615,-0.6349435,-0.62799025,-0.6202407,-0.612093,-0.60278124,-0.5931019,-0.58109474,-0.57061905,-0.5609397,-0.5512604,-0.5407847,-0.52644956,-0.51131797,-0.49545133,-0.479554,-0.4624927,-0.44236833,-0.42181516,-0.40205836,-0.38383305,-0.36600602,-0.34857714,-0.33307803,-0.3210708,-0.31252486,-0.30593926,-0.30128342,-0.29975188,-0.3047753,-0.31718075,-0.33656996,-0.36214662,-0.3962385,-0.43654847,-0.4803198,-0.5245198,-0.56519735,-0.6043434,-0.643857,-0.683003,-0.71865714,-0.74463195,-0.76438874,-0.7791221,-0.79073113,-0.80004287,-0.80662847,-0.8104879,-0.81244826,-0.81397986,-0.81321406,-0.8097222,-0.80662847,-0.80430055,-0.80273837,-0.80080867,-0.79694915,-0.7930591,-0.79073113,-0.7899654,-0.7884032,-0.78454375,-0.7798879,-0.7767942,-0.7748338,-0.7729041,-0.7686464,-0.7632248,-0.76013106,-0.75973284,-0.76089686,-0.76049864,-0.7589671,-0.75780314,-0.75700676,-0.7558428,-0.75431126,-0.7531473,-0.7527491,-0.75431126,-0.7547094,-0.7515851,-0.7488896,-0.74772567,-0.74809325,-0.7488896,-0.74772567,-0.7457959,-0.7442337,-0.7449995,-0.7457959,-0.74463195,-0.74306977,-0.7419058,-0.7426716,-0.743468,-0.743468,-0.7419058,-0.74074185,-0.74074185,-0.74114007,-0.7403437,-0.73917973,-0.7395779,-0.7403437,-0.74074185,-0.7388121,-0.73648417,-0.7353202,-0.7357184,-0.73725,-0.73841393,-0.7388121,-0.7395779,-0.7403437,-0.73997605,-0.73725,-0.7345544,-0.73339045,-0.7337581,-0.73339045,-0.73106253,-0.7287346,-0.7271725,-0.72757065,-0.72833645,-0.72757065,-0.72524273,-0.723313,-0.7229148,-0.7229148,-0.72175086,-0.7202193,-0.71865714,-0.7182589,-0.71789134,-0.7174932,-0.7174932,-0.71789134,-0.7182589,-0.7174932,-0.7136031,-0.71050936,-0.70857966,-0.7093454,-0.71050936,-0.7101418,-0.7089778,-0.70781386,-0.7074157,-0.7070174,-0.7050878,-0.7027598,-0.7000643,-0.69693995,-0.6934787,-0.6876589,-0.68223727,-0.67718315,-0.67485523,-0.6736913,-0.6717615,-0.6690661,-0.6620822,-0.6469507,-0.6256623,-0.60317945,-0.59000826,-0.59077406,-0.6039452,-0.6202407,-0.6291236,-0.6302876,-0.62799025,-0.6275921,-0.63534164,-0.6520047,-0.6760192,-0.6996661,-0.7167274,-0.7229148,-0.7182589,-0.71050936,-0.70585346,-0.7066499,-0.7101418,-0.71283734,-0.71439946,-0.71439946,-0.71516526,-0.715931,-0.714767,-0.71516526,-0.71942294,-0.7264067,-0.7101418,-0.62875605,-0.45397735,-0.18736786,0.12613714,0.41988552,0.6399976,0.7395779,0.720587,0.5969615,0.39041877,0.13116062,-0.16335338,-0.45397735,-0.69733816,-0.85003215,-0.89187366,-0.8538916,-0.7899654,-0.7449995,-0.7345544,-0.7457959,-0.7620608,-0.7721383,-0.77330226,-0.76904464,-0.7612951,-0.75391304,-0.74809325,-0.743468,-0.73804635,-0.7295004,-0.7205869,-0.71207154,-0.70585346,-0.7000643,-0.6934787,-0.6868931,-0.680675,-0.67525345,-0.66983175,-0.6620822,-0.6547003,-0.6473489,-0.6411615,-0.6341777,-0.62449837,-0.61402273,-0.604711,-0.59659386,-0.5892118,-0.57913435,-0.5667595,-0.5531902,-0.53922254,-0.5245198,-0.5082243,-0.4919594,-0.47453058,-0.45707107,-0.4377125,-0.4159953,-0.39507455,-0.3760835,-0.35865462,-0.34082758,-0.3222348,-0.30517352,-0.29123658,-0.28152663,-0.27570677,-0.2718473,-0.27261305,-0.2803626,-0.29626,-0.3202744,-0.3505069,-0.3877232,-0.43033046,-0.47722608,-0.5256838,-0.5721812,-0.61711645,-0.6593561,-0.69890034,-0.73259413,-0.7589671,-0.7794897,-0.7961528,-0.8097222,-0.8186357,-0.8225258,-0.82329154,-0.82329154,-0.82405734,-0.8248231,-0.82329154,-0.8201979,-0.8170735,-0.8151438,-0.81281585,-0.80816,-0.8039023,-0.80080867,-0.80004287,-0.79964465,-0.79731673,-0.79345727,-0.7895672,-0.78723925,-0.78647345,-0.7853095,-0.7837473,-0.7814194,-0.7802861,-0.7787239,-0.7767942,-0.77563024,-0.775232,-0.77563024,-0.776396,-0.775232,-0.77366984,-0.7729041,-0.7729041,-0.7729041,-0.77097434,-0.76904464,-0.7682482,-0.76904464,-0.7702086,-0.76904464,-0.76708424,-0.7647563,-0.7639905,-0.7647563,-0.7647563,-0.7651545,-0.7655527,-0.76708424,-0.76748246,-0.7651545,-0.7616626,-0.7581707,-0.75624096,-0.7554752,-0.75391304,-0.7527491,-0.7519833,-0.7531473,-0.7547094,-0.75354546,-0.7515851,-0.7492572,-0.74809325,-0.74772567,-0.7461635,-0.7442337,-0.743468,-0.743468,-0.74230397,-0.7395779,-0.73725,-0.73648417,-0.73804635,-0.7388121,-0.73648417,-0.73339045,-0.73106253,-0.7306644,-0.7302662,-0.7287346,-0.72680485,-0.72524273,-0.7260085,-0.72680485,-0.72524273,-0.723313,-0.722149,-0.7229148,-0.7229148,-0.7213833,-0.7190553,-0.7174932,-0.7182589,-0.71942294,-0.7190553,-0.7182589,-0.7167274,-0.7174932,-0.7174932,-0.7163292,-0.715931,-0.715931,-0.71789134,-0.7190553,-0.7174932,-0.71439946,-0.71207154,-0.71050936,-0.7097436,-0.70818144,-0.7074157,-0.70818144,-0.71050936,-0.71207154,-0.7101418,-0.7070174,-0.7035562,-0.7023922,-0.70199406,-0.7008301,-0.69890034,-0.69540846,-0.6919165,-0.6876589,-0.68183905,-0.6764174,-0.67215973,-0.67023003,-0.6690661,-0.6671057,-0.662848,-0.6520047,-0.6330137,-0.6086011,-0.5865164,-0.57643884,-0.58302444,-0.60085154,-0.61791277,-0.62526417,-0.62253803,-0.61711645,-0.61791277,-0.62952185,-0.65084076,-0.6768156,-0.6996661,-0.7132355,-0.715931,-0.71050936,-0.7039238,-0.7008301,-0.7023922,-0.70585346,-0.7074157,-0.70857966,-0.7093454,-0.7109076,-0.71207154,-0.71130574,-0.7116734,-0.7182589,-0.7229148,-0.6942445,-0.5865164,-0.373388,-0.06414062,0.28541672,0.60667145,0.838025,0.9337152,0.8988575,0.7453978,0.49894333,0.18736804,-0.16102552,-0.4923576,-0.7519833,-0.8903421,-0.9035133,-0.8418844,-0.7698104,-0.7322265,-0.7322265,-0.7515851,-0.7705761,-0.7791221,-0.77795815,-0.77174014,-0.76245904,-0.7531473,-0.7461635,-0.7419058,-0.73804635,-0.7322265,-0.7240788,-0.714767,-0.7074157,-0.70122826,-0.69464266,-0.68882287,-0.6826048,-0.6768156,-0.66983175,-0.6609183,-0.65160656,-0.64232546,-0.6349435,-0.6271939,-0.6175146,-0.60703886,-0.5969614,-0.5888443,-0.5799308,-0.56829107,-0.5543541,-0.53962076,-0.5256838,-0.5117162,-0.49545133,-0.47839004,-0.46019542,-0.4415719,-0.4206512,-0.39816827,-0.374552,-0.35167092,-0.33267987,-0.31408697,-0.29469782,-0.27687073,-0.2610041,-0.25052834,-0.2451067,-0.24317694,-0.24627072,-0.25518417,-0.27261305,-0.29858786,-0.33191413,-0.373388,-0.42141694,-0.4748981,-0.5287775,-0.57953256,-0.6271939,-0.67023003,-0.7089778,-0.7419058,-0.7682482,-0.7895672,-0.8073942,-0.8221276,-0.83297086,-0.8383925,-0.84111863,-0.8414862,-0.84304833,-0.84344655,-0.8414862,-0.8383925,-0.8349006,-0.8325727,-0.82987714,-0.82598704,-0.8217294,-0.8182375,-0.81670594,-0.815542,-0.81321406,-0.81088614,-0.8077924,-0.80586267,-0.8031366,-0.7988789,-0.7949888,-0.7918951,-0.79112935,-0.79073113,-0.78880143,-0.78723925,-0.7853095,-0.7853095,-0.78454375,-0.7818176,-0.7787239,-0.7767942,-0.77755994,-0.7787239,-0.7791221,-0.77795815,-0.77563024,-0.7744663,-0.77406806,-0.7725059,-0.77174014,-0.77097434,-0.77137256,-0.7702086,-0.76748246,-0.76438874,-0.76245904,-0.763623,-0.7659203,-0.7667167,-0.7655527,-0.7620608,-0.7589671,-0.7558428,-0.75391304,-0.7531473,-0.75431126,-0.75700676,-0.75780314,-0.7558428,-0.75354546,-0.7515851,-0.7519833,-0.7527491,-0.7515851,-0.74965537,-0.74732745,-0.74732745,-0.74809325,-0.74772567,-0.7465617,-0.7449995,-0.74306977,-0.74074185,-0.7376481,-0.73415625,-0.73259413,-0.7337581,-0.7353202,-0.7357184,-0.73492205,-0.7337581,-0.7337581,-0.7345544,-0.7337581,-0.7314302,-0.7295004,-0.72833645,-0.7271725,-0.72680485,-0.7264067,-0.7260085,-0.7271725,-0.72757065,-0.7264067,-0.72368056,-0.7213833,-0.7205869,-0.7198211,-0.71865714,-0.71789134,-0.7167274,-0.71709496,-0.71709496,-0.7155634,-0.7132355,-0.7109076,-0.7109076,-0.7116734,-0.7116734,-0.7093454,-0.7050878,-0.6996661,-0.69464266,-0.6880264,-0.68223727,-0.6768156,-0.6736913,-0.6717615,-0.66866785,-0.66557413,-0.6578246,-0.64192724,-0.61828035,-0.59426594,-0.57913435,-0.5799308,-0.5946641,-0.61246055,-0.62370205,-0.62602997,-0.62449837,-0.62602997,-0.6365056,-0.65549666,-0.6795111,-0.70122826,-0.7140013,-0.7163292,-0.7109076,-0.70472014,-0.7023922,-0.704322,-0.7074157,-0.70818144,-0.70781386,-0.7074157,-0.7093454,-0.7124697,-0.71283734,-0.7132355,-0.7167274,-0.72447693,-0.7109076,-0.6357398,-0.46482062,-0.18660212,0.16335356,0.51171625,0.7825835,0.9127945,0.899225,0.7655529,0.5388552,0.23968518,-0.1141299,-0.47180444,-0.7647563,-0.92908996,-0.9500107,-0.8810304,-0.7930591,-0.7368824,-0.723313,-0.7368824,-0.7589671,-0.77330226,-0.7767942,-0.77137256,-0.7612951,-0.75121754,-0.74463195,-0.74150765,-0.7368824,-0.72833645,-0.71789134,-0.70781386,-0.7004319,-0.69540846,-0.69035435,-0.6845652,-0.6787454,-0.67485523,-0.6690661,-0.6593561,-0.64891106,-0.63920116,-0.6314516,-0.6256623,-0.61791277,-0.6082028,-0.59619564,-0.58535236,-0.5729469,-0.55861175,-0.5442766,-0.53070724,-0.51830184,-0.5039666,-0.48690534,-0.46714854,-0.44506383,-0.42414302,-0.40358984,-0.3830673,-0.36291236,-0.3435231,-0.32300055,-0.3020798,-0.28385448,-0.27028513,-0.26020765,-0.2524581,-0.24317694,-0.23812288,-0.24121666,-0.2567464,-0.2850185,-0.31834465,-0.3563267,-0.39816827,-0.44350165,-0.4927252,-0.5427145,-0.59077406,-0.63766956,-0.6834012,-0.7260085,-0.76049864,-0.7857077,-0.8023708,-0.8151438,-0.82715106,-0.8380249,-0.8446105,-0.847306,-0.84693843,-0.84770423,-0.8465403,-0.84304833,-0.8391889,-0.835697,-0.8360646,-0.8380249,-0.8376267,-0.8341348,-0.8287132,-0.8252213,-0.8228934,-0.8186357,-0.814378,-0.80932397,-0.80586267,-0.80273837,-0.7984807,-0.7926609,-0.78723925,-0.7853095,-0.78414553,-0.7833798,-0.78258336,-0.7810518,-0.7810518,-0.7802861,-0.77755994,-0.77563024,-0.77330226,-0.7744663,-0.776396,-0.7771617,-0.77795815,-0.7783257,-0.7810518,-0.7818176,-0.7794897,-0.77563024,-0.77097434,-0.76748246,-0.7678807,-0.76941216,-0.7725059,-0.77563024,-0.7794897,-0.78065366,-0.7791221,-0.7767942,-0.77330226,-0.7721383,-0.77137256,-0.7702086,-0.76941216,-0.7682482,-0.7682482,-0.76708424,-0.76282656,-0.7593347,-0.7566392,-0.75780314,-0.7593347,-0.7574049,-0.7554752,-0.7523815,-0.7523815,-0.75354546,-0.75354546,-0.7531473,-0.7523815,-0.7523815,-0.7515851,-0.74772567,-0.74463195,-0.7442337,-0.74732745,-0.7500536,-0.7492572,-0.7453977,-0.7403437,-0.73804635,-0.7368824,-0.7368824,-0.7376481,-0.73997605,-0.7426716,-0.7426716,-0.7395779,-0.7357184,-0.73106253,-0.7314302,-0.7322265,-0.7306644,-0.72757065,-0.72524273,-0.723313,-0.722149,-0.72098505,-0.7202193,-0.71865714,-0.7174932,-0.71439946,-0.7101418,-0.70625174,-0.703158,-0.7008301,-0.69733816,-0.69308054,-0.68882287,-0.685331,-0.680675,-0.6675039,-0.6454191,-0.62253803,-0.60743713,-0.6055074,-0.6151867,-0.6275921,-0.6369038,-0.63999754,-0.6407633,-0.6430912,-0.65123904,-0.6690661,-0.6919165,-0.7136031,-0.72524273,-0.7248446,-0.7182589,-0.7132355,-0.7136031,-0.7167274,-0.71942294,-0.7198211,-0.7190553,-0.7205869,-0.723313,-0.72524273,-0.7260085,-0.7260085,-0.73106253,-0.7388121,-0.72524273,-0.65549666,-0.498545,-0.24470854,0.073421836,0.38692677,0.62333465,0.7287346,0.70199406,0.57450926,0.37338817,0.1148957,-0.19239128,-0.5105523,-0.77755994,-0.9298557,-0.9503783,-0.8837259,-0.79808253,-0.74114007,-0.7248446,-0.7345544,-0.74965537,-0.76013106,-0.76282656,-0.7585689,-0.7519833,-0.74383557,-0.73725,-0.7322265,-0.72757065,-0.72098505,-0.7140013,-0.7066499,-0.70159584,-0.69733816,-0.69231474,-0.6849327,-0.6775814,-0.66983175,-0.6636138,-0.65819216,-0.652403,-0.6469507,-0.6395993,-0.6302876,-0.6206083,-0.6105308,-0.6012497,-0.59000826,-0.57643884,-0.5621037,-0.5493001,-0.53885496,-0.5283793,-0.5144423,-0.49970895,-0.48228014,-0.46754676,-0.4508837,-0.43072867,-0.40787816,-0.38423127,-0.36251414,-0.3431555,-0.3260942,-0.3105951,-0.29742396,-0.28811216,-0.28152663,-0.2791986,-0.28152663,-0.28927612,-0.30244738,-0.32067263,-0.34548348,-0.37880963,-0.42025298,-0.46871072,-0.51909816,-0.5671271,-0.6136245,-0.65742636,-0.6985022,-0.7329923,-0.76089686,-0.7818176,-0.7984807,-0.81244826,-0.8225258,-0.8287132,-0.8318069,-0.8341348,-0.8376267,-0.83955646,-0.8391889,-0.835697,-0.83064294,-0.8275492,-0.8252213,-0.8228934,-0.8201979,-0.8178699,-0.81670594,-0.81397986,-0.81012034,-0.80586267,-0.80080867,-0.80080867,-0.80080867,-0.7984807,-0.795387,-0.7903329,-0.78607523,-0.78221583,-0.77755994,-0.77366984,-0.7702086,-0.7698104,-0.77097434,-0.7721383,-0.7721383,-0.77174014,-0.7721383,-0.77097434,-0.7682482,-0.7682482,-0.7682482,-0.7702086,-0.7721383,-0.7705761,-0.76748246,-0.7651545,-0.76748246,-0.7682482,-0.7682482,-0.7663185,-0.76282656,-0.76282656,-0.76438874,-0.7651545,-0.76282656,-0.75780314,-0.75391304,-0.7515851,-0.7508193,-0.75354546,-0.7566392,-0.76049864,-0.76089686,-0.75700676,-0.75121754,-0.7465617,-0.7453977,-0.7469599,-0.74732745,-0.7461635,-0.7426716,-0.73997605,-0.73997605,-0.73997605,-0.74074185,-0.7426716,-0.74463195,-0.7453977,-0.74306977,-0.73841393,-0.7322265,-0.73106253,-0.7329923,-0.7345544,-0.7345544,-0.73106253,-0.72680485,-0.72368056,-0.7229148,-0.72368056,-0.72524273,-0.7279689,-0.7279689,-0.7256409,-0.7225166,-0.71942294,-0.7198211,-0.7202193,-0.7190553,-0.71516526,-0.7097436,-0.70625174,-0.7039238,-0.70159584,-0.6977364,-0.6938463,-0.69308054,-0.6934787,-0.69464266,-0.69035435,-0.6764174,-0.6531687,-0.632248,-0.6190767,-0.6175146,-0.62875605,-0.64502096,-0.65356696,-0.65509844,-0.65123904,-0.6469507,-0.65123904,-0.66477776,-0.6849327,-0.70625174,-0.7213833,-0.72833645,-0.7256409,-0.71789134,-0.7116734,-0.71207154,-0.7182589,-0.7240788,-0.72680485,-0.7248446,-0.72098505,-0.7202193,-0.7202193,-0.722149,-0.72757065,-0.7353202,-0.72447693,-0.65819216,-0.50669277,-0.26020765,0.043219924,0.3334458,0.5462065,0.6318499,0.5961957,0.47064054,0.28076088,0.047079444,-0.2253499,-0.50745857,-0.7488896,-0.89922506,-0.9333476,-0.8806322,-0.80080867,-0.7419058,-0.722149,-0.73106253,-0.7488896,-0.7612951,-0.7632248,-0.7585689,-0.75042117,-0.7419058,-0.7337581,-0.7264067,-0.7213833,-0.7155634,-0.7097436,-0.704322,-0.6981039,-0.6938463,-0.6876589,-0.6783471,-0.66866785,-0.6597543,-0.6547003,-0.65123904,-0.6469507,-0.6415291,-0.6341777,-0.6275921,-0.6210065,-0.612093,-0.60085154,-0.5884461,-0.578001,-0.5690875,-0.5609397,-0.5512604,-0.5407847,-0.5283793,-0.5124819,-0.4931234,-0.47140622,-0.45128185,-0.4357521,-0.42141694,-0.40475386,-0.38499707,-0.3636781,-0.3446871,-0.32842213,-0.31485277,-0.3040095,-0.29782212,-0.29935366,-0.30244738,-0.30633748,-0.31292307,-0.32686007,-0.35243666,-0.387325,-0.427635,-0.47024226,-0.5124819,-0.55900997,-0.6043434,-0.64502096,-0.6810733,-0.71283734,-0.73997605,-0.763623,-0.7810518,-0.7930591,-0.8012068,-0.8077924,-0.8136122,-0.81903386,-0.82136184,-0.82136184,-0.8205654,-0.8182375,-0.8170735,-0.8163078,-0.8151438,-0.8112843,-0.8050663,-0.79924643,-0.795387,-0.7926609,-0.79073113,-0.78647345,-0.78221583,-0.7787239,-0.77795815,-0.77755994,-0.7744663,-0.77097434,-0.7678807,-0.7651545,-0.7655527,-0.7651545,-0.7620608,-0.7589671,-0.75431126,-0.7515851,-0.7488896,-0.7469599,-0.74772567,-0.7488896,-0.75042117,-0.75042117,-0.7488896,-0.7508193,-0.75391304,-0.755077,-0.75391304,-0.74965537,-0.7469599,-0.7484914,-0.7527491,-0.7547094,-0.7523815,-0.74732745,-0.7419058,-0.74150765,-0.74114007,-0.74114007,-0.7419058,-0.743468,-0.74732745,-0.7488896,-0.7484914,-0.7461635,-0.743468,-0.7442337,-0.7461635,-0.7453977,-0.74306977,-0.73997605,-0.7403437,-0.74114007,-0.74074185,-0.7376481,-0.7329923,-0.73106253,-0.73106253,-0.73182833,-0.7322265,-0.7314302,-0.7322265,-0.7337581,-0.73492205,-0.73492205,-0.7329923,-0.73182833,-0.7302662,-0.7287346,-0.7271725,-0.7271725,-0.72833645,-0.72833645,-0.7256409,-0.7225166,-0.7190553,-0.7182589,-0.7198211,-0.72098505,-0.7202193,-0.7190553,-0.7202193,-0.723313,-0.72447693,-0.7202193,-0.71207154,-0.7039238,-0.6985022,-0.69540846,-0.6934787,-0.69035435,-0.68882287,-0.68882287,-0.6880264,-0.68183905,-0.66673815,-0.6454191,-0.62526417,-0.61325693,-0.61325693,-0.6213741,-0.63341194,-0.64232546,-0.6461849,-0.6465831,-0.64581734,-0.6520047,-0.6651759,-0.6826048,-0.7004319,-0.7136031,-0.71865714,-0.7167274,-0.71283734,-0.70818144,-0.70781386,-0.7101418,-0.7116734,-0.71130574,-0.7097436,-0.7097436,-0.7132355,-0.715931,-0.7190553,-0.7248446,-0.72833645,-0.7066499,-0.6217723,-0.4493215,-0.19318765,0.09823263,0.35632682,0.5252857,0.5721812,0.51520824,0.3795755,0.18543816,-0.049805403,-0.31718075,-0.5806965,-0.7884032,-0.90002143,-0.9054431,-0.8449781,-0.7725059,-0.7271725,-0.71865714,-0.7306644,-0.7457959,-0.75354546,-0.7531473,-0.7492572,-0.74230397,-0.7337581,-0.7256409,-0.71865714,-0.71439946,-0.71130574,-0.7070174,-0.7004319,-0.69540846,-0.6926823,-0.68882287,-0.68376875,-0.6764174,-0.6671057,-0.66015255,-0.652403,-0.6446534,-0.6365056,-0.62875605,-0.62293625,-0.6167488,-0.6086011,-0.5992893,-0.59000826,-0.5818604,-0.5713848,-0.5582136,-0.5423469,-0.52721536,-0.51597387,-0.5051306,-0.4919594,-0.47646028,-0.4590314,-0.4442981,-0.43033046,-0.4132998,-0.39158267,-0.36833394,-0.34817898,-0.33460963,-0.32686007,-0.3222348,-0.3179465,-0.316415,-0.31601673,-0.3191104,-0.3276564,-0.34431946,-0.37182587,-0.40591782,-0.4446656,-0.48574138,-0.5283793,-0.5721812,-0.6147885,-0.65433264,-0.6895886,-0.72098505,-0.7488896,-0.76941216,-0.78258336,-0.79112935,-0.7988789,-0.80816,-0.8170735,-0.82136184,-0.8205654,-0.8151438,-0.8112843,-0.8089564,-0.80699605,-0.8054645,-0.8031366,-0.80080867,-0.79808253,-0.7946212,-0.7899654,-0.7853095,-0.7837473,-0.78221583,-0.7814194,-0.7810518,-0.7791221,-0.7787239,-0.7771617,-0.77406806,-0.76941216,-0.7647563,-0.763623,-0.76438874,-0.7647563,-0.7639905,-0.76049864,-0.7554752,-0.7508193,-0.74809325,-0.74772567,-0.75042117,-0.7547094,-0.7566392,-0.7554752,-0.7527491,-0.7500536,-0.75042117,-0.75121754,-0.7515851,-0.7508193,-0.7500536,-0.7508193,-0.7519833,-0.7523815,-0.7515851,-0.7508193,-0.75042117,-0.7492572,-0.74772567,-0.7469599,-0.7457959,-0.7465617,-0.7469599,-0.7457959,-0.743468,-0.74150765,-0.74114007,-0.74150765,-0.74114007,-0.7395779,-0.73841393,-0.73917973,-0.7395779,-0.7403437,-0.7395779,-0.73804635,-0.73841393,-0.73804635,-0.73725,-0.736086,-0.73492205,-0.7353202,-0.736086,-0.7353202,-0.73492205,-0.7337581,-0.73415625,-0.73415625,-0.7322265,-0.7302662,-0.7302662,-0.73259413,-0.73415625,-0.73339045,-0.7302662,-0.72680485,-0.7256409,-0.7240788,-0.7229148,-0.7213833,-0.7205869,-0.7225166,-0.7248446,-0.72447693,-0.7225166,-0.72098505,-0.7225166,-0.7225166,-0.7205869,-0.7155634,-0.7097436,-0.7066499,-0.7050878,-0.7023922,-0.6977364,-0.69231474,-0.68842465,-0.6872607,-0.68842465,-0.68882287,-0.6845652,-0.67215973,-0.6504426,-0.6264281,-0.60976505,-0.60743713,-0.6198425,-0.63610744,-0.6473489,-0.6504426,-0.6477471,-0.64581734,-0.64927864,-0.66168404,-0.68144083,-0.7027598,-0.7202193,-0.7271725,-0.7240788,-0.7167274,-0.71050936,-0.7093454,-0.71130574,-0.7136031,-0.715931,-0.7174932,-0.71942294,-0.72098505,-0.72098505,-0.7202193,-0.72175086,-0.72913283,-0.723313,-0.6675039,-0.53070724,-0.30324376,-0.018807232,0.25984013,0.47140634,0.5675254,0.54813623,0.4369161,0.2590438,0.037400126,-0.21680397,-0.48071796,-0.7109076,-0.8620394,-0.9085368,-0.87171865,-0.80430055,-0.7519833,-0.7329923,-0.7388121,-0.7523815,-0.7616626,-0.7639905,-0.76089686,-0.75431126,-0.7465617,-0.73917973,-0.7345544,-0.7298986,-0.72447693,-0.71789134,-0.71130574,-0.70585346,-0.7008301,-0.6958066,-0.6891904,-0.6826048,-0.6783471,-0.6733237,-0.6671057,-0.6593561,-0.65160656,-0.6454191,-0.6403651,-0.6337795,-0.6256623,-0.61711645,-0.6101632,-0.60278124,-0.5938677,-0.5818604,-0.5686893,-0.5574478,-0.54620636,-0.53380096,-0.51793426,-0.49970895,-0.48228014,-0.46521884,-0.44778997,-0.4287989,-0.4094097,-0.39198083,-0.3764817,-0.36174834,-0.34701502,-0.33307803,-0.3233987,-0.3175789,-0.316415,-0.31834465,-0.32416445,-0.33656996,-0.35556096,-0.38230157,-0.4159953,-0.4559071,-0.50087297,-0.54620636,-0.5888443,-0.6271939,-0.6620822,-0.6958066,-0.7248446,-0.7488896,-0.7663185,-0.7798879,-0.7922933,-0.8031366,-0.81088614,-0.8151438,-0.81590956,-0.81670594,-0.81590956,-0.81397986,-0.8104879,-0.80662847,-0.8050663,-0.8039023,-0.8015744,-0.7984807,-0.7949888,-0.794223,-0.79382485,-0.7926609,-0.7895672,-0.78491133,-0.78258336,-0.78065366,-0.7787239,-0.775232,-0.7705761,-0.76748246,-0.7651545,-0.7639905,-0.7620608,-0.7593347,-0.7581707,-0.7566392,-0.7554752,-0.7547094,-0.75431126,-0.7554752,-0.75624096,-0.7558428,-0.75431126,-0.7531473,-0.75431126,-0.75624096,-0.75780314,-0.7566392,-0.7547094,-0.75431126,-0.7547094,-0.7554752,-0.7547094,-0.7531473,-0.7531473,-0.7523815,-0.7508193,-0.74809325,-0.7461635,-0.7469599,-0.7492572,-0.75042117,-0.74965537,-0.7469599,-0.7453977,-0.7449995,-0.7449995,-0.7442337,-0.74306977,-0.74306977,-0.74306977,-0.74230397,-0.7403437,-0.73841393,-0.73804635,-0.73725,-0.736086,-0.73259413,-0.7295004,-0.72833645,-0.72833645,-0.7279689,-0.72680485,-0.7260085,-0.72680485,-0.7279689,-0.7279689,-0.72680485,-0.7248446,-0.7248446,-0.7256409,-0.7248446,-0.7229148,-0.7198211,-0.7190553,-0.7190553,-0.71865714,-0.7174932,-0.715931,-0.7163292,-0.7174932,-0.7182589,-0.7174932,-0.715931,-0.7155634,-0.7155634,-0.71516526,-0.7136031,-0.7109076,-0.7101418,-0.7093454,-0.7093454,-0.70818144,-0.7074157,-0.70781386,-0.70818144,-0.70818144,-0.7070174,-0.70585346,-0.7074157,-0.7089778,-0.7093454,-0.70781386,-0.7050878,-0.7035562,-0.70159584,-0.69890034,-0.69540846,-0.6942445,-0.6958066,-0.6977364,-0.69733816,-0.6934787,-0.6880264,-0.683003,-0.6783471,-0.6744877,-0.67059755,-0.66826963,-0.6690661,-0.67099583,-0.67136335,-0.66477776,-0.650075,-0.62992,-0.60899925,-0.59619564,-0.5950317,-0.6055074,-0.62253803,-0.6349435,-0.6388335,-0.6341777,-0.62799025,-0.62992,-0.6434895,-0.66673815,-0.6911508,-0.7089778,-0.7167274,-0.71516526,-0.7093454,-0.7039238,-0.70122826,-0.7027598,-0.7050878,-0.70781386,-0.70857966,-0.7089778,-0.71050936,-0.71283734,-0.71439946,-0.7182589,-0.7225166,-0.70781386,-0.6341777,-0.46987468,-0.2121787,0.09590471,0.38499713,0.6024138,0.703158,0.6907526,0.5795326,0.3861611,0.13698053,-0.15054983,-0.4377125,-0.6802769,-0.8376267,-0.886452,-0.85196185,-0.78723925,-0.7395779,-0.72833645,-0.74230397,-0.7612951,-0.77137256,-0.7702086,-0.7639905,-0.7566392,-0.74965537,-0.7426716,-0.736086,-0.7302662,-0.72368056,-0.7163292,-0.70857966,-0.7008301,-0.69540846,-0.6915183,-0.685331,-0.6787454,-0.6729255,-0.66826963,-0.66401196,-0.65742636,-0.6481147,-0.63843536,-0.63108397,-0.6241002,-0.6167488,-0.60667133,-0.59619564,-0.5865164,-0.57643884,-0.56519735,-0.551628,-0.53805864,-0.5260514,-0.5128802,-0.49777925,-0.47995216,-0.46096116,-0.44313413,-0.42570525,-0.4067142,-0.3857628,-0.36484206,-0.34624922,-0.32998437,-0.31564915,-0.3020798,-0.29044014,-0.28385448,-0.28076082,-0.28115904,-0.28578424,-0.29586172,-0.31448525,-0.3423592,-0.37880963,-0.4206512,-0.4663828,-0.51404417,-0.5605415,-0.604711,-0.6446534,-0.68183905,-0.71709496,-0.74732745,-0.77174014,-0.7891996,-0.80041045,-0.80932397,-0.81590956,-0.8209636,-0.82329154,-0.8244555,-0.82598704,-0.82561946,-0.8225258,-0.8170735,-0.8112843,-0.80699605,-0.8046987,-0.80273837,-0.80004287,-0.79731673,-0.7957852,-0.79382485,-0.79112935,-0.78647345,-0.78221583,-0.7802861,-0.7798879,-0.7791221,-0.77599776,-0.7725059,-0.7705761,-0.76904464,-0.76904464,-0.7678807,-0.76748246,-0.7682482,-0.76941216,-0.76941216,-0.76748246,-0.7651545,-0.76438874,-0.76438874,-0.7639905,-0.76245904,-0.76089686,-0.76049864,-0.76089686,-0.7616626,-0.76013106,-0.7589671,-0.7585689,-0.7581707,-0.75780314,-0.7554752,-0.7531473,-0.7531473,-0.7531473,-0.75354546,-0.7523815,-0.75042117,-0.74965537,-0.7488896,-0.7488896,-0.7484914,-0.7484914,-0.74965537,-0.7500536,-0.74772567,-0.7442337,-0.74306977,-0.74463195,-0.7469599,-0.74732745,-0.74463195,-0.7403437,-0.73804635,-0.73725,-0.7368824,-0.7353202,-0.73415625,-0.7353202,-0.73725,-0.7388121,-0.73841393,-0.7368824,-0.73648417,-0.736086,-0.73492205,-0.7322265,-0.7295004,-0.7287346,-0.72833645,-0.72833645,-0.7271725,-0.7260085,-0.72680485,-0.72757065,-0.72833645,-0.72757065,-0.7260085,-0.72680485,-0.7271725,-0.7264067,-0.72368056,-0.72098505,-0.72098505,-0.7225166,-0.7240788,-0.7229148,-0.722149,-0.7229148,-0.72447693,-0.7248446,-0.7213833,-0.7167274,-0.7136031,-0.71207154,-0.7116734,-0.7101418,-0.7093454,-0.7109076,-0.71207154,-0.71207154,-0.7101418,-0.7074157,-0.7074157,-0.70818144,-0.70857966,-0.7070174,-0.7050878,-0.7050878,-0.70548594,-0.7066499,-0.70585346,-0.704322,-0.7035562,-0.70199406,-0.69890034,-0.6934787,-0.6876589,-0.683003,-0.6783471,-0.67565167,-0.6729255,-0.6717615,-0.67023003,-0.66168404,-0.6430912,-0.6167488,-0.59426594,-0.58535236,-0.59153974,-0.60703886,-0.6217723,-0.62875605,-0.62952185,-0.6268263,-0.62799025,-0.6388335,-0.6609183,-0.6899868,-0.7140013,-0.72524273,-0.722149,-0.71207154,-0.7050878,-0.703158,-0.70585346,-0.70857966,-0.7097436,-0.71207154,-0.7132355,-0.71439946,-0.71439946,-0.7140013,-0.7167274,-0.7248446,-0.7271725,-0.6895886,-0.57254875,-0.35360056,-0.043587387,0.29895556,0.6035472,0.8054646,0.8666953,0.8019726,0.6310841,0.38150525,0.075749636,-0.2613716,-0.57450914,-0.80662847,-0.91588813,-0.90893495,-0.8414862,-0.77330226,-0.7388121,-0.73917973,-0.7554752,-0.77174014,-0.7791221,-0.7771617,-0.77097434,-0.7639905,-0.7589671,-0.75391304,-0.74772567,-0.73804635,-0.72833645,-0.71942294,-0.7124697,-0.70625174,-0.7000643,-0.69308054,-0.6868931,-0.68144083,-0.6740895,-0.66633993,-0.6578246,-0.6504426,-0.6434895,-0.6341777,-0.6233344,-0.6113272,-0.6012497,-0.5927037,-0.5841884,-0.5737127,-0.56170547,-0.55009645,-0.537691,-0.52488744,-0.51018465,-0.4931234,-0.47646028,-0.45823503,-0.43924403,-0.41832322,-0.3970043,-0.37801325,-0.35942042,-0.34082758,-0.3218366,-0.30361128,-0.28851038,-0.2765032,-0.26835537,-0.26293373,-0.2613716,-0.2652617,-0.27417517,-0.29007256,-0.3136888,-0.34741324,-0.3904187,-0.43924403,-0.48963147,-0.5384568,-0.58495414,-0.62952185,-0.67099583,-0.7093454,-0.74230397,-0.7702086,-0.7930591,-0.8112843,-0.8244555,-0.8333691,-0.8391889,-0.8418844,-0.8422826,-0.8414862,-0.83955646,-0.8380249,-0.8376267,-0.83686095,-0.8352988,-0.83297086,-0.829479,-0.82715106,-0.8252213,-0.8221276,-0.8170735,-0.8136122,-0.81244826,-0.8112843,-0.8085582,-0.8031366,-0.7961528,-0.7918951,-0.7899654,-0.78880143,-0.78607523,-0.78414553,-0.7833798,-0.7829816,-0.78258336,-0.7814194,-0.7814194,-0.78258336,-0.7837473,-0.7829816,-0.7794897,-0.7771617,-0.77755994,-0.7771617,-0.7767942,-0.7729041,-0.7682482,-0.7663185,-0.76748246,-0.76904464,-0.7682482,-0.76708424,-0.7667167,-0.76748246,-0.7686464,-0.76708424,-0.76438874,-0.7620608,-0.76049864,-0.76049864,-0.76013106,-0.7585689,-0.7581707,-0.75624096,-0.75354546,-0.7508193,-0.7492572,-0.74965537,-0.7508193,-0.75121754,-0.74965537,-0.74732745,-0.7461635,-0.7453977,-0.7442337,-0.743468,-0.74230397,-0.7426716,-0.74306977,-0.74230397,-0.7388121,-0.73648417,-0.73648417,-0.73841393,-0.73917973,-0.7376481,-0.7337581,-0.73106253,-0.7306644,-0.73259413,-0.7329923,-0.73182833,-0.7306644,-0.7298986,-0.7295004,-0.72913283,-0.7279689,-0.72680485,-0.7248446,-0.7229148,-0.7205869,-0.7198211,-0.7213833,-0.722149,-0.7213833,-0.7182589,-0.71516526,-0.71439946,-0.714767,-0.71439946,-0.71130574,-0.70781386,-0.70548594,-0.70548594,-0.7074157,-0.7093454,-0.7093454,-0.70857966,-0.7070174,-0.70548594,-0.704322,-0.7050878,-0.7066499,-0.7066499,-0.704322,-0.69890034,-0.69501024,-0.6934787,-0.6942445,-0.69308054,-0.68882287,-0.6826048,-0.6779796,-0.6768156,-0.6736913,-0.6690661,-0.66401196,-0.6609183,-0.6585904,-0.652403,-0.6341777,-0.60936683,-0.5888443,-0.57953256,-0.58611816,-0.60045326,-0.6144209,-0.6233344,-0.6256623,-0.6268263,-0.63108397,-0.6430912,-0.6632462,-0.68572915,-0.7035562,-0.7116734,-0.7124697,-0.7093454,-0.70585346,-0.703158,-0.70199406,-0.7039238,-0.7070174,-0.7101418,-0.7116734,-0.7101418,-0.70818144,-0.7070174,-0.7101418,-0.71865714,-0.71942294,-0.680675,-0.5644316,-0.3431555,-0.03041625,0.3121575,0.60510933,0.7752322,0.8031366,0.71207166,0.53496504,0.29160416,-0.010261297,-0.34392124,-0.65123904,-0.86513305,-0.94495666,-0.9120287,-0.8287132,-0.75624096,-0.722149,-0.72175086,-0.73725,-0.7523815,-0.75780314,-0.755077,-0.74965537,-0.743468,-0.73804635,-0.7314302,-0.72098505,-0.7116734,-0.70548594,-0.70159584,-0.69926786,-0.69501024,-0.6880264,-0.68144083,-0.67485523,-0.66826963,-0.66168404,-0.6562624,-0.65123904,-0.6454191,-0.6388335,-0.6283579,-0.61635065,-0.60703886,-0.59812534,-0.5896101,-0.5787668,-0.56596315,-0.5543541,-0.5423469,-0.5318712,-0.51830184,-0.5035684,-0.48730356,-0.46947652,-0.45048547,-0.43033046,-0.4101755,-0.39274663,-0.3749196,-0.35592854,-0.33384377,-0.31252486,-0.29626,-0.28618252,-0.2803626,-0.27494103,-0.2687536,-0.2652617,-0.26951933,-0.28192484,-0.3020798,-0.32958615,-0.36600602,-0.40980792,-0.45707107,-0.5058964,-0.55355775,-0.5985236,-0.64232546,-0.68223727,-0.7163292,-0.7465617,-0.7721383,-0.7946212,-0.8104879,-0.8194015,-0.82405734,-0.8275492,-0.8318069,-0.8352988,-0.8352988,-0.8333691,-0.83027536,-0.8267834,-0.8236591,-0.8186357,-0.8136122,-0.8112843,-0.8097222,-0.80699605,-0.8019726,-0.79731673,-0.7946212,-0.7930591,-0.7922933,-0.78723925,-0.7818176,-0.7783257,-0.7771617,-0.7771617,-0.77406806,-0.7705761,-0.7686464,-0.7682482,-0.7686464,-0.76708424,-0.7647563,-0.7639905,-0.7655527,-0.7663185,-0.7639905,-0.7612951,-0.76013106,-0.76089686,-0.7647563,-0.7663185,-0.7663185,-0.76708424,-0.7651545,-0.763623,-0.75973284,-0.75624096,-0.7554752,-0.7566392,-0.7593347,-0.76013106,-0.75973284,-0.7593347,-0.7581707,-0.75780314,-0.75700676,-0.7574049,-0.7581707,-0.7581707,-0.75780314,-0.755077,-0.7547094,-0.75431126,-0.75391304,-0.7515851,-0.7461635,-0.74150765,-0.74230397,-0.7457959,-0.74809325,-0.74732745,-0.7442337,-0.7419058,-0.74114007,-0.74150765,-0.73997605,-0.7388121,-0.73997605,-0.7426716,-0.7461635,-0.7457959,-0.743468,-0.73997605,-0.73648417,-0.73339045,-0.7306644,-0.7287346,-0.7279689,-0.72833645,-0.72913283,-0.72680485,-0.72524273,-0.72524273,-0.7260085,-0.72833645,-0.7295004,-0.72913283,-0.72833645,-0.7264067,-0.72447693,-0.7213833,-0.7202193,-0.7198211,-0.72098505,-0.72098505,-0.7190553,-0.71709496,-0.7163292,-0.7174932,-0.7190553,-0.7174932,-0.71439946,-0.7097436,-0.704322,-0.7004319,-0.69693995,-0.69464266,-0.6938463,-0.6934787,-0.6926823,-0.6880264,-0.6787454,-0.6620822,-0.6395993,-0.61867857,-0.6051092,-0.6055074,-0.61828035,-0.6349435,-0.6469507,-0.650075,-0.6477471,-0.6461849,-0.6527705,-0.66826963,-0.68882287,-0.70857966,-0.71942294,-0.7213833,-0.7163292,-0.7101418,-0.70625174,-0.70548594,-0.7074157,-0.7089778,-0.7089778,-0.7093454,-0.7109076,-0.7132355,-0.71516526,-0.7174932,-0.723313,-0.7248446,-0.6919165,-0.5888443,-0.38692677,-0.09706861,0.22262394,0.49854517,0.6647779,0.6973382,0.6179129,0.45670354,0.23463106,-0.038165748,-0.3419916,-0.62799025,-0.83686095,-0.9275278,-0.9085368,-0.8318069,-0.75780314,-0.71865714,-0.7155634,-0.73106253,-0.7461635,-0.7527491,-0.75121754,-0.74732745,-0.74230397,-0.7353202,-0.72757065,-0.7205869,-0.714767,-0.71130574,-0.7070174,-0.7008301,-0.69464266,-0.6880264,-0.6810733,-0.6744877,-0.6675039,-0.66015255,-0.65433264,-0.6481147,-0.63920116,-0.6306858,-0.6213741,-0.61325693,-0.60667133,-0.5989218,-0.5903758,-0.5802983,-0.56829107,-0.5547217,-0.54118294,-0.5287775,-0.51753604,-0.5062946,-0.4919594,-0.4729684,-0.45241523,-0.43189263,-0.4132998,-0.3958403,-0.3772475,-0.35865462,-0.3419916,-0.3276564,-0.31564915,-0.3020798,-0.2896744,-0.27959687,-0.2753392,-0.27726895,-0.28462029,-0.29858786,-0.3191104,-0.3478114,-0.3830673,-0.42297912,-0.46678102,-0.5128802,-0.560174,-0.60703886,-0.65084076,-0.6891904,-0.7229148,-0.7500536,-0.7721383,-0.78880143,-0.8019726,-0.8097222,-0.81670594,-0.8225258,-0.82638526,-0.8291114,-0.8314087,-0.8314087,-0.829479,-0.82598704,-0.82329154,-0.8194015,-0.81670594,-0.814378,-0.8104879,-0.8077924,-0.80662847,-0.80699605,-0.8062303,-0.80353475,-0.79964465,-0.7949888,-0.7926609,-0.7914969,-0.7884032,-0.78414553,-0.7794897,-0.77563024,-0.7748338,-0.77406806,-0.7725059,-0.76941216,-0.7663185,-0.7659203,-0.7663185,-0.76708424,-0.76748246,-0.7663185,-0.7647563,-0.7639905,-0.7651545,-0.76708424,-0.76748246,-0.7655527,-0.76089686,-0.7574049,-0.7566392,-0.7585689,-0.76089686,-0.76013106,-0.7589671,-0.7593347,-0.75973284,-0.7585689,-0.755077,-0.7515851,-0.7500536,-0.7527491,-0.7558428,-0.75700676,-0.75780314,-0.7593347,-0.76013106,-0.75973284,-0.7554752,-0.7492572,-0.7449995,-0.7426716,-0.74150765,-0.74230397,-0.74383557,-0.74463195,-0.7457959,-0.7453977,-0.74306977,-0.7419058,-0.74074185,-0.73997605,-0.73804635,-0.73492205,-0.73339045,-0.73259413,-0.73339045,-0.73259413,-0.7302662,-0.7279689,-0.72833645,-0.7298986,-0.7302662,-0.72913283,-0.7271725,-0.7264067,-0.7295004,-0.7314302,-0.72833645,-0.722149,-0.7155634,-0.7124697,-0.71207154,-0.7116734,-0.7109076,-0.71130574,-0.7140013,-0.71789134,-0.7190553,-0.7182589,-0.71516526,-0.71130574,-0.7089778,-0.7070174,-0.7070174,-0.70818144,-0.7101418,-0.71130574,-0.70625174,-0.69926786,-0.69308054,-0.6891904,-0.6876589,-0.6868931,-0.685331,-0.68416697,-0.68416697,-0.68223727,-0.67485523,-0.65819216,-0.63534164,-0.612093,-0.5992893,-0.60085154,-0.6136245,-0.62952185,-0.6395993,-0.6411615,-0.63803715,-0.6365056,-0.64425516,-0.66015255,-0.67914355,-0.6958066,-0.70818144,-0.7136031,-0.7140013,-0.71207154,-0.70781386,-0.70585346,-0.70818144,-0.7124697,-0.71283734,-0.70857966,-0.703158,-0.70122826,-0.70585346,-0.71439946,-0.72368056,-0.7256409,-0.69501024,-0.60085154,-0.41755748,-0.14862001,0.15480757,0.4233774,0.591938,0.63028777,0.5597758,0.4090116,0.20170319,-0.051337004,-0.3361717,-0.6086011,-0.81590956,-0.9139584,-0.90504485,-0.8376267,-0.7663185,-0.7248446,-0.7167274,-0.72833645,-0.7419058,-0.75042117,-0.75042117,-0.74383557,-0.73492205,-0.7240788,-0.71439946,-0.70857966,-0.70548594,-0.7039238,-0.70122826,-0.6958066,-0.6891904,-0.6826048,-0.6779796,-0.6736913,-0.6659417,-0.65742636,-0.6496768,-0.64425516,-0.6403651,-0.6341777,-0.6264281,-0.61635065,-0.60667133,-0.59812534,-0.5888443,-0.57913435,-0.56985325,-0.560174,-0.551628,-0.54118294,-0.5283793,-0.5144423,-0.4989432,-0.48111612,-0.46172696,-0.44350165,-0.42800254,-0.41446376,-0.39816827,-0.37764573,-0.35439694,-0.334242,-0.3210708,-0.31332123,-0.30710322,-0.30128342,-0.29626,-0.29469782,-0.29742396,-0.30557168,-0.32067263,-0.34431946,-0.37764573,-0.41639346,-0.4597972,-0.50669277,-0.5539559,-0.5996876,-0.6395993,-0.67485523,-0.7070174,-0.7353202,-0.76013106,-0.7787239,-0.7899654,-0.7984807,-0.80699605,-0.81397986,-0.8182375,-0.8194015,-0.8186357,-0.8194015,-0.82136184,-0.8217294,-0.8170735,-0.8089564,-0.80041045,-0.7957852,-0.79382485,-0.794223,-0.79345727,-0.7922933,-0.79112935,-0.78880143,-0.78454375,-0.7794897,-0.776396,-0.77330226,-0.77097434,-0.7682482,-0.76438874,-0.7616626,-0.7612951,-0.7612951,-0.7593347,-0.75780314,-0.755077,-0.75354546,-0.7508193,-0.7469599,-0.7442337,-0.74383557,-0.7461635,-0.75121754,-0.75391304,-0.7527491,-0.7488896,-0.74383557,-0.74074185,-0.74150765,-0.7457959,-0.7488896,-0.7500536,-0.7469599,-0.74230397,-0.73917973,-0.7403437,-0.7442337,-0.74809325,-0.74965537,-0.7484914,-0.7457959,-0.74383557,-0.7426716,-0.74114007,-0.74074185,-0.7419058,-0.7442337,-0.74463195,-0.74306977,-0.73997605,-0.7368824,-0.7353202,-0.73492205,-0.73339045,-0.73339045,-0.73415625,-0.7357184,-0.73492205,-0.7287346,-0.722149,-0.7174932,-0.7182589,-0.72175086,-0.7240788,-0.72524273,-0.7240788,-0.72368056,-0.72098505,-0.71709496,-0.714767,-0.71283734,-0.7140013,-0.71709496,-0.7167274,-0.71439946,-0.7116734,-0.71050936,-0.71130574,-0.7093454,-0.7066499,-0.7027598,-0.70122826,-0.7027598,-0.7066499,-0.71050936,-0.7132355,-0.71439946,-0.71439946,-0.7124697,-0.70857966,-0.7027598,-0.7004319,-0.7008301,-0.7027598,-0.70472014,-0.7035562,-0.7004319,-0.69501024,-0.6891904,-0.6849327,-0.683003,-0.680675,-0.6787454,-0.67565167,-0.6744877,-0.67525345,-0.6760192,-0.66983175,-0.65084076,-0.62602997,-0.604711,-0.5969614,-0.6020155,-0.61558485,-0.62875605,-0.63610744,-0.63803715,-0.63803715,-0.6395993,-0.650075,-0.66826963,-0.69035435,-0.7097436,-0.7182589,-0.71865714,-0.71283734,-0.7066499,-0.70159584,-0.69926786,-0.7004319,-0.7039238,-0.70818144,-0.7101418,-0.7093454,-0.70781386,-0.70818144,-0.7140013,-0.7205869,-0.7070174,-0.6395993,-0.49388915,-0.26449585,0.017245173,0.28851056,0.48923337,0.5733453,0.5442767,0.4322909,0.25944197,0.040493727,-0.2187643,-0.49388915,-0.7302662,-0.8740466,-0.90660703,-0.8581493,-0.7857077,-0.73339045,-0.7140013,-0.71942294,-0.7353202,-0.7484914,-0.7519833,-0.7453977,-0.73339045,-0.7213833,-0.71709496,-0.7174932,-0.7174932,-0.714767,-0.70818144,-0.6996661,-0.6915183,-0.6845652,-0.67990935,-0.67485523,-0.67059755,-0.6651759,-0.6578246,-0.65160656,-0.64581734,-0.6407633,-0.63534164,-0.62602997,-0.6167488,-0.6086011,-0.6016173,-0.59350014,-0.5826262,-0.57061905,-0.55977577,-0.551628,-0.5419487,-0.5287775,-0.5105523,-0.49039727,-0.47413236,-0.4590314,-0.44313413,-0.42530704,-0.40591782,-0.38925475,-0.374552,-0.36214662,-0.35013932,-0.33693755,-0.32532847,-0.315251,-0.30866534,-0.30710322,-0.3109933,-0.3202744,-0.3350078,-0.35399878,-0.38150513,-0.41679174,-0.4590314,-0.5047324,-0.5485343,-0.5911722,-0.6302876,-0.6675039,-0.6996661,-0.72680485,-0.7508193,-0.7721383,-0.7899654,-0.8031366,-0.81088614,-0.814378,-0.8170735,-0.8205654,-0.8236591,-0.82405734,-0.8236591,-0.8217294,-0.8201979,-0.8170735,-0.8120501,-0.8062303,-0.8015744,-0.80041045,-0.80004287,-0.7988789,-0.79694915,-0.7946212,-0.7922933,-0.7895672,-0.78723925,-0.78607523,-0.7853095,-0.78414553,-0.7810518,-0.7744663,-0.76748246,-0.76282656,-0.7620608,-0.7632248,-0.7632248,-0.76282656,-0.7616626,-0.7620608,-0.7616626,-0.76049864,-0.7581707,-0.7554752,-0.7554752,-0.75700676,-0.75700676,-0.75780314,-0.7589671,-0.76013106,-0.76049864,-0.76013106,-0.76089686,-0.75973284,-0.76013106,-0.7589671,-0.7554752,-0.7523815,-0.7523815,-0.75354546,-0.755077,-0.75391304,-0.7515851,-0.7488896,-0.7484914,-0.7484914,-0.74772567,-0.7469599,-0.7457959,-0.7465617,-0.7457959,-0.74383557,-0.74114007,-0.73917973,-0.73917973,-0.7395779,-0.73841393,-0.736086,-0.73415625,-0.73492205,-0.73648417,-0.7368824,-0.7368824,-0.7368824,-0.7376481,-0.7368824,-0.7337581,-0.7295004,-0.7271725,-0.72833645,-0.73182833,-0.73492205,-0.7357184,-0.7345544,-0.73259413,-0.7287346,-0.72368056,-0.7198211,-0.71865714,-0.72098505,-0.7229148,-0.7225166,-0.7205869,-0.71942294,-0.7205869,-0.72175086,-0.7205869,-0.71789134,-0.71439946,-0.7136031,-0.714767,-0.71439946,-0.71207154,-0.7097436,-0.70781386,-0.7070174,-0.70625174,-0.70625174,-0.70585346,-0.70625174,-0.704322,-0.7000643,-0.6942445,-0.68882287,-0.68609667,-0.6849327,-0.68416697,-0.683003,-0.67914355,-0.6694336,-0.6504426,-0.6271939,-0.6086011,-0.6016173,-0.60976505,-0.624866,-0.63766956,-0.6434895,-0.6434895,-0.64192724,-0.6430912,-0.6504426,-0.66633993,-0.6868931,-0.7070174,-0.71865714,-0.7198211,-0.7155634,-0.71050936,-0.7097436,-0.7109076,-0.71283734,-0.7140013,-0.71439946,-0.71516526,-0.7155634,-0.7136031,-0.71283734,-0.7167274,-0.72447693,-0.7132355,-0.6454191,-0.49352157,-0.25169235,0.039329886,0.3144853,0.5163721,0.59928954,0.56945515,0.44932163,0.26526177,0.038165927,-0.22418588,-0.4927252,-0.722149,-0.8643673,-0.8972953,-0.85003215,-0.7787239,-0.7287346,-0.71283734,-0.7205869,-0.7337581,-0.74150765,-0.743468,-0.74074185,-0.7357184,-0.73106253,-0.72680485,-0.7225166,-0.7174932,-0.7097436,-0.7004319,-0.6926823,-0.6880264,-0.6845652,-0.6810733,-0.6768156,-0.67215973,-0.66826963,-0.6632462,-0.65586424,-0.6465831,-0.63803715,-0.63184977,-0.6264281,-0.6202407,-0.6136245,-0.6051092,-0.59659386,-0.5868839,-0.5760406,-0.5640334,-0.55242443,-0.5419487,-0.53070724,-0.5171379,-0.5024351,-0.48690534,-0.47140622,-0.45474315,-0.43422055,-0.4132998,-0.39351237,-0.3772475,-0.3636781,-0.34974116,-0.33577353,-0.3237663,-0.31564915,-0.30982935,-0.30633748,-0.30633748,-0.3109933,-0.3237663,-0.3446871,-0.3722241,-0.40591782,-0.44546205,-0.48886567,-0.5334334,-0.5756731,-0.6147885,-0.65123904,-0.68649495,-0.7174932,-0.7426716,-0.7612951,-0.77563024,-0.7884032,-0.7984807,-0.8050663,-0.8089564,-0.8104879,-0.81281585,-0.8136122,-0.8116519,-0.8077924,-0.8023708,-0.80004287,-0.79924643,-0.7984807,-0.79808253,-0.796551,-0.79345727,-0.7891996,-0.78258336,-0.7767942,-0.77330226,-0.77366984,-0.77406806,-0.77330226,-0.7698104,-0.7651545,-0.7620608,-0.76013106,-0.7585689,-0.7581707,-0.7581707,-0.7593347,-0.7585689,-0.75700676,-0.7547094,-0.7527491,-0.7531473,-0.75354546,-0.7527491,-0.7527491,-0.7531473,-0.75431126,-0.75431126,-0.7527491,-0.75121754,-0.75042117,-0.7519833,-0.7527491,-0.7508193,-0.7488896,-0.7469599,-0.74772567,-0.7488896,-0.7484914,-0.7469599,-0.7453977,-0.7465617,-0.7484914,-0.7492572,-0.74809325,-0.7461635,-0.7457959,-0.7461635,-0.7461635,-0.7453977,-0.74306977,-0.74230397,-0.74114007,-0.73917973,-0.73648417,-0.7337581,-0.73339045,-0.7337581,-0.7337581,-0.7329923,-0.7306644,-0.72913283,-0.7271725,-0.7248446,-0.723313,-0.723313,-0.72524273,-0.7264067,-0.7260085,-0.72524273,-0.7225166,-0.722149,-0.7202193,-0.71789134,-0.7167274,-0.7167274,-0.71865714,-0.71942294,-0.7174932,-0.714767,-0.7124697,-0.7124697,-0.71207154,-0.7101418,-0.70818144,-0.7066499,-0.70818144,-0.7097436,-0.7093454,-0.70781386,-0.70548594,-0.7050878,-0.70472014,-0.7035562,-0.70159584,-0.7000643,-0.7004319,-0.70122826,-0.7004319,-0.6985022,-0.6958066,-0.69501024,-0.6942445,-0.6926823,-0.69075257,-0.6895886,-0.69075257,-0.69231474,-0.69308054,-0.6919165,-0.6911508,-0.6919165,-0.69231474,-0.6911508,-0.6891904,-0.68649495,-0.68609667,-0.68649495,-0.68572915,-0.68376875,-0.67990935,-0.6768156,-0.6725273,-0.6679021,-0.662848,-0.6589886,-0.6578246,-0.65742636,-0.6566606,-0.65160656,-0.63920116,-0.6198425,-0.5969614,-0.57913435,-0.57487667,-0.5841884,-0.60278124,-0.61828035,-0.6241002,-0.6206083,-0.6151867,-0.6159525,-0.6275921,-0.6477471,-0.66983175,-0.68842465,-0.6981039,-0.6985022,-0.6934787,-0.6876589,-0.6849327,-0.6872607,-0.6919165,-0.69464266,-0.69540846,-0.69464266,-0.69501024,-0.6961742,-0.69733816,-0.70122826,-0.7074157,-0.6977364,-0.632248,-0.47839004,-0.23037332,0.075749636,0.37066197,0.59852374,0.71207166,0.70665,0.59928954,0.4090116,0.16295528,-0.12187946,-0.41173762,-0.6609183,-0.82794744,-0.8845223,-0.8515637,-0.7833798,-0.7287346,-0.7116734,-0.722149,-0.74074185,-0.7531473,-0.755077,-0.7515851,-0.7449995,-0.73725,-0.7295004,-0.72368056,-0.7202193,-0.7155634,-0.70818144,-0.6977364,-0.6876589,-0.68183905,-0.67914355,-0.6764174,-0.67215973,-0.66557413,-0.6589886,-0.65160656,-0.643857,-0.6357398,-0.6283579,-0.62293625,-0.61558485,-0.60587496,-0.5946641,-0.5837902,-0.5760406,-0.5686893,-0.55937755,-0.5477685,-0.5349649,-0.5229577,-0.51095045,-0.49621707,-0.4787882,-0.4597972,-0.4419701,-0.42414302,-0.40555024,-0.3857628,-0.36600602,-0.34934288,-0.33384377,-0.3191104,-0.30517352,-0.2935338,-0.28658068,-0.28308874,-0.28192484,-0.28385448,-0.29123658,-0.30710322,-0.3315159,-0.36331052,-0.40049618,-0.4419701,-0.4884675,-0.5357613,-0.5818604,-0.6256623,-0.6651759,-0.7023922,-0.73415625,-0.7585689,-0.77563024,-0.7884032,-0.80041045,-0.81012034,-0.81670594,-0.8205654,-0.8221276,-0.8236591,-0.8236591,-0.8217294,-0.8170735,-0.8120501,-0.8097222,-0.80816,-0.80662847,-0.8046987,-0.8015744,-0.80004287,-0.79771495,-0.79382485,-0.78880143,-0.78414553,-0.78258336,-0.78221583,-0.78221583,-0.78065366,-0.77795815,-0.776396,-0.7744663,-0.7721383,-0.7702086,-0.76904464,-0.7705761,-0.7721383,-0.77174014,-0.7698104,-0.7678807,-0.7682482,-0.7678807,-0.7667167,-0.76438874,-0.7620608,-0.76245904,-0.7632248,-0.76245904,-0.7612951,-0.76049864,-0.7620608,-0.763623,-0.7632248,-0.76089686,-0.7585689,-0.7581707,-0.75973284,-0.76049864,-0.75973284,-0.75700676,-0.7558428,-0.7554752,-0.7554752,-0.755077,-0.7547094,-0.7558428,-0.75624096,-0.7558428,-0.75391304,-0.7519833,-0.7515851,-0.75121754,-0.75042117,-0.7484914,-0.7465617,-0.7469599,-0.7465617,-0.7449995,-0.74230397,-0.7388121,-0.7376481,-0.7368824,-0.73648417,-0.73648417,-0.7357184,-0.73648417,-0.73725,-0.73648417,-0.7337581,-0.7314302,-0.73106253,-0.7322265,-0.7329923,-0.73259413,-0.7306644,-0.7295004,-0.72757065,-0.72524273,-0.7229148,-0.7205869,-0.7213833,-0.722149,-0.72175086,-0.72098505,-0.7202193,-0.72098505,-0.7205869,-0.71942294,-0.7174932,-0.7167274,-0.71865714,-0.7213833,-0.7213833,-0.7190553,-0.7167274,-0.7163292,-0.71709496,-0.7174932,-0.7163292,-0.7140013,-0.71283734,-0.7124697,-0.71130574,-0.71050936,-0.7101418,-0.71130574,-0.7116734,-0.71050936,-0.7070174,-0.70472014,-0.70548594,-0.7074157,-0.7097436,-0.7097436,-0.70818144,-0.7070174,-0.704322,-0.7000643,-0.6958066,-0.6915183,-0.6895886,-0.6868931,-0.68223727,-0.6760192,-0.67023003,-0.66866785,-0.6679021,-0.662848,-0.64927864,-0.6271939,-0.6043434,-0.5888443,-0.5872821,-0.59812534,-0.6144209,-0.62799025,-0.63184977,-0.6283579,-0.62217045,-0.62253803,-0.6365056,-0.6613165,-0.68882287,-0.7097436,-0.7190553,-0.7202193,-0.7155634,-0.7101418,-0.7066499,-0.70585346,-0.7093454,-0.7132355,-0.71516526,-0.714767,-0.71283734,-0.71207154,-0.71283734,-0.7174932,-0.72524273,-0.7174932,-0.65586424,-0.5012711,-0.24121666,0.09320927,0.43149447,0.70625174,0.86127377,0.8794682,0.77756,0.57527494,0.30011952,-0.021900892,-0.35206908,-0.63766956,-0.83027536,-0.90234935,-0.87481236,-0.8050663,-0.7469599,-0.7260085,-0.73841393,-0.7616626,-0.7767942,-0.7794897,-0.77366984,-0.7663185,-0.7593347,-0.7523815,-0.7453977,-0.73841393,-0.7329923,-0.72757065,-0.7213833,-0.7124697,-0.703158,-0.6965724,-0.69035435,-0.68416697,-0.6760192,-0.6679021,-0.6609183,-0.6531687,-0.64502096,-0.6357398,-0.6268263,-0.6202407,-0.6136245,-0.6055074,-0.5950317,-0.58342266,-0.5737127,-0.56363523,-0.55046403,-0.53459734,-0.51677024,-0.50010717,-0.4834441,-0.46714854,-0.44971967,-0.43112683,-0.41366738,-0.39467633,-0.37531775,-0.35439694,-0.33384377,-0.31564915,-0.29742396,-0.28076082,-0.2660275,-0.25518417,-0.2520905,-0.25325447,-0.2567464,-0.26369947,-0.27687073,-0.30128342,-0.33693755,-0.38150513,-0.43033046,-0.48111612,-0.532637,-0.5822587,-0.62799025,-0.66866785,-0.70548594,-0.73997605,-0.7686464,-0.7926609,-0.80932397,-0.8221276,-0.83220506,-0.8383925,-0.84111863,-0.8414862,-0.84111863,-0.8426502,-0.84304833,-0.8418844,-0.8380249,-0.8337366,-0.8314087,-0.8287132,-0.8236591,-0.8178699,-0.8120501,-0.8089564,-0.8073942,-0.8054645,-0.80080867,-0.796551,-0.794223,-0.7922933,-0.7903329,-0.7876375,-0.7853095,-0.7853095,-0.7857077,-0.78491133,-0.7818176,-0.7787239,-0.77755994,-0.77599776,-0.7744663,-0.7725059,-0.77097434,-0.7725059,-0.7748338,-0.77755994,-0.77795815,-0.77755994,-0.7771617,-0.77599776,-0.7744663,-0.77174014,-0.7698104,-0.7702086,-0.7705761,-0.77097434,-0.7705761,-0.7698104,-0.76941216,-0.76941216,-0.7698104,-0.76941216,-0.7686464,-0.76904464,-0.76748246,-0.76438874,-0.76049864,-0.7574049,-0.7574049,-0.7585689,-0.7593347,-0.7585689,-0.7574049,-0.7558428,-0.7531473,-0.74965537,-0.74463195,-0.7419058,-0.74383557,-0.74772567,-0.7508193,-0.75042117,-0.74772567,-0.7453977,-0.7449995,-0.7449995,-0.743468,-0.74114007,-0.7395779,-0.7388121,-0.73841393,-0.73725,-0.73648417,-0.73725,-0.73725,-0.7357184,-0.73259413,-0.7295004,-0.7287346,-0.72833645,-0.72757065,-0.7256409,-0.72447693,-0.7260085,-0.7287346,-0.7302662,-0.7295004,-0.7271725,-0.7260085,-0.72447693,-0.7229148,-0.7205869,-0.7182589,-0.7182589,-0.71865714,-0.71865714,-0.71789134,-0.7163292,-0.7167274,-0.71789134,-0.7182589,-0.71709496,-0.714767,-0.71283734,-0.7109076,-0.7101418,-0.7093454,-0.7097436,-0.71207154,-0.7132355,-0.71130574,-0.7050878,-0.69693995,-0.68882287,-0.6834012,-0.6787454,-0.6744877,-0.67215973,-0.67215973,-0.6736913,-0.67136335,-0.65819216,-0.6341777,-0.60743713,-0.5888443,-0.58495414,-0.5946641,-0.6113272,-0.6264281,-0.6330137,-0.6330137,-0.6306858,-0.6341777,-0.65123904,-0.6775814,-0.70472014,-0.722149,-0.7264067,-0.7225166,-0.71516526,-0.7101418,-0.70818144,-0.7093454,-0.7136031,-0.71789134,-0.7198211,-0.71865714,-0.715931,-0.715931,-0.7174932,-0.7240788,-0.73182833,-0.7182589,-0.643857,-0.47180444,-0.19162554,0.16062737,0.50938845,0.781052,0.9178486,0.9147241,0.791497,0.5698534,0.27301145,-0.074983835,-0.426471,-0.7167274,-0.8922719,-0.9348792,-0.8821944,-0.80041045,-0.74150765,-0.72524273,-0.74150765,-0.7663185,-0.78221583,-0.7833798,-0.7748338,-0.7647563,-0.755077,-0.7465617,-0.73841393,-0.73106253,-0.7260085,-0.72098505,-0.7136031,-0.70548594,-0.6965724,-0.6895886,-0.6834012,-0.67525345,-0.6644102,-0.65433264,-0.6469507,-0.6403651,-0.6341777,-0.62602997,-0.6167488,-0.60899925,-0.60045326,-0.5911722,-0.57913435,-0.5667595,-0.55628383,-0.54697216,-0.537691,-0.5276135,-0.5121144,-0.49428737,-0.4729684,-0.4508837,-0.43033046,-0.41173762,-0.39314485,-0.3725916,-0.34934288,-0.32416445,-0.30128342,-0.282323,-0.26565987,-0.2520905,-0.24008328,-0.2319355,-0.2307716,-0.23426342,-0.24277878,-0.2555824,-0.27570677,-0.30593926,-0.34431946,-0.39005113,-0.4388764,-0.48923326,-0.54118294,-0.59153974,-0.6388335,-0.680675,-0.715931,-0.7469599,-0.77330226,-0.795387,-0.81244826,-0.8248231,-0.8341348,-0.8380249,-0.8376267,-0.83453304,-0.8333691,-0.8352988,-0.8380249,-0.8380249,-0.8337366,-0.82794744,-0.82405734,-0.8225258,-0.82136184,-0.8182375,-0.814378,-0.81244826,-0.8112843,-0.80932397,-0.8050663,-0.79964465,-0.7961528,-0.79345727,-0.79073113,-0.78647345,-0.78258336,-0.7798879,-0.7783257,-0.77755994,-0.77563024,-0.7744663,-0.7748338,-0.77563024,-0.775232,-0.77330226,-0.77097434,-0.77137256,-0.77137256,-0.77097434,-0.7682482,-0.7667167,-0.76748246,-0.76941216,-0.77097434,-0.7705761,-0.7682482,-0.76748246,-0.7678807,-0.7682482,-0.7678807,-0.76708424,-0.7667167,-0.7655527,-0.76438874,-0.76089686,-0.75780314,-0.75700676,-0.7566392,-0.75624096,-0.75391304,-0.7519833,-0.7527491,-0.75354546,-0.75431126,-0.7527491,-0.75121754,-0.7500536,-0.7492572,-0.74809325,-0.7453977,-0.743468,-0.743468,-0.7461635,-0.74772567,-0.7457959,-0.7419058,-0.73917973,-0.7368824,-0.7357184,-0.7345544,-0.7329923,-0.73259413,-0.73259413,-0.7322265,-0.73106253,-0.7306644,-0.7306644,-0.7298986,-0.7279689,-0.7248446,-0.7225166,-0.7225166,-0.723313,-0.7225166,-0.71942294,-0.7163292,-0.7155634,-0.7163292,-0.71709496,-0.7163292,-0.71516526,-0.71439946,-0.7140013,-0.7132355,-0.7109076,-0.70857966,-0.70818144,-0.7089778,-0.7093454,-0.70857966,-0.7070174,-0.70548594,-0.70199406,-0.69693995,-0.69075257,-0.6849327,-0.68223727,-0.680675,-0.6795111,-0.6779796,-0.6744877,-0.6679021,-0.652403,-0.6291236,-0.6051092,-0.5903758,-0.59193796,-0.60587496,-0.62293625,-0.63341194,-0.6357398,-0.6349435,-0.6365056,-0.6454191,-0.6636138,-0.68882287,-0.71516526,-0.73182833,-0.736086,-0.7302662,-0.7225166,-0.71865714,-0.71942294,-0.7213833,-0.7205869,-0.71942294,-0.7205869,-0.7229148,-0.7260085,-0.7279689,-0.73182833,-0.74150765,-0.74306977,-0.7004319,-0.57178295,-0.33384377,-0.0029098392,0.35902238,0.67641747,0.8821944,0.9399332,0.8632034,0.6760193,0.4043864,0.073421836,-0.28462029,-0.6113272,-0.84537625,-0.94575304,-0.9259656,-0.84963393,-0.7783257,-0.7453977,-0.7469599,-0.7647563,-0.78065366,-0.78803563,-0.7876375,-0.7818176,-0.7725059,-0.763623,-0.7558428,-0.7484914,-0.74074185,-0.73106253,-0.722149,-0.715931,-0.7116734,-0.7070174,-0.69890034,-0.6891904,-0.6795111,-0.67023003,-0.6620822,-0.6539345,-0.6469507,-0.64192724,-0.6357398,-0.6271939,-0.6144209,-0.60085154,-0.5896101,-0.5799308,-0.56985325,-0.5574478,-0.54311264,-0.52914506,-0.5152081,-0.50010717,-0.4814837,-0.46212512,-0.44313413,-0.4245413,-0.40555024,-0.3830673,-0.35942042,-0.3373357,-0.3175789,-0.29898608,-0.27999508,-0.26293373,-0.24859858,-0.23695898,-0.22884178,-0.22571754,-0.2300058,-0.24550492,-0.26991755,-0.30091578,-0.33656996,-0.37880963,-0.4287989,-0.48228014,-0.5368946,-0.58804786,-0.6357398,-0.6810733,-0.722149,-0.7574049,-0.78414553,-0.8054645,-0.8221276,-0.8352988,-0.8442123,-0.84847,-0.8507979,-0.85236007,-0.8538916,-0.853524,-0.85039973,-0.84693843,-0.84344655,-0.8407204,-0.8391889,-0.835697,-0.8314087,-0.828315,-0.8248231,-0.8209636,-0.8163078,-0.81244826,-0.8097222,-0.80816,-0.80662847,-0.8023708,-0.79771495,-0.79382485,-0.7914969,-0.7899654,-0.78803563,-0.7868717,-0.78607523,-0.7857077,-0.78491133,-0.78258336,-0.7802861,-0.7798879,-0.78065366,-0.7810518,-0.7798879,-0.7794897,-0.7810518,-0.78258336,-0.78258336,-0.7787239,-0.77366984,-0.77137256,-0.7721383,-0.77406806,-0.7744663,-0.7744663,-0.7744663,-0.7744663,-0.77366984,-0.77097434,-0.7678807,-0.76748246,-0.7686464,-0.7702086,-0.7686464,-0.7667167,-0.7655527,-0.7655527,-0.7663185,-0.7651545,-0.7632248,-0.76282656,-0.7632248,-0.7639905,-0.7632248,-0.7612951,-0.76013106,-0.7589671,-0.7574049,-0.75391304,-0.7519833,-0.7515851,-0.7519833,-0.7515851,-0.7488896,-0.7453977,-0.7449995,-0.7465617,-0.74809325,-0.7469599,-0.74383557,-0.74114007,-0.73997605,-0.7395779,-0.73841393,-0.73648417,-0.7353202,-0.73492205,-0.73492205,-0.73339045,-0.7314302,-0.7306644,-0.73182833,-0.73259413,-0.7322265,-0.73182833,-0.73106253,-0.73106253,-0.7314302,-0.72913283,-0.72680485,-0.723313,-0.71942294,-0.7136031,-0.70625174,-0.69890034,-0.6938463,-0.6919165,-0.69231474,-0.69231474,-0.6899868,-0.67990935,-0.6589886,-0.63108397,-0.604711,-0.5927037,-0.5992893,-0.6175146,-0.63610744,-0.64425516,-0.64232546,-0.63843536,-0.6407633,-0.6539345,-0.6760192,-0.70122826,-0.72175086,-0.73182833,-0.7322265,-0.7260085,-0.7198211,-0.7167274,-0.7174932,-0.71942294,-0.7202193,-0.7205869,-0.7213833,-0.7229148,-0.72447693,-0.7256409,-0.7298986,-0.73841393,-0.7314302,-0.6671057,-0.50706035,-0.23619324,0.1148957,0.47413254,0.7674825,0.93025386,0.94612074,0.83336914,0.61478865,0.31718087,-0.034306347,-0.3958403,-0.703158,-0.8969277,-0.95154226,-0.9011854,-0.815542,-0.7527491,-0.7329923,-0.7465617,-0.76904464,-0.7833798,-0.78491133,-0.7783257,-0.7686464,-0.7585689,-0.75042117,-0.7449995,-0.74114007,-0.73648417,-0.7295004,-0.7213833,-0.7132355,-0.70625174,-0.69926786,-0.69035435,-0.68223727,-0.67485523,-0.66826963,-0.66168404,-0.65356696,-0.6454191,-0.63803715,-0.63108397,-0.62253803,-0.6113272,-0.5989218,-0.58804786,-0.57683706,-0.5644316,-0.55009645,-0.5353631,-0.5217937,-0.5093883,-0.49388915,-0.47569454,-0.45553952,-0.43498635,-0.41562772,-0.39547276,-0.3725916,-0.34934288,-0.32686007,-0.30593926,-0.28618252,-0.26679325,-0.25013012,-0.2385211,-0.23233372,-0.23037332,-0.23233372,-0.2385211,-0.25129414,-0.27457345,-0.30633748,-0.34624922,-0.3943088,-0.44778997,-0.5047324,-0.5609397,-0.612093,-0.6570282,-0.6977364,-0.7337581,-0.7659203,-0.7918951,-0.81281585,-0.8287132,-0.8407204,-0.84770423,-0.85003215,-0.8492358,-0.8481024,-0.847306,-0.84693843,-0.8457745,-0.8442123,-0.8422826,-0.8407204,-0.83955646,-0.835697,-0.8314087,-0.82794744,-0.8252213,-0.8217294,-0.81747174,-0.81281585,-0.8089564,-0.80699605,-0.8050663,-0.8012068,-0.796551,-0.79345727,-0.7914969,-0.79112935,-0.7891996,-0.78723925,-0.78607523,-0.7857077,-0.7853095,-0.78221583,-0.7791221,-0.7787239,-0.7798879,-0.78065366,-0.7798879,-0.7771617,-0.7771617,-0.77795815,-0.7791221,-0.77755994,-0.776396,-0.7771617,-0.7798879,-0.7818176,-0.7794897,-0.7744663,-0.7702086,-0.7678807,-0.76748246,-0.76708424,-0.76708424,-0.76748246,-0.7698104,-0.77097434,-0.7702086,-0.76904464,-0.76748246,-0.7663185,-0.7655527,-0.7639905,-0.7616626,-0.76089686,-0.76089686,-0.7593347,-0.7558428,-0.7523815,-0.74965537,-0.7488896,-0.74965537,-0.7488896,-0.7484914,-0.74809325,-0.74772567,-0.74772567,-0.7461635,-0.74463195,-0.74383557,-0.7426716,-0.74230397,-0.73997605,-0.73917973,-0.7403437,-0.74114007,-0.74074185,-0.73841393,-0.73648417,-0.7357184,-0.73648417,-0.7357184,-0.7337581,-0.73182833,-0.73106253,-0.7306644,-0.7298986,-0.72680485,-0.7229148,-0.71942294,-0.7155634,-0.7097436,-0.703158,-0.6996661,-0.6977364,-0.6977364,-0.6958066,-0.68649495,-0.66983175,-0.6477471,-0.62526417,-0.60899925,-0.60085154,-0.6039452,-0.6147885,-0.6275921,-0.6369038,-0.63999754,-0.64269304,-0.65123904,-0.6690661,-0.6926823,-0.71283734,-0.7260085,-0.73106253,-0.7298986,-0.7260085,-0.72098505,-0.71709496,-0.7182589,-0.7240788,-0.7302662,-0.7322265,-0.7306644,-0.72913283,-0.7295004,-0.73259413,-0.73997605,-0.7469599,-0.72913283,-0.650075,-0.47569454,-0.19046152,0.1652832,0.5132785,0.7759979,0.8953657,0.8721169,0.7353203,0.50589645,0.198977,-0.16411912,-0.52644956,-0.8163078,-0.97053325,-0.9845008,-0.9104665,-0.81979966,-0.76089686,-0.74383557,-0.7554752,-0.7744663,-0.78491133,-0.7857077,-0.7794897,-0.7721383,-0.7659203,-0.7581707,-0.7508193,-0.743468,-0.7368824,-0.73106253,-0.72368056,-0.7174932,-0.7116734,-0.70585346,-0.69890034,-0.6876589,-0.6768156,-0.6690661,-0.66633993,-0.6651759,-0.6597543,-0.64927864,-0.6357398,-0.62293625,-0.6136245,-0.6055074,-0.5957974,-0.58342266,-0.5702208,-0.55551815,-0.53922254,-0.5237234,-0.51131797,-0.50087297,-0.48460805,-0.46365666,-0.43847823,-0.4132998,-0.39507455,-0.3807394,-0.36251414,-0.34006184,-0.31485277,-0.29393196,-0.2791986,-0.26951933,-0.26333195,-0.2606058,-0.26253557,-0.26951933,-0.2803626,-0.2981897,-0.32416445,-0.3609826,-0.40748,-0.45823503,-0.51131797,-0.5609397,-0.6082028,-0.6520047,-0.6915183,-0.7279689,-0.76049864,-0.7891996,-0.8104879,-0.82638526,-0.83722854,-0.84381413,-0.8481024,-0.85039973,-0.85039973,-0.8507979,-0.8515637,-0.8515637,-0.84963393,-0.8449781,-0.83879066,-0.8337366,-0.8314087,-0.828315,-0.8236591,-0.82136184,-0.81747174,-0.81321406,-0.80699605,-0.7984807,-0.7930591,-0.7930591,-0.79382485,-0.7926609,-0.78647345,-0.7814194,-0.7787239,-0.7798879,-0.7802861,-0.7783257,-0.77795815,-0.77795815,-0.78065366,-0.7814194,-0.7787239,-0.77563024,-0.77406806,-0.77406806,-0.77366984,-0.7748338,-0.77563024,-0.7744663,-0.77174014,-0.7682482,-0.7655527,-0.7667167,-0.77097434,-0.7744663,-0.7744663,-0.7702086,-0.7659203,-0.76438874,-0.76708424,-0.7686464,-0.7678807,-0.7651545,-0.7620608,-0.7616626,-0.7655527,-0.7682482,-0.76708424,-0.763623,-0.76013106,-0.7574049,-0.7593347,-0.76013106,-0.75973284,-0.75780314,-0.75431126,-0.74965537,-0.74732745,-0.7465617,-0.7461635,-0.74732745,-0.74732745,-0.7461635,-0.7453977,-0.7442337,-0.74306977,-0.7403437,-0.7395779,-0.7403437,-0.743468,-0.74809325,-0.74772567,-0.7426716,-0.7357184,-0.7279689,-0.7225166,-0.7182589,-0.71709496,-0.7174932,-0.7182589,-0.7163292,-0.7109076,-0.70585346,-0.704322,-0.7023922,-0.6926823,-0.6694336,-0.64269304,-0.62217045,-0.61828035,-0.6291236,-0.643857,-0.65509844,-0.66015255,-0.662848,-0.66633993,-0.6740895,-0.68882287,-0.70857966,-0.72913283,-0.7419058,-0.7449995,-0.7426716,-0.7368824,-0.73415625,-0.73415625,-0.73492205,-0.73492205,-0.7353202,-0.73804635,-0.73917973,-0.73841393,-0.73804635,-0.74074185,-0.74732745,-0.75121754,-0.7248446,-0.63457584,-0.4578675,-0.190094,0.12497318,0.41988552,0.628358,0.70548606,0.65819216,0.5194659,0.31136096,0.039329886,-0.276105,-0.59077406,-0.8333691,-0.9503783,-0.94262874,-0.86822677,-0.7930591,-0.7488896,-0.7403437,-0.75121754,-0.7647563,-0.77330226,-0.77406806,-0.76748246,-0.7593347,-0.7527491,-0.74809325,-0.743468,-0.7368824,-0.73182833,-0.7271725,-0.72368056,-0.7182589,-0.70781386,-0.6996661,-0.6942445,-0.69075257,-0.68376875,-0.6717615,-0.6593561,-0.64927864,-0.64425516,-0.6407633,-0.63920116,-0.6357398,-0.6283579,-0.6167488,-0.5992893,-0.57953256,-0.5644316,-0.5558857,-0.551628,-0.5450424,-0.5311054,-0.5124819,-0.49156117,-0.47024226,-0.4508837,-0.4330566,-0.4159953,-0.40205836,-0.38655925,-0.36873215,-0.34897536,-0.32882035,-0.31718075,-0.31252486,-0.30982935,-0.30633748,-0.30284554,-0.30633748,-0.32143843,-0.34817898,-0.37957543,-0.4148314,-0.45474315,-0.5012711,-0.55046403,-0.5985236,-0.64232546,-0.68183905,-0.7202193,-0.75431126,-0.7818176,-0.8023708,-0.8120501,-0.8186357,-0.8225258,-0.8244555,-0.82987714,-0.83686095,-0.84381413,-0.8457745,-0.84111863,-0.8325727,-0.82638526,-0.82598704,-0.82715106,-0.82598704,-0.82405734,-0.8194015,-0.81670594,-0.8147456,-0.8112843,-0.8062303,-0.8015744,-0.79808253,-0.79382485,-0.7876375,-0.78221583,-0.7771617,-0.77406806,-0.7729041,-0.7705761,-0.7682482,-0.7663185,-0.76708424,-0.7705761,-0.7702086,-0.7667167,-0.7589671,-0.7531473,-0.75391304,-0.7581707,-0.763623,-0.76748246,-0.7682482,-0.76438874,-0.75973284,-0.7547094,-0.7508193,-0.7515851,-0.7547094,-0.7554752,-0.7558428,-0.7558428,-0.75700676,-0.7589671,-0.7574049,-0.7547094,-0.7515851,-0.7519833,-0.75431126,-0.7547094,-0.75431126,-0.7523815,-0.75121754,-0.7519833,-0.75042117,-0.74772567,-0.7442337,-0.74114007,-0.73917973,-0.73804635,-0.73804635,-0.73997605,-0.743468,-0.7426716,-0.73804635,-0.73106253,-0.7248446,-0.723313,-0.7240788,-0.72447693,-0.7213833,-0.7167274,-0.7132355,-0.7136031,-0.71207154,-0.7097436,-0.7027598,-0.6868931,-0.66633993,-0.6446534,-0.6314516,-0.6271939,-0.63610744,-0.650075,-0.662848,-0.6690661,-0.67136335,-0.6717615,-0.6775814,-0.69075257,-0.7101418,-0.72833645,-0.73841393,-0.73917973,-0.7337581,-0.7298986,-0.7287346,-0.7302662,-0.7298986,-0.7248446,-0.72175086,-0.7213833,-0.7256409,-0.72913283,-0.7295004,-0.7295004,-0.7329923,-0.73492205,-0.703158,-0.6012497,-0.40824574,-0.13854253,0.15171397,0.39700437,0.54234695,0.56596327,0.48806953,0.33733582,0.1373787,-0.10016227,-0.36524028,-0.62217045,-0.8225258,-0.92210615,-0.91588813,-0.8481024,-0.775232,-0.7353202,-0.7337581,-0.7508193,-0.7659203,-0.7682482,-0.76049864,-0.7508193,-0.74230397,-0.7376481,-0.73492205,-0.73182833,-0.7279689,-0.71865714,-0.7101418,-0.7027598,-0.69890034,-0.6961742,-0.69035435,-0.68183905,-0.6744877,-0.67023003,-0.66557413,-0.6566606,-0.64425516,-0.632248,-0.624866,-0.6213741,-0.61828035,-0.610929,-0.60045326,-0.5911722,-0.58302444,-0.57254875,-0.56170547,-0.5512604,-0.5415505,-0.52914506,-0.5144423,-0.49388915,-0.47257018,-0.4578675,-0.44389987,-0.42840075,-0.4086439,-0.3877232,-0.37182587,-0.35942042,-0.35013932,-0.3419916,-0.33460963,-0.3315159,-0.33267987,-0.34082758,-0.35127264,-0.36524028,-0.38499707,-0.4094097,-0.4415719,-0.48188192,-0.5276135,-0.5752749,-0.6213741,-0.6620822,-0.6965724,-0.72524273,-0.7484914,-0.76708424,-0.7833798,-0.80004287,-0.81088614,-0.8186357,-0.8205654,-0.81747174,-0.8151438,-0.815542,-0.8186357,-0.82136184,-0.8178699,-0.8120501,-0.80586267,-0.8023708,-0.80273837,-0.8046987,-0.80273837,-0.7988789,-0.7946212,-0.79073113,-0.7884032,-0.78880143,-0.78803563,-0.7853095,-0.7814194,-0.776396,-0.77406806,-0.77406806,-0.77563024,-0.776396,-0.77366984,-0.7705761,-0.76748246,-0.763623,-0.7616626,-0.75780314,-0.75624096,-0.75624096,-0.75780314,-0.7566392,-0.75431126,-0.7508193,-0.7500536,-0.7515851,-0.7531473,-0.7523815,-0.75042117,-0.7519833,-0.7554752,-0.76089686,-0.76245904,-0.7581707,-0.7527491,-0.74772567,-0.743468,-0.74074185,-0.7388121,-0.7419058,-0.7469599,-0.7523815,-0.7547094,-0.7523815,-0.7492572,-0.74809325,-0.7488896,-0.74772567,-0.74383557,-0.743468,-0.7442337,-0.74306977,-0.73917973,-0.73339045,-0.7279689,-0.72833645,-0.7287346,-0.7271725,-0.7229148,-0.7198211,-0.7190553,-0.71789134,-0.7132355,-0.70857966,-0.70625174,-0.7074157,-0.7070174,-0.69733816,-0.6775814,-0.65509844,-0.63999754,-0.6357398,-0.6407633,-0.65084076,-0.66168404,-0.6675039,-0.67023003,-0.66983175,-0.67136335,-0.6802769,-0.6965724,-0.7155634,-0.7298986,-0.7376481,-0.74114007,-0.74074185,-0.73725,-0.73106253,-0.7240788,-0.71942294,-0.72098505,-0.7260085,-0.7306644,-0.7322265,-0.7322265,-0.73339045,-0.736086,-0.7388121,-0.7205869,-0.65084076,-0.5058964,-0.2803626,-0.009893715,0.24470854,0.4272368,0.49349105,0.45746934,0.34275746,0.17226708,-0.037400007,-0.28192484,-0.5353631,-0.75042117,-0.8833583,-0.91359085,-0.86978894,-0.80080867,-0.74965537,-0.7329923,-0.7442337,-0.76282656,-0.77330226,-0.7686464,-0.7558428,-0.74383557,-0.7388121,-0.7376481,-0.7357184,-0.7306644,-0.7256409,-0.7240788,-0.72368056,-0.7202193,-0.714767,-0.7039238,-0.6938463,-0.6849327,-0.67525345,-0.66866785,-0.66477776,-0.66401196,-0.662848,-0.65742636,-0.6473489,-0.63457584,-0.62293625,-0.61325693,-0.6055074,-0.59812534,-0.5892118,-0.5822587,-0.5729469,-0.560174,-0.5442766,-0.52644956,-0.5117162,-0.49545133,-0.47722608,-0.45670348,-0.43691605,-0.42221332,-0.40980792,-0.3962385,-0.38113755,-0.36680245,-0.35825646,-0.35323304,-0.34741324,-0.3423592,-0.34159338,-0.35206908,-0.37106007,-0.3958403,-0.42374486,-0.4532116,-0.48770177,-0.5256838,-0.5640334,-0.6035776,-0.6434895,-0.685331,-0.7213833,-0.74732745,-0.7620608,-0.7698104,-0.7783257,-0.7891996,-0.7984807,-0.80430055,-0.80586267,-0.80699605,-0.8073942,-0.8077924,-0.8062303,-0.80273837,-0.7988789,-0.7961528,-0.794223,-0.79345727,-0.7922933,-0.7914969,-0.78880143,-0.78454375,-0.7814194,-0.7802861,-0.7798879,-0.77755994,-0.77330226,-0.7678807,-0.7639905,-0.763623,-0.7639905,-0.7620608,-0.75780314,-0.75391304,-0.7519833,-0.7519833,-0.7500536,-0.7465617,-0.743468,-0.7426716,-0.74463195,-0.74772567,-0.75042117,-0.7500536,-0.7508193,-0.7515851,-0.7508193,-0.7500536,-0.74772567,-0.7461635,-0.74463195,-0.7442337,-0.7453977,-0.7465617,-0.7484914,-0.74732745,-0.743468,-0.7395779,-0.73725,-0.73997605,-0.7426716,-0.743468,-0.74306977,-0.7426716,-0.74463195,-0.7461635,-0.7457959,-0.74150765,-0.7357184,-0.7314302,-0.73106253,-0.7322265,-0.7345544,-0.7368824,-0.7388121,-0.73841393,-0.7357184,-0.7306644,-0.7279689,-0.72833645,-0.7295004,-0.7295004,-0.7279689,-0.7271725,-0.7298986,-0.7329923,-0.7337581,-0.73106253,-0.72524273,-0.72175086,-0.7205869,-0.7198211,-0.71709496,-0.714767,-0.7116734,-0.70857966,-0.7050878,-0.70199406,-0.7008301,-0.7023922,-0.7039238,-0.7039238,-0.70159584,-0.69308054,-0.67718315,-0.65586424,-0.6337795,-0.6213741,-0.624866,-0.63999754,-0.6566606,-0.6651759,-0.6651759,-0.6609183,-0.6613165,-0.67023003,-0.68649495,-0.70548594,-0.7205869,-0.72913283,-0.72913283,-0.72524273,-0.722149,-0.7225166,-0.7260085,-0.72757065,-0.7271725,-0.72447693,-0.7225166,-0.7248446,-0.72757065,-0.7279689,-0.72757065,-0.7298986,-0.7295004,-0.7027598,-0.6147885,-0.44582957,-0.20403093,0.0606488,0.29007268,0.4345882,0.46754694,0.4078784,0.27726912,0.097466946,-0.1168254,-0.3590529,-0.5957974,-0.7837473,-0.8825619,-0.8856863,-0.82987714,-0.76708424,-0.7314302,-0.7256409,-0.73648417,-0.74809325,-0.7519833,-0.75121754,-0.7465617,-0.7403437,-0.73415625,-0.72757065,-0.723313,-0.71709496,-0.71050936,-0.7039238,-0.6977364,-0.69501024,-0.69231474,-0.6872607,-0.680675,-0.6729255,-0.6671057,-0.6613165,-0.65549666,-0.6496768,-0.6446534,-0.6407633,-0.63610744,-0.6291236,-0.6198425,-0.60936683,-0.60045326,-0.59153974,-0.58146226,-0.5713848,-0.5624713,-0.5547217,-0.5450424,-0.530309,-0.5124819,-0.4927252,-0.47606206,-0.4597972,-0.4419701,-0.42374486,-0.40515208,-0.3904187,-0.37764573,-0.36640418,-0.35592854,-0.3466475,-0.3419916,-0.34082758,-0.3419916,-0.34701502,-0.35749072,-0.3768493,-0.40322232,-0.43538457,-0.4722026,-0.51131797,-0.5531902,-0.5938677,-0.62992,-0.66168404,-0.6899868,-0.71789134,-0.743468,-0.7639905,-0.77755994,-0.7857077,-0.7926609,-0.7984807,-0.80273837,-0.80586267,-0.8073942,-0.8085582,-0.8089564,-0.80662847,-0.8012068,-0.795387,-0.79112935,-0.7884032,-0.78607523,-0.7837473,-0.78065366,-0.7783257,-0.775232,-0.7729041,-0.7702086,-0.7686464,-0.76904464,-0.7682482,-0.7659203,-0.76245904,-0.7593347,-0.7585689,-0.7585689,-0.7558428,-0.7519833,-0.7492572,-0.7492572,-0.7508193,-0.7519833,-0.7508193,-0.74772567,-0.74772567,-0.74809325,-0.74809325,-0.74732745,-0.7453977,-0.7453977,-0.7453977,-0.7449995,-0.7449995,-0.7453977,-0.7461635,-0.7457959,-0.74230397,-0.73841393,-0.736086,-0.73804635,-0.74074185,-0.74074185,-0.7388121,-0.7357184,-0.73492205,-0.736086,-0.73725,-0.73725,-0.736086,-0.7357184,-0.7353202,-0.73415625,-0.73259413,-0.7314302,-0.73182833,-0.7322265,-0.7322265,-0.7302662,-0.72833645,-0.7279689,-0.7287346,-0.7287346,-0.7264067,-0.72368056,-0.7225166,-0.722149,-0.7213833,-0.7190553,-0.7163292,-0.71516526,-0.71439946,-0.7140013,-0.7132355,-0.71207154,-0.71283734,-0.71283734,-0.71130574,-0.7093454,-0.7066499,-0.7074157,-0.7089778,-0.7109076,-0.71130574,-0.7101418,-0.7101418,-0.7089778,-0.70781386,-0.70548594,-0.7027598,-0.7023922,-0.7035562,-0.70472014,-0.70472014,-0.703158,-0.70159584,-0.6996661,-0.6977364,-0.6961742,-0.6961742,-0.6981039,-0.6996661,-0.7004319,-0.6985022,-0.6958066,-0.6958066,-0.6961742,-0.6961742,-0.69540846,-0.6938463,-0.6938463,-0.6938463,-0.69308054,-0.6915183,-0.69035435,-0.6919165,-0.6938463,-0.69540846,-0.6942445,-0.6919165,-0.6911508,-0.6899868,-0.6895886,-0.6876589,-0.685331,-0.6845652,-0.68376875,-0.6845652,-0.6845652,-0.6845652,-0.6845652,-0.6834012,-0.68144083,-0.67914355,-0.67718315,-0.6783471,-0.6795111,-0.6795111,-0.67914355,-0.6795111,-0.680675,-0.680675,-0.6787454,-0.67565167,-0.6733237,-0.6744877,-0.6760192,-0.67525345,-0.67136335,-0.66673815,-0.6636138,-0.6605201,-0.65742636,-0.6531687,-0.64851284,-0.6473489,-0.6481147,-0.64891106,-0.6446534,-0.63184977,-0.61246055,-0.59193796,-0.5787668,-0.578001,-0.5892118,-0.6051092,-0.6151867,-0.6159525,-0.610929,-0.6078353,-0.6147885,-0.632248,-0.65509844,-0.6764174,-0.69035435,-0.6961742,-0.6942445,-0.6872607,-0.68144083,-0.67990935,-0.6845652,-0.69075257,-0.69464266,-0.69501024,-0.6934787,-0.6938463,-0.69540846,-0.6977364,-0.7027598,-0.7089778,-0.6981039,-0.63108397,-0.47839004,-0.23695898,0.05213356,0.3218366,0.51906776,0.6035472,0.58186054,0.47257042,0.29237008,0.06490648,-0.19744533,-0.46289092,-0.6880264,-0.83220506,-0.8732808,-0.8341348,-0.7663185,-0.7163292,-0.7023922,-0.71439946,-0.7337581,-0.7449995,-0.7457959,-0.7403437,-0.7329923,-0.7260085,-0.7190553,-0.7132355,-0.70857966,-0.704322,-0.69926786,-0.69231474,-0.6849327,-0.67914355,-0.6736913,-0.66866785,-0.662848,-0.6570282,-0.652403,-0.6469507,-0.6403651,-0.63184977,-0.62370205,-0.61867857,-0.61325693,-0.60703886,-0.5985236,-0.58804786,-0.57953256,-0.57061905,-0.5609397,-0.55046403,-0.53922254,-0.5287775,-0.5171379,-0.5039666,-0.48806936,-0.47180444,-0.45670348,-0.440408,-0.42337728,-0.40398806,-0.3853953,-0.36909974,-0.35439694,-0.34082758,-0.32802397,-0.3175789,-0.3117591,-0.30982935,-0.3094312,-0.3109933,-0.31681317,-0.3303519,-0.35206908,-0.3807394,-0.41366738,-0.45011795,-0.49039727,-0.531473,-0.5713848,-0.60899925,-0.643857,-0.6764174,-0.70472014,-0.7271725,-0.7426716,-0.7554752,-0.7682482,-0.7791221,-0.78647345,-0.7891996,-0.7884032,-0.7876375,-0.78607523,-0.7837473,-0.7798879,-0.77599776,-0.7744663,-0.7729041,-0.77097434,-0.76748246,-0.76438874,-0.76282656,-0.7616626,-0.76049864,-0.7574049,-0.75391304,-0.7527491,-0.75121754,-0.7492572,-0.74732745,-0.7449995,-0.7453977,-0.7461635,-0.7457959,-0.743468,-0.74114007,-0.74074185,-0.74150765,-0.7419058,-0.74074185,-0.73917973,-0.7403437,-0.7419058,-0.74230397,-0.74074185,-0.73804635,-0.73804635,-0.73804635,-0.73841393,-0.73804635,-0.7376481,-0.73917973,-0.73917973,-0.73804635,-0.7353202,-0.73339045,-0.73415625,-0.7368824,-0.7376481,-0.736086,-0.73415625,-0.7337581,-0.73415625,-0.7345544,-0.73259413,-0.7302662,-0.7295004,-0.7295004,-0.7295004,-0.7279689,-0.7260085,-0.7264067,-0.72757065,-0.72833645,-0.72680485,-0.7248446,-0.72368056,-0.72447693,-0.72524273,-0.72524273,-0.72447693,-0.7248446,-0.7240788,-0.7229148,-0.7198211,-0.7163292,-0.71439946,-0.7132355,-0.71207154,-0.71050936,-0.7097436,-0.7109076,-0.7116734,-0.71130574,-0.7093454,-0.70781386,-0.70781386,-0.70857966,-0.70857966,-0.7066499,-0.7050878,-0.70548594,-0.70585346,-0.70585346,-0.7039238,-0.70199406,-0.70159584,-0.7008301,-0.6985022,-0.6938463,-0.6895886,-0.6895886,-0.6915183,-0.69308054,-0.6915183,-0.68842465,-0.68609667,-0.68572915,-0.6868931,-0.68649495,-0.68649495,-0.6868931,-0.6876589,-0.6895886,-0.69035435,-0.69035435,-0.69231474,-0.69308054,-0.69231474,-0.6899868,-0.68649495,-0.6845652,-0.68376875,-0.68376875,-0.683003,-0.68223727,-0.68376875,-0.68609667,-0.6876589,-0.6876589,-0.68572915,-0.685331,-0.685331,-0.685331,-0.68416697,-0.68183905,-0.67914355,-0.67485523,-0.67099583,-0.66557413,-0.6605201,-0.6578246,-0.65549666,-0.6531687,-0.65084076,-0.6481147,-0.64232546,-0.6268263,-0.60278124,-0.5776028,-0.5640334,-0.56829107,-0.5872821,-0.60743713,-0.6175146,-0.61635065,-0.6105308,-0.60667133,-0.61325693,-0.6302876,-0.65509844,-0.680675,-0.6981039,-0.7027598,-0.6981039,-0.6911508,-0.6876589,-0.6880264,-0.6891904,-0.6891904,-0.68842465,-0.6891904,-0.6911508,-0.6934787,-0.6942445,-0.6958066,-0.703158,-0.7116734,-0.6965724,-0.61558485,-0.440408,-0.17147058,0.14512825,0.44004047,0.65509856,0.7453978,0.71632934,0.58844626,0.38423145,0.13039482,-0.16022909,-0.45048547,-0.69231474,-0.8414862,-0.8775385,-0.8333691,-0.7659203,-0.71942294,-0.70818144,-0.72175086,-0.74074185,-0.7531473,-0.7554752,-0.75121754,-0.7419058,-0.7337581,-0.72833645,-0.72368056,-0.7174932,-0.7101418,-0.7027598,-0.69693995,-0.6911508,-0.685331,-0.6779796,-0.67059755,-0.6671057,-0.6632462,-0.6578246,-0.64927864,-0.6403651,-0.63341194,-0.6268263,-0.6202407,-0.61169475,-0.60278124,-0.59426594,-0.58611816,-0.5760406,-0.5624713,-0.5489325,-0.5368946,-0.5256838,-0.51364595,-0.4993108,-0.48381162,-0.46871072,-0.4528134,-0.43498635,-0.41406554,-0.39351237,-0.37531775,-0.35788888,-0.34159338,-0.3237663,-0.30633748,-0.29236984,-0.282323,-0.27494103,-0.27028513,-0.26991755,-0.27570677,-0.28890854,-0.30903292,-0.33540595,-0.36909974,-0.41057366,-0.45553952,-0.5024351,-0.5489325,-0.59426594,-0.6372714,-0.6760192,-0.70818144,-0.7322265,-0.7523815,-0.77097434,-0.78647345,-0.79808253,-0.8050663,-0.8089564,-0.8120501,-0.814378,-0.81397986,-0.81088614,-0.8077924,-0.8077924,-0.8085582,-0.8077924,-0.80353475,-0.79771495,-0.794223,-0.7926609,-0.7930591,-0.7903329,-0.78607523,-0.78258336,-0.7802861,-0.7791221,-0.7783257,-0.77755994,-0.7771617,-0.77563024,-0.7725059,-0.7682482,-0.7647563,-0.7647563,-0.7659203,-0.7663185,-0.7647563,-0.76282656,-0.7616626,-0.76089686,-0.7593347,-0.75624096,-0.75431126,-0.75391304,-0.7547094,-0.755077,-0.7527491,-0.75121754,-0.75121754,-0.7523815,-0.75354546,-0.7515851,-0.74965537,-0.7484914,-0.7484914,-0.74809325,-0.7469599,-0.7453977,-0.7461635,-0.74732745,-0.74809325,-0.7461635,-0.74383557,-0.7426716,-0.7426716,-0.74306977,-0.7419058,-0.7403437,-0.73917973,-0.73841393,-0.7376481,-0.7357184,-0.73339045,-0.73259413,-0.73182833,-0.7302662,-0.72757065,-0.7260085,-0.7256409,-0.72680485,-0.7271725,-0.7256409,-0.72368056,-0.7240788,-0.7248446,-0.72524273,-0.72368056,-0.722149,-0.72175086,-0.72175086,-0.7213833,-0.7190553,-0.71789134,-0.71865714,-0.7205869,-0.7213833,-0.7182589,-0.7136031,-0.71130574,-0.7109076,-0.71207154,-0.7124697,-0.71207154,-0.71130574,-0.70857966,-0.7035562,-0.6961742,-0.6899868,-0.6868931,-0.68572915,-0.6849327,-0.6834012,-0.68223727,-0.68144083,-0.67718315,-0.6624805,-0.6369038,-0.6101632,-0.59426594,-0.5950317,-0.6101632,-0.6283579,-0.6415291,-0.6454191,-0.64192724,-0.63766956,-0.6395993,-0.65433264,-0.680675,-0.7089778,-0.72757065,-0.7314302,-0.7256409,-0.7182589,-0.7140013,-0.714767,-0.71709496,-0.7182589,-0.7202193,-0.7213833,-0.7213833,-0.7190553,-0.7174932,-0.7198211,-0.7279689,-0.73182833,-0.69890034,-0.59077406,-0.38616103,-0.09437311,0.2288419,0.51677036,0.7081815,0.7667167,0.70625174,0.54813623,0.318743,0.040891886,-0.26565987,-0.5547217,-0.7767942,-0.8907097,-0.8965295,-0.8407204,-0.77755994,-0.7426716,-0.73841393,-0.75121754,-0.7659203,-0.7725059,-0.77137256,-0.7639905,-0.755077,-0.74732745,-0.74114007,-0.7357184,-0.7295004,-0.7229148,-0.7167274,-0.7116734,-0.7066499,-0.7008301,-0.69464266,-0.6891904,-0.683003,-0.67485523,-0.6651759,-0.65586424,-0.64891106,-0.6430912,-0.6372714,-0.62799025,-0.6175146,-0.6082028,-0.5996876,-0.5903758,-0.5787668,-0.56596315,-0.55355775,-0.5423469,-0.5295433,-0.51404417,-0.49661523,-0.47915578,-0.46096116,-0.44236833,-0.4206512,-0.39896464,-0.37880963,-0.36135012,-0.3466475,-0.32998437,-0.3105951,-0.2916041,-0.27417517,-0.26253557,-0.25787967,-0.26020765,-0.2687536,-0.28345633,-0.30517352,-0.33307803,-0.36873215,-0.41250342,-0.46212512,-0.51327837,-0.5624713,-0.60936683,-0.65356696,-0.69464266,-0.7314302,-0.7616626,-0.7857077,-0.8050663,-0.81979966,-0.83064294,-0.835697,-0.8380249,-0.8391889,-0.84032226,-0.84032226,-0.83879066,-0.8360646,-0.8333691,-0.8314087,-0.829479,-0.82561946,-0.8205654,-0.81590956,-0.81244826,-0.8085582,-0.8039023,-0.79964465,-0.796551,-0.79382485,-0.7895672,-0.7833798,-0.77755994,-0.7744663,-0.7744663,-0.7748338,-0.77330226,-0.77137256,-0.7702086,-0.7702086,-0.77097434,-0.76941216,-0.7667167,-0.76438874,-0.763623,-0.7639905,-0.763623,-0.76282656,-0.7620608,-0.7616626,-0.76089686,-0.7585689,-0.75624096,-0.755077,-0.7554752,-0.75700676,-0.7581707,-0.7593347,-0.76089686,-0.7620608,-0.7616626,-0.7585689,-0.7566392,-0.75624096,-0.7574049,-0.7589671,-0.7585689,-0.7574049,-0.7566392,-0.75700676,-0.7566392,-0.75391304,-0.7508193,-0.74772567,-0.7453977,-0.74306977,-0.74114007,-0.7403437,-0.74114007,-0.74306977,-0.74306977,-0.7403437,-0.7376481,-0.73648417,-0.7368824,-0.7376481,-0.7368824,-0.7353202,-0.73415625,-0.7337581,-0.73339045,-0.7322265,-0.7302662,-0.7295004,-0.72833645,-0.72680485,-0.723313,-0.7213833,-0.72098505,-0.722149,-0.7229148,-0.7202193,-0.71709496,-0.714767,-0.7140013,-0.71439946,-0.714767,-0.71439946,-0.7140013,-0.71207154,-0.7074157,-0.69926786,-0.6919165,-0.68649495,-0.68416697,-0.68376875,-0.6826048,-0.6802769,-0.6736913,-0.65819216,-0.63457584,-0.6086011,-0.59193796,-0.5903758,-0.60241365,-0.61791277,-0.6271939,-0.6302876,-0.62992,-0.63261557,-0.6434895,-0.6609183,-0.68376875,-0.70472014,-0.71709496,-0.71942294,-0.71439946,-0.7089778,-0.7070174,-0.7089778,-0.7116734,-0.71283734,-0.71283734,-0.7132355,-0.71516526,-0.7163292,-0.715931,-0.715931,-0.72098505,-0.7271725,-0.7074157,-0.61828035,-0.4287989,-0.13465244,0.21680415,0.5512605,0.8004105,0.90970075,0.88103056,0.7353203,0.49854517,0.19667971,-0.14862001,-0.48537385,-0.7527491,-0.90002143,-0.9190124,-0.8577817,-0.78258336,-0.73804635,-0.73106253,-0.7461635,-0.76438874,-0.77406806,-0.77330226,-0.7655527,-0.755077,-0.7465617,-0.74074185,-0.73725,-0.7329923,-0.7260085,-0.7190553,-0.71283734,-0.7074157,-0.7023922,-0.6942445,-0.68376875,-0.6740895,-0.6659417,-0.6593561,-0.6531687,-0.6477471,-0.6430912,-0.63803715,-0.63184977,-0.6213741,-0.60976505,-0.5985236,-0.58804786,-0.57643884,-0.5624713,-0.5485343,-0.53459734,-0.5229577,-0.5105523,-0.49428737,-0.47569454,-0.4559071,-0.4361503,-0.41679174,-0.3962385,-0.374552,-0.35167092,-0.32918793,-0.3067357,-0.28618252,-0.2691211,-0.2563482,-0.24859858,-0.24394268,-0.24277878,-0.24783283,-0.2606058,-0.28269058,-0.315251,-0.35360056,-0.3970043,-0.44506383,-0.49545133,-0.5466045,-0.59735966,-0.6446534,-0.6876589,-0.7256409,-0.75780314,-0.7814194,-0.80041045,-0.8151438,-0.82598704,-0.8333691,-0.8380249,-0.8407204,-0.8426502,-0.84304833,-0.8422826,-0.8380249,-0.8352988,-0.8337366,-0.8333691,-0.8314087,-0.82638526,-0.8205654,-0.81590956,-0.81321406,-0.8104879,-0.80662847,-0.8019726,-0.79771495,-0.7949888,-0.7918951,-0.7884032,-0.78491133,-0.7814194,-0.7798879,-0.7787239,-0.77795815,-0.77795815,-0.7783257,-0.77755994,-0.77563024,-0.7729041,-0.77097434,-0.7698104,-0.77097434,-0.77137256,-0.77097434,-0.7705761,-0.76941216,-0.7682482,-0.7659203,-0.7632248,-0.7616626,-0.7620608,-0.7632248,-0.7632248,-0.7616626,-0.76089686,-0.76013106,-0.76013106,-0.76013106,-0.75780314,-0.7558428,-0.7547094,-0.75624096,-0.7558428,-0.7531473,-0.74772567,-0.7419058,-0.73997605,-0.7403437,-0.7419058,-0.74230397,-0.7419058,-0.74150765,-0.7419058,-0.7403437,-0.7395779,-0.73841393,-0.73804635,-0.73917973,-0.7388121,-0.7376481,-0.7368824,-0.7368824,-0.7368824,-0.736086,-0.73415625,-0.7314302,-0.7302662,-0.7287346,-0.72757065,-0.72833645,-0.7302662,-0.7337581,-0.736086,-0.7345544,-0.73182833,-0.72833645,-0.7264067,-0.7248446,-0.722149,-0.72098505,-0.72098505,-0.7229148,-0.72368056,-0.72175086,-0.7190553,-0.71865714,-0.71865714,-0.7190553,-0.7167274,-0.7136031,-0.71207154,-0.7116734,-0.7116734,-0.7089778,-0.7066499,-0.7027598,-0.7000643,-0.6965724,-0.6919165,-0.68882287,-0.68609667,-0.6845652,-0.6810733,-0.67525345,-0.67059755,-0.6675039,-0.66168404,-0.6477471,-0.62449837,-0.60085154,-0.5868839,-0.5884461,-0.60008574,-0.6128588,-0.6213741,-0.62449837,-0.6264281,-0.63184977,-0.6430912,-0.66168404,-0.6826048,-0.7027598,-0.7136031,-0.7155634,-0.7140013,-0.7109076,-0.7097436,-0.7089778,-0.7070174,-0.70625174,-0.70857966,-0.7132355,-0.71516526,-0.7140013,-0.71207154,-0.7132355,-0.7229148,-0.73106253,-0.7023922,-0.6020155,-0.40242594,-0.108310044,0.22804558,0.532637,0.7314302,0.78803563,0.717095,0.55279195,0.318743,0.02848661,-0.2981897,-0.60936683,-0.8391889,-0.9387692,-0.9190124,-0.83955646,-0.76438874,-0.72524273,-0.722149,-0.73841393,-0.7547094,-0.7647563,-0.7655527,-0.7581707,-0.74809325,-0.73804635,-0.7306644,-0.7240788,-0.7182589,-0.71439946,-0.7089778,-0.7039238,-0.69733816,-0.6872607,-0.6779796,-0.67059755,-0.66557413,-0.66168404,-0.65549666,-0.6481147,-0.63999754,-0.63261557,-0.62526417,-0.61711645,-0.60899925,-0.60045326,-0.59153974,-0.58109474,-0.56829107,-0.55628383,-0.54697216,-0.53805864,-0.52798116,-0.5121144,-0.4931234,-0.47257018,-0.45437557,-0.43654847,-0.41755748,-0.39816827,-0.37880963,-0.36018622,-0.3412258,-0.32143843,-0.30284554,-0.28694826,-0.2765032,-0.27108157,-0.2687536,-0.27144915,-0.27726895,-0.29007256,-0.30982935,-0.33849967,-0.3764817,-0.42104936,-0.46907824,-0.51677024,-0.5624713,-0.60743713,-0.6504426,-0.69035435,-0.72368056,-0.75042117,-0.7721383,-0.7895672,-0.8050663,-0.815542,-0.8205654,-0.8228934,-0.82405734,-0.82561946,-0.8275492,-0.8275492,-0.82561946,-0.8225258,-0.8194015,-0.815542,-0.8112843,-0.80699605,-0.8039023,-0.8019726,-0.7988789,-0.7946212,-0.79073113,-0.7876375,-0.7884032,-0.7876375,-0.7837473,-0.7783257,-0.7729041,-0.7702086,-0.77137256,-0.77097434,-0.7698104,-0.7667167,-0.7655527,-0.76708424,-0.7705761,-0.77330226,-0.77330226,-0.77137256,-0.7678807,-0.76438874,-0.7620608,-0.76245904,-0.7647563,-0.76941216,-0.7725059,-0.7729041,-0.7698104,-0.76708424,-0.7655527,-0.7639905,-0.7647563,-0.7651545,-0.76438874,-0.7632248,-0.7616626,-0.76282656,-0.76708424,-0.7705761,-0.77137256,-0.7667167,-0.7593347,-0.755077,-0.7547094,-0.755077,-0.7547094,-0.7519833,-0.7500536,-0.75042117,-0.7531473,-0.7547094,-0.7547094,-0.7523815,-0.7508193,-0.7500536,-0.7484914,-0.7484914,-0.74732745,-0.7461635,-0.7461635,-0.7457959,-0.7461635,-0.7461635,-0.7469599,-0.7465617,-0.74383557,-0.73997605,-0.73725,-0.7357184,-0.7353202,-0.7353202,-0.73415625,-0.7337581,-0.73492205,-0.736086,-0.73804635,-0.73841393,-0.7357184,-0.7337581,-0.73106253,-0.72833645,-0.7306644,-0.73415625,-0.7368824,-0.73648417,-0.73106253,-0.7248446,-0.71865714,-0.714767,-0.71283734,-0.7097436,-0.70781386,-0.70548594,-0.703158,-0.70122826,-0.6996661,-0.7004319,-0.6985022,-0.68842465,-0.6694336,-0.6446534,-0.6264281,-0.62253803,-0.6314516,-0.6446534,-0.6547003,-0.6585904,-0.6589886,-0.6613165,-0.66826963,-0.68144083,-0.69926786,-0.7167274,-0.73106253,-0.73841393,-0.73917973,-0.73725,-0.7345544,-0.7345544,-0.73492205,-0.7337581,-0.7322265,-0.7314302,-0.7322265,-0.7329923,-0.7322265,-0.7329923,-0.73804635,-0.7457959,-0.7279689,-0.6461849,-0.47180444,-0.20519489,0.107911944,0.3958404,0.59350026,0.6613165,0.61053085,0.46987474,0.26293397,0.0048396587,-0.29433018,-0.59000826,-0.82329154,-0.9434251,-0.9430269,-0.87211686,-0.79382485,-0.74809325,-0.73997605,-0.7519833,-0.7663185,-0.77174014,-0.7702086,-0.7655527,-0.7585689,-0.75354546,-0.74809325,-0.7426716,-0.7357184,-0.7264067,-0.7182589,-0.71207154,-0.7070174,-0.7023922,-0.69501024,-0.6876589,-0.68144083,-0.6779796,-0.6740895,-0.66866785,-0.6620822,-0.6531687,-0.6454191,-0.6372714,-0.6268263,-0.6167488,-0.6055074,-0.5950317,-0.5837902,-0.57254875,-0.5605415,-0.5489325,-0.5361289,-0.5229577,-0.5078567,-0.4919594,-0.47606206,-0.4597972,-0.44080615,-0.42025298,-0.4001286,-0.3807394,-0.36407632,-0.34974116,-0.33540595,-0.3233987,-0.31215727,-0.30557168,-0.30051762,-0.29742396,-0.30128342,-0.31332123,-0.33540595,-0.36524028,-0.39856642,-0.43731427,-0.47995216,-0.5283793,-0.5772046,-0.6213741,-0.66168404,-0.69890034,-0.73492205,-0.7639905,-0.7837473,-0.7957852,-0.8054645,-0.81670594,-0.828315,-0.835697,-0.8380249,-0.83955646,-0.8418844,-0.84111863,-0.83646274,-0.8275492,-0.8201979,-0.8194015,-0.8205654,-0.8201979,-0.81590956,-0.81088614,-0.8062303,-0.8031366,-0.79964465,-0.7957852,-0.7922933,-0.78880143,-0.7853095,-0.78065366,-0.776396,-0.7744663,-0.7767942,-0.77755994,-0.7744663,-0.7698104,-0.7639905,-0.7616626,-0.76282656,-0.7647563,-0.7663185,-0.76438874,-0.7632248,-0.7620608,-0.7620608,-0.7639905,-0.7659203,-0.7682482,-0.7682482,-0.7678807,-0.7663185,-0.763623,-0.76282656,-0.76282656,-0.76438874,-0.76708424,-0.76708424,-0.7647563,-0.76049864,-0.7566392,-0.7554752,-0.75624096,-0.7589671,-0.7593347,-0.75780314,-0.75700676,-0.75624096,-0.7566392,-0.7558428,-0.75354546,-0.7515851,-0.7515851,-0.7527491,-0.74965537,-0.74463195,-0.73997605,-0.7368824,-0.7395779,-0.7426716,-0.7419058,-0.73804635,-0.7345544,-0.73415625,-0.73725,-0.74074185,-0.74463195,-0.743468,-0.7388121,-0.7322265,-0.72680485,-0.7248446,-0.72757065,-0.7306644,-0.7287346,-0.7240788,-0.71865714,-0.7174932,-0.723313,-0.72757065,-0.7264067,-0.723313,-0.7213833,-0.7229148,-0.7260085,-0.7264067,-0.7225166,-0.7205869,-0.722149,-0.723313,-0.71865714,-0.7093454,-0.6981039,-0.69231474,-0.6899868,-0.6911508,-0.6938463,-0.69890034,-0.704322,-0.6985022,-0.6795111,-0.64927864,-0.624866,-0.61791277,-0.62602997,-0.63999754,-0.65160656,-0.65549666,-0.6570282,-0.6570282,-0.6605201,-0.6694336,-0.68416697,-0.70159584,-0.7140013,-0.7182589,-0.71709496,-0.7155634,-0.7182589,-0.72175086,-0.72368056,-0.722149,-0.71709496,-0.71516526,-0.7136031,-0.7124697,-0.71283734,-0.714767,-0.723313,-0.7322265,-0.722149,-0.6585904,-0.5148099,-0.2842527,0.0017460585,0.27999508,0.48923337,0.57876694,0.5500965,0.4330567,0.2551843,0.03274429,-0.2280454,-0.50087297,-0.73841393,-0.8845223,-0.92210615,-0.8775385,-0.8039023,-0.7469599,-0.722149,-0.7260085,-0.74306977,-0.7593347,-0.7651545,-0.7585689,-0.74772567,-0.73917973,-0.7353202,-0.7329923,-0.7271725,-0.7190553,-0.71207154,-0.7097436,-0.7066499,-0.70122826,-0.6919165,-0.68144083,-0.67485523,-0.6717615,-0.6675039,-0.66168404,-0.65509844,-0.6477471,-0.63920116,-0.6302876,-0.61867857,-0.6086011,-0.6016173,-0.59619564,-0.5896101,-0.5783686,-0.5667595,-0.55937755,-0.5493001,-0.5361289,-0.51909816,-0.498545,-0.48071796,-0.46482062,-0.4469936,-0.426471,-0.40475386,-0.3888871,-0.3764817,-0.36524028,-0.35592854,-0.34624922,-0.33810145,-0.32725823,-0.31485277,-0.30557168,-0.30557168,-0.3218366,-0.34508526,-0.37142766,-0.39896464,-0.43033046,-0.47103864,-0.5187,-0.5675253,-0.6105308,-0.6473489,-0.6810733,-0.7097436,-0.73415625,-0.755077,-0.7725059,-0.7914969,-0.8097222,-0.82136184,-0.82405734,-0.8186357,-0.8112843,-0.8085582,-0.8116519,-0.8147456,-0.81397986,-0.8077924,-0.80041045,-0.79382485,-0.7914969,-0.7914969,-0.7926609,-0.7914969,-0.78880143,-0.78723925,-0.7853095,-0.7876375,-0.7868717,-0.7837473,-0.77755994,-0.77137256,-0.7698104,-0.7698104,-0.76748246,-0.76438874,-0.75973284,-0.75780314,-0.7566392,-0.755077,-0.75431126,-0.75431126,-0.7574049,-0.76282656,-0.7667167,-0.7663185,-0.763623,-0.7616626,-0.7593347,-0.75700676,-0.75391304,-0.7500536,-0.7484914,-0.7492572,-0.7523815,-0.7566392,-0.7581707,-0.7566392,-0.7519833,-0.7465617,-0.7453977,-0.74732745,-0.755077,-0.7566392,-0.7527491,-0.7461635,-0.7419058,-0.7426716,-0.74463195,-0.7453977,-0.74114007,-0.7353202,-0.7322265,-0.73106253,-0.7322265,-0.7345544,-0.73648417,-0.73841393,-0.73804635,-0.7345544,-0.7314302,-0.7306644,-0.7306644,-0.7298986,-0.72913283,-0.7287346,-0.7287346,-0.72833645,-0.72447693,-0.71942294,-0.7163292,-0.7182589,-0.72447693,-0.7264067,-0.72368056,-0.7174932,-0.7109076,-0.71050936,-0.71050936,-0.71130574,-0.71050936,-0.7074157,-0.7027598,-0.6934787,-0.6876589,-0.6849327,-0.68609667,-0.6915183,-0.68842465,-0.6733237,-0.6504426,-0.63108397,-0.6217723,-0.62293625,-0.63108397,-0.6395993,-0.6469507,-0.6520047,-0.65356696,-0.6547003,-0.6597543,-0.6744877,-0.6938463,-0.71283734,-0.7225166,-0.7240788,-0.723313,-0.7202193,-0.71865714,-0.7155634,-0.71130574,-0.70857966,-0.71130574,-0.714767,-0.71516526,-0.714767,-0.71207154,-0.71130574,-0.71789134,-0.715931,-0.67136335,-0.5539559,-0.34974116,-0.081171274,0.18813372,0.39973056,0.5024046,0.4907955,0.39467645,0.23891938,0.042056084,-0.19355524,-0.45630527,-0.6934787,-0.85272765,-0.9035133,-0.8639691,-0.7930591,-0.7388121,-0.71942294,-0.72447693,-0.73725,-0.7461635,-0.74809325,-0.74306977,-0.7357184,-0.72833645,-0.7240788,-0.723313,-0.7198211,-0.71283734,-0.7050878,-0.6965724,-0.69035435,-0.68649495,-0.683003,-0.6787454,-0.67485523,-0.6694336,-0.6613165,-0.6520047,-0.643857,-0.6395993,-0.6372714,-0.6337795,-0.6306858,-0.62253803,-0.61246055,-0.60045326,-0.5868839,-0.5737127,-0.5663613,-0.5632677,-0.55937755,-0.5489325,-0.5311054,-0.51131797,-0.4946549,-0.47995216,-0.4663828,-0.44971967,-0.4314944,-0.4148314,-0.40089434,-0.38848895,-0.37531775,-0.36018622,-0.34548348,-0.3303519,-0.3237663,-0.3264925,-0.33773392,-0.35439694,-0.37106007,-0.38925475,-0.4148314,-0.44971967,-0.4927252,-0.53652704,-0.5760406,-0.6101632,-0.64269304,-0.6810733,-0.71865714,-0.74772567,-0.76708424,-0.775232,-0.7791221,-0.7837473,-0.7914969,-0.79924643,-0.8077924,-0.814378,-0.81590956,-0.81012034,-0.80041045,-0.7914969,-0.7899654,-0.79345727,-0.79771495,-0.79731673,-0.79382485,-0.79073113,-0.7868717,-0.7833798,-0.7810518,-0.7787239,-0.7818176,-0.78454375,-0.7814194,-0.7729041,-0.76049864,-0.75121754,-0.74809325,-0.7500536,-0.75431126,-0.75700676,-0.7566392,-0.755077,-0.7523815,-0.7492572,-0.74732745,-0.74772567,-0.74809325,-0.74809325,-0.7453977,-0.7426716,-0.74306977,-0.7453977,-0.74772567,-0.7488896,-0.74732745,-0.74463195,-0.743468,-0.74306977,-0.743468,-0.7442337,-0.74463195,-0.74383557,-0.74150765,-0.7388121,-0.73804635,-0.74074185,-0.74230397,-0.74230397,-0.7403437,-0.7368824,-0.736086,-0.7368824,-0.73841393,-0.73997605,-0.74114007,-0.74230397,-0.74114007,-0.73997605,-0.73804635,-0.7368824,-0.73804635,-0.73648417,-0.73415625,-0.73106253,-0.72913283,-0.7298986,-0.7302662,-0.7322265,-0.7322265,-0.7306644,-0.72913283,-0.72524273,-0.7202193,-0.71789134,-0.7190553,-0.72524273,-0.7302662,-0.7314302,-0.7287346,-0.7229148,-0.7190553,-0.71709496,-0.7155634,-0.7136031,-0.71207154,-0.7140013,-0.715931,-0.7163292,-0.7132355,-0.70781386,-0.7027598,-0.7000643,-0.6965724,-0.6919165,-0.68649495,-0.6845652,-0.6849327,-0.68609667,-0.6802769,-0.6644102,-0.6415291,-0.62253803,-0.6144209,-0.6194443,-0.63457584,-0.64927864,-0.6566606,-0.6566606,-0.65160656,-0.6477471,-0.65433264,-0.66983175,-0.68882287,-0.704322,-0.7116734,-0.7124697,-0.7097436,-0.70857966,-0.70781386,-0.70818144,-0.7109076,-0.71207154,-0.7109076,-0.70857966,-0.70472014,-0.7050878,-0.70818144,-0.7140013,-0.7213833,-0.7155634,-0.6690661,-0.55279195,-0.35283482,-0.09357667,0.1668148,0.36873233,0.46678102,0.45707107,0.3664043,0.2172023,0.025760412,-0.20053905,-0.44662595,-0.67059755,-0.82794744,-0.8903421,-0.86746097,-0.8050663,-0.7484914,-0.7213833,-0.723313,-0.736086,-0.7453977,-0.7453977,-0.7395779,-0.7345544,-0.7306644,-0.72680485,-0.723313,-0.71789134,-0.71283734,-0.7074157,-0.7008301,-0.6938463,-0.6880264,-0.6834012,-0.6783471,-0.67215973,-0.66401196,-0.6562624,-0.6520047,-0.64891106,-0.64502096,-0.6395993,-0.6314516,-0.62253803,-0.61325693,-0.6039452,-0.5957974,-0.58804786,-0.5818604,-0.5733452,-0.5624713,-0.54969823,-0.5368946,-0.5260514,-0.51364595,-0.4989432,-0.4814837,-0.46445304,-0.45048547,-0.4361503,-0.42104936,-0.40398806,-0.38616103,-0.3706619,-0.3570925,-0.3466475,-0.34006184,-0.3373357,-0.33966368,-0.3431555,-0.3466475,-0.35323304,-0.3675682,-0.39274663,-0.42840075,-0.46947652,-0.5117162,-0.5543541,-0.59619564,-0.6349435,-0.66866785,-0.6958066,-0.71865714,-0.73997605,-0.7589671,-0.7748338,-0.7857077,-0.7922933,-0.79964465,-0.8039023,-0.8062303,-0.8054645,-0.8023708,-0.80080867,-0.79964465,-0.79694915,-0.7926609,-0.7884032,-0.7868717,-0.78647345,-0.7857077,-0.7833798,-0.7794897,-0.77755994,-0.7767942,-0.775232,-0.77174014,-0.7678807,-0.7659203,-0.76438874,-0.7632248,-0.76089686,-0.75780314,-0.7566392,-0.755077,-0.75354546,-0.7508193,-0.7484914,-0.7492572,-0.7508193,-0.75121754,-0.74965537,-0.7465617,-0.7453977,-0.7453977,-0.7465617,-0.7469599,-0.7469599,-0.74732745,-0.7469599,-0.7461635,-0.74463195,-0.74306977,-0.743468,-0.74306977,-0.74230397,-0.74074185,-0.7388121,-0.73917973,-0.7395779,-0.73725,-0.7337581,-0.7295004,-0.72757065,-0.72833645,-0.72913283,-0.7287346,-0.7264067,-0.72524273,-0.72447693,-0.7248446,-0.7248446,-0.72447693,-0.7248446,-0.7240788,-0.7225166,-0.7202193,-0.71789134,-0.71789134,-0.7174932,-0.7136031,-0.7101418,-0.7066499,-0.70781386,-0.71207154,-0.7163292,-0.7167274,-0.71516526,-0.7140013,-0.7124697,-0.7116734,-0.7097436,-0.7070174,-0.7066499,-0.7066499,-0.7074157,-0.7070174,-0.704322,-0.703158,-0.7023922,-0.7023922,-0.70122826,-0.6996661,-0.6985022,-0.69733816,-0.6958066,-0.6934787,-0.6926823,-0.69501024,-0.6977364,-0.6985022,-0.69501024,-0.6899868,-0.6880264,-0.6872607,-0.68842465,-0.68882287,-0.6880264,-0.6872607,-0.6868931,-0.68572915,-0.6845652,-0.68376875,-0.68609667,-0.6872607,-0.6868931,-0.68376875,-0.680675,-0.67990935,-0.6802769,-0.6802769,-0.6779796,-0.6744877,-0.6717615,-0.66866785,-0.6659417,-0.6613165,-0.6566606,-0.6547003,-0.65549666,-0.6570282,-0.6547003,-0.64425516,-0.62526417,-0.6043434,-0.5888443,-0.5845866,-0.5931019,-0.6086011,-0.6213741,-0.6268263,-0.6241002,-0.6198425,-0.6217723,-0.63457584,-0.65586424,-0.6787454,-0.69540846,-0.703158,-0.7023922,-0.69693995,-0.6919165,-0.6895886,-0.69075257,-0.69308054,-0.69501024,-0.6961742,-0.69733816,-0.7000643,-0.7035562,-0.70625174,-0.7093454,-0.71439946,-0.70625174,-0.650075,-0.5156063,-0.29276806,-0.014518857,0.2551843,0.46172702,0.5597758,0.5493002,0.45125127,0.28425288,0.069960475,-0.17922014,-0.4388764,-0.6671057,-0.82329154,-0.87830424,-0.8492358,-0.78221583,-0.7264067,-0.70548594,-0.7124697,-0.7298986,-0.74114007,-0.74306977,-0.73997605,-0.7345544,-0.7279689,-0.72098505,-0.7140013,-0.7093454,-0.70625174,-0.7008301,-0.69308054,-0.68416697,-0.6779796,-0.67485523,-0.6736913,-0.67099583,-0.66633993,-0.6613165,-0.6539345,-0.6454191,-0.63534164,-0.6264281,-0.6202407,-0.61558485,-0.6101632,-0.6012497,-0.5896101,-0.5799308,-0.5713848,-0.5640334,-0.55628383,-0.5458082,-0.5357613,-0.5237234,-0.5093883,-0.4927252,-0.4748981,-0.45863324,-0.44389987,-0.43033046,-0.4159953,-0.40049618,-0.38616103,-0.37142766,-0.35672498,-0.3423592,-0.33114827,-0.3249303,-0.3218366,-0.3222348,-0.32456273,-0.33191413,-0.34701502,-0.36989617,-0.40049618,-0.4357521,-0.47569454,-0.51909816,-0.5624713,-0.6039452,-0.6407633,-0.6736913,-0.7039238,-0.7298986,-0.7515851,-0.7667167,-0.7771617,-0.7868717,-0.7949888,-0.8012068,-0.80430055,-0.8054645,-0.8054645,-0.8039023,-0.8012068,-0.796551,-0.7918951,-0.7895672,-0.78803563,-0.78607523,-0.78258336,-0.7787239,-0.7771617,-0.77599776,-0.7744663,-0.77137256,-0.76708424,-0.763623,-0.7620608,-0.76089686,-0.7593347,-0.7574049,-0.75624096,-0.7554752,-0.75431126,-0.7523815,-0.75042117,-0.74965537,-0.7500536,-0.75042117,-0.74965537,-0.7484914,-0.74809325,-0.74772567,-0.7469599,-0.7457959,-0.7449995,-0.7469599,-0.7488896,-0.7500536,-0.7488896,-0.7469599,-0.7457959,-0.7457959,-0.7453977,-0.743468,-0.74230397,-0.743468,-0.7461635,-0.7484914,-0.7488896,-0.74809325,-0.7484914,-0.7484914,-0.74732745,-0.74383557,-0.7403437,-0.7388121,-0.73917973,-0.7403437,-0.7388121,-0.7353202,-0.7337581,-0.7329923,-0.73339045,-0.73415625,-0.7337581,-0.7345544,-0.73415625,-0.73339045,-0.7314302,-0.7302662,-0.7322265,-0.7345544,-0.7357184,-0.7337581,-0.73106253,-0.7295004,-0.72913283,-0.7287346,-0.7264067,-0.7229148,-0.72098505,-0.7202193,-0.7198211,-0.71865714,-0.71789134,-0.7190553,-0.7202193,-0.7205869,-0.7198211,-0.71865714,-0.71789134,-0.7167274,-0.7155634,-0.71283734,-0.71130574,-0.7116734,-0.71283734,-0.7140013,-0.71283734,-0.71130574,-0.71130574,-0.71130574,-0.7109076,-0.70857966,-0.7050878,-0.704322,-0.704322,-0.70472014,-0.7039238,-0.70199406,-0.70159584,-0.70159584,-0.7027598,-0.7027598,-0.7023922,-0.7027598,-0.704322,-0.70548594,-0.70472014,-0.703158,-0.70159584,-0.7008301,-0.7000643,-0.6981039,-0.6961742,-0.6958066,-0.6965724,-0.6965724,-0.69464266,-0.6926823,-0.6911508,-0.6911508,-0.6915183,-0.69035435,-0.68882287,-0.68882287,-0.6895886,-0.69035435,-0.6899868,-0.6891904,-0.6899868,-0.69075257,-0.69075257,-0.6880264,-0.68376875,-0.67990935,-0.6764174,-0.6733237,-0.6694336,-0.66633993,-0.6651759,-0.6651759,-0.66401196,-0.6566606,-0.6415291,-0.6198425,-0.5977578,-0.5845866,-0.5841884,-0.5957974,-0.61325693,-0.62602997,-0.62992,-0.6264281,-0.62217045,-0.6256623,-0.63999754,-0.6624805,-0.68572915,-0.7027598,-0.71130574,-0.7116734,-0.7074157,-0.70199406,-0.69890034,-0.69890034,-0.7000643,-0.70159584,-0.7008301,-0.7004319,-0.70122826,-0.703158,-0.70585346,-0.7109076,-0.715931,-0.6965724,-0.6151867,-0.4415719,-0.17689216,0.1315589,0.41562784,0.61984265,0.70239234,0.67099583,0.541183,0.33384395,0.07654619,-0.21294445,-0.49388915,-0.72368056,-0.8624376,-0.8938034,-0.8488682,-0.7810518,-0.7353202,-0.7264067,-0.7419058,-0.76049864,-0.76904464,-0.76748246,-0.7620608,-0.7554752,-0.7488896,-0.7419058,-0.73492205,-0.7287346,-0.723313,-0.7174932,-0.7101418,-0.7027598,-0.6977364,-0.69308054,-0.6876589,-0.67990935,-0.67136335,-0.6644102,-0.6585904,-0.6527705,-0.64502096,-0.6357398,-0.6271939,-0.6198425,-0.6128588,-0.604711,-0.59659386,-0.5884461,-0.57953256,-0.5690875,-0.5558857,-0.5415505,-0.5276135,-0.51327837,-0.4989432,-0.4814837,-0.46328908,-0.44506383,-0.42683858,-0.40787816,-0.3877232,-0.36793578,-0.35090506,-0.3350078,-0.32143843,-0.30826718,-0.29742396,-0.29044014,-0.28734642,-0.28811216,-0.29123658,-0.29975188,-0.31601673,-0.3412258,-0.3741538,-0.41250342,-0.4559071,-0.50163865,-0.5477685,-0.5923362,-0.63341194,-0.67136335,-0.7066499,-0.73725,-0.7620608,-0.7802861,-0.7946212,-0.80662847,-0.8163078,-0.8225258,-0.8244555,-0.82405734,-0.8244555,-0.8244555,-0.8236591,-0.8201979,-0.81590956,-0.8120501,-0.8097222,-0.80816,-0.8050663,-0.8012068,-0.79924643,-0.79808253,-0.796551,-0.79382485,-0.7903329,-0.78723925,-0.78454375,-0.78221583,-0.7791221,-0.776396,-0.77563024,-0.77563024,-0.775232,-0.7725059,-0.76941216,-0.7682482,-0.76748246,-0.76748246,-0.7655527,-0.763623,-0.763623,-0.7647563,-0.7659203,-0.7651545,-0.763623,-0.7632248,-0.7632248,-0.763623,-0.76282656,-0.7620608,-0.76282656,-0.7639905,-0.7647563,-0.7639905,-0.7616626,-0.76013106,-0.7589671,-0.7581707,-0.7566392,-0.7558428,-0.7566392,-0.75700676,-0.75624096,-0.75354546,-0.75121754,-0.75121754,-0.7515851,-0.7515851,-0.7492572,-0.7469599,-0.7465617,-0.7469599,-0.7465617,-0.7449995,-0.7426716,-0.7426716,-0.743468,-0.7442337,-0.74230397,-0.73917973,-0.7376481,-0.7388121,-0.7403437,-0.7395779,-0.73841393,-0.73648417,-0.73492205,-0.73415625,-0.7329923,-0.7322265,-0.73259413,-0.7337581,-0.7345544,-0.73339045,-0.73259413,-0.73259413,-0.7337581,-0.7345544,-0.73339045,-0.7314302,-0.7298986,-0.72913283,-0.7287346,-0.72757065,-0.7256409,-0.7248446,-0.72447693,-0.723313,-0.7205869,-0.7182589,-0.7174932,-0.71709496,-0.7174932,-0.715931,-0.7136031,-0.7132355,-0.7136031,-0.7140013,-0.7132355,-0.7116734,-0.71050936,-0.7089778,-0.7074157,-0.7035562,-0.70122826,-0.6996661,-0.69926786,-0.7000643,-0.69926786,-0.6985022,-0.69890034,-0.6996661,-0.69926786,-0.6977364,-0.6965724,-0.69733816,-0.69926786,-0.7004319,-0.69890034,-0.6965724,-0.6958066,-0.6958066,-0.6958066,-0.6942445,-0.69231474,-0.6911508,-0.69035435,-0.68842465,-0.68376875,-0.6768156,-0.67099583,-0.66633993,-0.6632462,-0.6597543,-0.65819216,-0.65742636,-0.65549666,-0.64581734,-0.62526417,-0.5992893,-0.57953256,-0.5733452,-0.5818604,-0.5969614,-0.6101632,-0.6167488,-0.61635065,-0.61325693,-0.61325693,-0.62370205,-0.6473489,-0.6768156,-0.70159584,-0.71283734,-0.71207154,-0.70625174,-0.70122826,-0.6996661,-0.6996661,-0.70122826,-0.7039238,-0.7070174,-0.70857966,-0.70781386,-0.7066499,-0.70781386,-0.7124697,-0.72175086,-0.7202193,-0.6744877,-0.54697216,-0.3175789,-0.0044720173,0.3334458,0.62566245,0.8120502,0.8604773,0.78570783,0.6062732,0.34897554,0.038564086,-0.29469782,-0.59619564,-0.81281585,-0.9085368,-0.8965295,-0.828315,-0.7632248,-0.7314302,-0.73415625,-0.7531473,-0.7705761,-0.7771617,-0.7729041,-0.7647563,-0.75700676,-0.75121754,-0.7457959,-0.73841393,-0.7306644,-0.72368056,-0.7167274,-0.71050936,-0.7027598,-0.6958066,-0.69075257,-0.68649495,-0.68223727,-0.67525345,-0.6671057,-0.6593561,-0.65123904,-0.6434895,-0.6337795,-0.6241002,-0.61635065,-0.60899925,-0.60008574,-0.5892118,-0.5772046,-0.56519735,-0.55355775,-0.5407847,-0.5252856,-0.5090207,-0.49352157,-0.47799182,-0.46096116,-0.44080615,-0.42025298,-0.39973044,-0.38034117,-0.36135012,-0.34006184,-0.31874287,-0.29975188,-0.28308874,-0.26951933,-0.25751215,-0.24936432,-0.2458725,-0.24820042,-0.2563482,-0.26951933,-0.29044014,-0.3210708,-0.36018622,-0.40631598,-0.45514137,-0.5055288,-0.55704963,-0.6062732,-0.65123904,-0.6895886,-0.722149,-0.7508193,-0.77563024,-0.795387,-0.80932397,-0.8194015,-0.8267834,-0.83220506,-0.8352988,-0.8349006,-0.8325727,-0.83064294,-0.8287132,-0.8267834,-0.8228934,-0.8182375,-0.8147456,-0.8120501,-0.8097222,-0.8062303,-0.80273837,-0.80004287,-0.79771495,-0.795387,-0.79073113,-0.7857077,-0.78221583,-0.7810518,-0.7794897,-0.776396,-0.7729041,-0.7705761,-0.7702086,-0.77137256,-0.77137256,-0.7686464,-0.7659203,-0.76282656,-0.76013106,-0.7574049,-0.7558428,-0.7558428,-0.7574049,-0.7593347,-0.7593347,-0.7585689,-0.7585689,-0.76013106,-0.7612951,-0.7616626,-0.7616626,-0.7620608,-0.763623,-0.7647563,-0.76438874,-0.7639905,-0.7639905,-0.76438874,-0.7639905,-0.7616626,-0.7593347,-0.7585689,-0.7593347,-0.76049864,-0.7593347,-0.7574049,-0.7554752,-0.75431126,-0.7531473,-0.7508193,-0.7488896,-0.7484914,-0.7488896,-0.7488896,-0.7469599,-0.74463195,-0.74383557,-0.74463195,-0.7457959,-0.74463195,-0.7419058,-0.7395779,-0.73841393,-0.7376481,-0.73648417,-0.7353202,-0.7357184,-0.73725,-0.73841393,-0.7368824,-0.73492205,-0.7337581,-0.73339045,-0.7329923,-0.73106253,-0.7287346,-0.72757065,-0.72833645,-0.7295004,-0.72757065,-0.7248446,-0.7225166,-0.7225166,-0.72368056,-0.72368056,-0.7225166,-0.72098505,-0.7202193,-0.7202193,-0.7190553,-0.71789134,-0.71709496,-0.71709496,-0.71709496,-0.71516526,-0.71283734,-0.71130574,-0.71050936,-0.7101418,-0.70857966,-0.7074157,-0.7070174,-0.7070174,-0.7074157,-0.70585346,-0.7039238,-0.7027598,-0.7027598,-0.7035562,-0.703158,-0.70199406,-0.7004319,-0.7000643,-0.69890034,-0.6961742,-0.6942445,-0.6938463,-0.69501024,-0.6961742,-0.69464266,-0.6915183,-0.6868931,-0.68223727,-0.6775814,-0.67136335,-0.66557413,-0.6620822,-0.66168404,-0.66168404,-0.65742636,-0.643857,-0.6213741,-0.59659386,-0.578001,-0.57254875,-0.5822587,-0.59812534,-0.612093,-0.61635065,-0.61169475,-0.60667133,-0.610929,-0.62952185,-0.65819216,-0.68649495,-0.7050878,-0.7124697,-0.71130574,-0.7074157,-0.703158,-0.70159584,-0.7023922,-0.70472014,-0.7070174,-0.7074157,-0.7070174,-0.7074157,-0.7093454,-0.7116734,-0.7174932,-0.7256409,-0.714767,-0.6446534,-0.47762424,-0.20210123,0.14396429,0.48690546,0.7558429,0.89343584,0.8926395,0.7725059,0.55319035,0.2613716,-0.079241514,-0.4225809,-0.70857966,-0.8841241,-0.92869174,-0.87830424,-0.79731673,-0.73917973,-0.7229148,-0.7368824,-0.7585689,-0.7705761,-0.77174014,-0.7663185,-0.76013106,-0.75354546,-0.7453977,-0.7376481,-0.7306644,-0.7248446,-0.7198211,-0.7124697,-0.704322,-0.69693995,-0.69035435,-0.68416697,-0.67718315,-0.67136335,-0.6671057,-0.662848,-0.6578246,-0.64851284,-0.63803715,-0.6283579,-0.6190767,-0.60936683,-0.5977578,-0.5868839,-0.5772046,-0.5686893,-0.55977577,-0.54620636,-0.52994144,-0.5117162,-0.49428737,-0.47762424,-0.46056294,-0.44313413,-0.42530704,-0.40631598,-0.38459885,-0.36058438,-0.33693755,-0.31601673,-0.29858786,-0.28269058,-0.26679325,-0.25285625,-0.24394268,-0.24201304,-0.24354452,-0.24666888,-0.253622,-0.2691211,-0.29586172,-0.33460963,-0.37997365,-0.4291665,-0.47995216,-0.5318712,-0.58302444,-0.6302876,-0.6736913,-0.7124697,-0.7461635,-0.7744663,-0.7961528,-0.81281585,-0.82638526,-0.835697,-0.8418844,-0.84304833,-0.8418844,-0.8407204,-0.8407204,