-0.32605976,-0.3151647,-0.30545974,-0.2945341,-0.2800073,-0.26667076,-0.25092316,-0.23029268,-0.21091342,-0.19394511,-0.18060857,-0.16605121,-0.14667201,-0.123630404,-0.10180974,-0.08484149,-0.063020706,-0.036378086,-0.004852414,0.023041487,0.04120004,0.055757284,0.07031453,0.08606219,0.10544145,0.1163671,0.1224097,0.1224097,0.1163671,0.10666227,0.08847308,0.06787324,0.053346276,0.040009856,0.023041487,-0.0036317706,-0.03756827,-0.07757807,-0.117587805,-0.15515614,-0.20120853,-0.24848175,-0.2969756,-0.34910125,-0.4048586,-0.4593951,-0.51152074,-0.55635244,-0.5951415,-0.63393044,-0.675161,-0.7151402,-0.74544513,-0.77089757,-0.7878659,-0.8048341,-0.8193914,-0.8290964,-0.832728,-0.8303171,-0.8303171,-0.82546467,-0.814539,-0.8012024,-0.7890866,-0.7806024,-0.77575,-0.7684866,-0.7563707,-0.74544513,-0.73577076,-0.7296976,-0.7212134,-0.7127293,-0.7030244,-0.698172,-0.69212925,-0.6824244,-0.67394024,-0.6666769,-0.66786706,-0.6715293,-0.67394024,-0.66786706,-0.65938294,-0.65453047,-0.65453047,-0.6557512,-0.6618244,-0.66545606,-0.6703086,-0.6703086,-0.6715293,-0.66908777,-0.66908777,-0.675161,-0.6787927,-0.6787927,-0.675161,-0.6703086,-0.66786706,-0.6703086,-0.6763512,-0.6812036,-0.68605614,-0.69090855,-0.68849754,-0.6800134,-0.6703086,-0.66423535,-0.6666769,-0.6715293,-0.6727195,-0.66545606,-0.6557512,-0.6508988,-0.6484878,-0.64726704,-0.64604634,-0.6448561,-0.6484878,-0.6497085,-0.64604634,-0.63515127,-0.6266671,-0.62788785,-0.63393044,-0.6387829,-0.63274026,-0.6205939,-0.6145512,-0.6121098,-0.6133305,-0.615772,-0.6169622,-0.6205939,-0.6230354,-0.6194037,-0.6121098,-0.6072878,-0.6096988,-0.61091954,-0.6072878,-0.5987731,-0.5939512,-0.5951415,-0.5927305,-0.57817316,-0.5575732,-0.5357524,-0.5272683,-0.5272683,-0.5272683,-0.52485734,-0.52122563,-0.5175634,-0.51030004,-0.49333167,-0.46787924,-0.4399854,-0.41819513,-0.39756465,-0.37940615,-0.3684805,-0.37696463,-0.40849024,-0.45698416,-0.5090793,-0.5503098,-0.57332075,-0.58787805,-0.590289,-0.5866573,-0.5830256,-0.58424634,-0.590289,-0.5963622,-0.60121465,-0.60484636,-0.6133305,-0.62907803,-0.6387829,-0.6387829,-0.6205939,-0.5575732,-0.4315012,-0.2218085,0.052125692,0.33817554,0.5854672,0.7430341,0.8242439,0.86910605,0.8581804,0.74666584,0.48121583,0.08243048,-0.35758537,-0.7127293,-0.89819026,-0.9321268,-0.88607436,-0.80727565,-0.72362435,-0.6484878,-0.5890988,-0.55149996,-0.5381939,-0.5381939,-0.5393841,-0.5369732,-0.52970976,-0.51637316,-0.4994049,-0.48362684,-0.4727317,-0.46302682,-0.45091093,-0.4375744,-0.42182684,-0.41212195,-0.40363777,-0.39271218,-0.37696463,-0.35758537,-0.34302807,-0.32728046,-0.30787075,-0.28971225,-0.2751549,-0.263039,-0.2521134,-0.23758656,-0.21091342,-0.18301952,-0.1624195,-0.14423048,-0.12485123,-0.09939879,-0.070314586,-0.041199982,-0.013336599,0.0133366585,0.038789034,0.0606097,0.08120978,0.09576702,0.10788298,0.1163671,0.117587805,0.10666227,0.09576702,0.08484149,0.07394636,0.063020706,0.042420745,0.01696825,-0.008484185,-0.03393662,-0.06546223,-0.106662154,-0.15393537,-0.2024293,-0.25092316,-0.29819638,-0.35029143,-0.40604877,-0.45698416,-0.50788903,-0.5575732,-0.6072878,-0.6508988,-0.68727684,-0.7151402,-0.7394024,-0.76726586,-0.79515976,-0.814539,-0.8242439,-0.82665485,-0.8278756,-0.8315073,-0.8315073,-0.82546467,-0.8157598,-0.80849636,-0.8048341,-0.80001223,-0.79515976,-0.7890866,-0.7830439,-0.7697073,-0.75515,-0.7381817,-0.7260659,-0.72362435,-0.72243416,-0.716361,-0.70061344,-0.68727684,-0.6812036,-0.6787927,-0.6800134,-0.67757195,-0.67394024,-0.6727195,-0.6715293,-0.6727195,-0.6763512,-0.6812036,-0.68727684,-0.68849754,-0.6824244,-0.67394024,-0.66908777,-0.67394024,-0.6800134,-0.6787927,-0.67394024,-0.66423535,-0.65938294,-0.66545606,-0.6715293,-0.67757195,-0.6812036,-0.6824244,-0.6787927,-0.6727195,-0.66545606,-0.6618244,-0.66545606,-0.6703086,-0.6715293,-0.66545606,-0.65938294,-0.6581927,-0.65697193,-0.6557512,-0.6484878,-0.6412244,-0.6400037,-0.6448561,-0.6484878,-0.6484878,-0.64604634,-0.6436354,-0.6412244,-0.6387829,-0.63515127,-0.6315195,-0.63029873,-0.62788785,-0.6205939,-0.6121098,-0.60606706,-0.61091954,-0.6218146,-0.6266671,-0.6254463,-0.6169622,-0.6121098,-0.6096988,-0.60847807,-0.60243535,-0.59758294,-0.5963622,-0.60121465,-0.5999939,-0.5963622,-0.590289,-0.590289,-0.5927305,-0.5963622,-0.5951415,-0.590289,-0.5890988,-0.59150976,-0.5927305,-0.5866573,-0.57332075,-0.5600146,-0.54667807,-0.5321207,-0.52122563,-0.5139317,-0.51152074,-0.51152074,-0.5066683,-0.49696338,-0.48362684,-0.46787924,-0.45091093,-0.43031102,-0.4048586,-0.38059634,-0.36362803,-0.35999632,-0.3721122,-0.39515364,-0.43516344,-0.48362684,-0.5260475,-0.5551622,-0.5721305,-0.5757622,-0.57939386,-0.5830256,-0.5854671,-0.5866573,-0.590289,-0.5963622,-0.60243535,-0.60484636,-0.60362566,-0.60484636,-0.6133305,-0.6072878,-0.54908895,-0.409711,-0.17816705,0.11151457,0.4048586,0.6497086,0.80968654,0.88970613,0.9187902,0.8824121,0.7394023,0.45091093,0.03756821,-0.4048586,-0.74544513,-0.9103061,-0.92120117,-0.8618122,-0.7878659,-0.7199927,-0.6521195,-0.5854671,-0.5369732,-0.51515245,-0.51515245,-0.52122563,-0.52000487,-0.51030004,-0.4994049,-0.48725855,-0.47395247,-0.46061587,-0.4448378,-0.43516344,-0.4290902,-0.41938537,-0.40241706,-0.38666952,-0.37455368,-0.36362803,-0.3515122,-0.33454388,-0.3151647,-0.29938662,-0.28727072,-0.27152318,-0.25333416,-0.23273414,-0.21695608,-0.19998777,-0.17453533,-0.15152442,-0.12607199,-0.10910362,-0.09454632,-0.072725534,-0.04486215,-0.012115836,0.015747547,0.040009856,0.063020706,0.083651185,0.09939873,0.10910368,0.1151464,0.11999881,0.1224097,0.1212194,0.10303056,0.079989076,0.055757284,0.035157323,0.015747547,-0.009704828,-0.038789034,-0.07150489,-0.1030305,-0.13940853,-0.18424022,-0.23273414,-0.2824183,-0.33332318,-0.38422805,-0.4399854,-0.4945525,-0.5418256,-0.5818049,-0.6169622,-0.65697193,-0.69698167,-0.7272866,-0.7515183,-0.7684866,-0.7830439,-0.793939,-0.8012024,-0.80727565,-0.8109073,-0.814539,-0.8157598,-0.80849636,-0.793939,-0.7806024,-0.77333903,-0.7684866,-0.7612232,-0.74907684,-0.7381817,-0.7296976,-0.7212134,-0.7102878,-0.70061344,-0.69212925,-0.6896878,-0.6896878,-0.6848353,-0.675161,-0.6666769,-0.6666769,-0.6703086,-0.67394024,-0.6727195,-0.66908777,-0.66908777,-0.6715293,-0.6727195,-0.6703086,-0.66545606,-0.66304517,-0.6618244,-0.66304517,-0.66423535,-0.66304517,-0.66304517,-0.6666769,-0.6666769,-0.6666769,-0.6666769,-0.66908777,-0.6727195,-0.675161,-0.6715293,-0.66423535,-0.66060364,-0.6581927,-0.65938294,-0.65938294,-0.65938294,-0.6618244,-0.66423535,-0.66060364,-0.65453047,-0.6497085,-0.6497085,-0.6521195,-0.6497085,-0.6412244,-0.63515127,-0.63515127,-0.6387829,-0.6400037,-0.63515127,-0.6266671,-0.6254463,-0.62907803,-0.6315195,-0.62788785,-0.6205939,-0.6181829,-0.6181829,-0.6181829,-0.6145512,-0.60847807,-0.60484636,-0.60362566,-0.60362566,-0.60243535,-0.60484636,-0.60606706,-0.60606706,-0.5987731,-0.58787805,-0.5806146,-0.5818049,-0.5854671,-0.58787805,-0.5854671,-0.5806146,-0.5818049,-0.5854671,-0.5866573,-0.58424634,-0.57454145,-0.5684988,-0.56968904,-0.56968904,-0.57454145,-0.5757622,-0.5721305,-0.567278,-0.5575732,-0.5539415,-0.5527208,-0.5539415,-0.5575732,-0.5551622,-0.5551622,-0.5587939,-0.56483656,-0.56968904,-0.5636463,-0.55149996,-0.5321207,-0.51637316,-0.5030366,-0.49333167,-0.4860683,-0.47999507,-0.47999507,-0.4812159,-0.47636342,-0.46665853,-0.45091093,-0.4315012,-0.40726954,-0.37818533,-0.34788048,-0.32605976,-0.32483906,-0.33939636,-0.3684805,-0.40604877,-0.45091093,-0.4945525,-0.5260475,-0.5418256,-0.5393841,-0.5321207,-0.5272683,-0.5272683,-0.5309,-0.5393841,-0.54908895,-0.5636463,-0.57332075,-0.57817316,-0.57454145,-0.57090974,-0.56483656,-0.5236366,-0.41819513,-0.23392439,0.014557362,0.28119755,0.4994049,0.6460463,0.726066,0.78060234,0.8157599,0.7697073,0.57576215,0.21576583,-0.23758656,-0.6315195,-0.85695976,-0.9066744,-0.8509171,-0.77089757,-0.70061344,-0.63393044,-0.5660573,-0.5090793,-0.47636342,-0.47151095,-0.47636342,-0.47636342,-0.4691,-0.45698416,-0.4448378,-0.43031102,-0.41697437,-0.4048586,-0.39756465,-0.39515364,-0.39271218,-0.37940615,-0.35999632,-0.34061712,-0.3236488,-0.3151647,-0.30301827,-0.28849143,-0.27152318,-0.25696588,-0.24243903,-0.22666097,-0.21213412,-0.19272435,-0.17453533,-0.15637684,-0.13211459,-0.113925576,-0.09817797,-0.087282956,-0.07150489,-0.046052456,-0.015747607,0.010895014,0.032715797,0.046052456,0.06183052,0.079989076,0.09213531,0.09576702,0.09454632,0.09213531,0.08847308,0.079989076,0.063020706,0.04120004,0.021820664,0.0,-0.019379199,-0.04486215,-0.072725534,-0.096957326,-0.12726218,-0.1624195,-0.20969266,-0.25818658,-0.30301827,-0.34424877,-0.38544875,-0.4315012,-0.47999507,-0.52485734,-0.5624256,-0.5999939,-0.63756216,-0.6727195,-0.6993927,-0.7151402,-0.7260659,-0.7394024,-0.75515,-0.76726586,-0.77089757,-0.7721183,-0.77333903,-0.7697073,-0.76000243,-0.74666584,-0.73455,-0.7309183,-0.7284768,-0.7212134,-0.70546585,-0.68727684,-0.675161,-0.6703086,-0.66908777,-0.66545606,-0.65938294,-0.65697193,-0.65453047,-0.6497085,-0.6436354,-0.63393044,-0.6230354,-0.615772,-0.6121098,-0.615772,-0.6254463,-0.63756216,-0.6387829,-0.63274026,-0.6254463,-0.6205939,-0.6266671,-0.63274026,-0.63756216,-0.6387829,-0.6387829,-0.6412244,-0.6412244,-0.63637197,-0.63274026,-0.62788785,-0.63029873,-0.63637197,-0.6400037,-0.6412244,-0.6412244,-0.6448561,-0.6484878,-0.6497085,-0.6484878,-0.6448561,-0.6448561,-0.6448561,-0.6412244,-0.63515127,-0.62788785,-0.62788785,-0.62907803,-0.63029873,-0.62907803,-0.6266671,-0.62788785,-0.63029873,-0.6266671,-0.6205939,-0.6133305,-0.6145512,-0.6169622,-0.615772,-0.6096988,-0.60243535,-0.5999939,-0.60362566,-0.60847807,-0.6096988,-0.60484636,-0.5987731,-0.5927305,-0.58787805,-0.5854671,-0.5866573,-0.5963622,-0.60121465,-0.5987731,-0.59150976,-0.5830256,-0.57939386,-0.5806146,-0.57939386,-0.57332075,-0.567278,-0.5660573,-0.56968904,-0.57332075,-0.57090974,-0.56968904,-0.57332075,-0.576983,-0.5757622,-0.5624256,-0.54301584,-0.52970976,-0.5224158,-0.52000487,-0.51152074,-0.5018159,-0.49696338,-0.49211097,-0.48725855,-0.47636342,-0.45213175,-0.42545855,-0.39878535,-0.37455368,-0.35877562,-0.35758537,-0.37455368,-0.40363777,-0.4399854,-0.47758418,-0.51152074,-0.5381939,-0.55635244,-0.5636463,-0.56483656,-0.5660573,-0.57090974,-0.5721305,-0.57090974,-0.567278,-0.567278,-0.576983,-0.5890988,-0.5939512,-0.59150976,-0.5830256,-0.5587939,-0.48484755,-0.34665978,-0.14181954,0.10544145,0.33332324,0.4969635,0.6012145,0.66667676,0.7272866,0.7418133,0.6363721,0.36243773,-0.049684107,-0.47636342,-0.78182316,-0.90786463,-0.8884854,-0.8096866,-0.7284768,-0.6618244,-0.60484636,-0.54667807,-0.5030366,-0.47636342,-0.47395247,-0.4812159,-0.4824366,-0.47029024,-0.45332193,-0.43879515,-0.4266793,-0.41453296,-0.39878535,-0.38422805,-0.37574387,-0.36606956,-0.3563646,-0.34424877,-0.33213294,-0.32605976,-0.31635487,-0.29819638,-0.2763756,-0.2557451,-0.24484998,-0.23758656,-0.22425002,-0.20120853,-0.17453533,-0.15271461,-0.13574636,-0.11877811,-0.09939879,-0.076357305,-0.053346336,-0.029084206,-0.0036317706,0.021820664,0.04486215,0.063020706,0.07879877,0.09576702,0.11151457,0.1212194,0.1224097,0.1212194,0.117587805,0.110293865,0.09939873,0.07879877,0.056978106,0.035157323,0.01696825,-0.0024109483,-0.03152567,-0.06424147,-0.09939879,-0.13696706,-0.18060857,-0.23514509,-0.2921232,-0.34788048,-0.3963744,-0.4412061,-0.48725855,-0.5345317,-0.57817316,-0.6181829,-0.6557512,-0.69576097,-0.7296976,-0.752739,-0.7697073,-0.77697074,-0.7890866,-0.80001223,-0.8060549,-0.8060549,-0.8048341,-0.8024231,-0.7987914,-0.79152805,-0.7806024,-0.7721183,-0.7684866,-0.7660756,-0.7563707,-0.7430341,-0.7272866,-0.716361,-0.7115085,-0.70546585,-0.70061344,-0.69454026,-0.68849754,-0.6787927,-0.66786706,-0.65697193,-0.65453047,-0.66060364,-0.66786706,-0.6666769,-0.6581927,-0.6484878,-0.6484878,-0.6557512,-0.6618244,-0.66423535,-0.65697193,-0.6521195,-0.6521195,-0.65453047,-0.6581927,-0.66060364,-0.66423535,-0.6666769,-0.66545606,-0.66423535,-0.66304517,-0.6666769,-0.6703086,-0.6715293,-0.6715293,-0.66908777,-0.6715293,-0.66908777,-0.6666769,-0.66304517,-0.6581927,-0.66060364,-0.6618244,-0.6581927,-0.6521195,-0.6484878,-0.6521195,-0.6581927,-0.65938294,-0.65453047,-0.6508988,-0.6484878,-0.6497085,-0.6497085,-0.6436354,-0.63756216,-0.63515127,-0.63393044,-0.63029873,-0.62425613,-0.6194037,-0.6218146,-0.6266671,-0.62788785,-0.6218146,-0.6133305,-0.6072878,-0.61091954,-0.6145512,-0.6145512,-0.6096988,-0.60243535,-0.59758294,-0.5963622,-0.59758294,-0.5987731,-0.60121465,-0.5999939,-0.5951415,-0.59150976,-0.590289,-0.5939512,-0.5963622,-0.5963622,-0.5890988,-0.57939386,-0.57454145,-0.57817316,-0.5854671,-0.59150976,-0.5939512,-0.58787805,-0.57332075,-0.5551622,-0.5369732,-0.5260475,-0.52485734,-0.52485734,-0.52122563,-0.51637316,-0.5066683,-0.49818414,-0.48484755,-0.46061587,-0.43031102,-0.40241706,-0.3830378,-0.3697012,-0.36725974,-0.37333292,-0.38908052,-0.41938537,-0.45454264,-0.49211097,-0.5236366,-0.54908895,-0.56968904,-0.57939386,-0.5818049,-0.5830256,-0.58424634,-0.5890988,-0.5927305,-0.5999939,-0.60484636,-0.6121098,-0.6205939,-0.6230354,-0.6194037,-0.5987731,-0.52848905,-0.39271218,-0.17334515,0.10544145,0.38789022,0.62303543,0.7697073,0.8484756,0.89211714,0.87392807,0.7430341,0.4533218,0.032715797,-0.40849024,-0.7381817,-0.89574873,-0.9090854,-0.8557695,-0.77819145,-0.7030244,-0.63515127,-0.5806146,-0.54545736,-0.5272683,-0.5236366,-0.5236366,-0.5272683,-0.5224158,-0.5090793,-0.48725855,-0.4654683,-0.45213175,-0.4448378,-0.43516344,-0.42060608,-0.40726954,-0.39756465,-0.39030123,-0.37696463,-0.36121708,-0.34061712,-0.32483906,-0.31272316,-0.29938662,-0.283639,-0.26789147,-0.2521134,-0.23758656,-0.21817678,-0.19879758,-0.17938781,-0.1624195,-0.14181954,-0.11999875,-0.089693904,-0.0606097,-0.035157263,-0.014557362,0.007263422,0.030304909,0.052125692,0.06909394,0.08484149,0.096957326,0.10666227,0.110293865,0.10303056,0.089693904,0.076357245,0.06546223,0.053346276,0.032715797,0.004852414,-0.026673198,-0.056978106,-0.087282956,-0.12240976,-0.16000855,-0.19998777,-0.24243903,-0.29090244,-0.34665978,-0.40241706,-0.45332193,-0.49818414,-0.5381939,-0.5806146,-0.6254463,-0.66786706,-0.70546585,-0.73577076,-0.7612232,-0.78545487,-0.80364394,-0.8157598,-0.8242439,-0.8315073,-0.83635974,-0.8375805,-0.8315073,-0.82183295,-0.8133183,-0.8048341,-0.7975707,-0.7878659,-0.77455974,-0.7660756,-0.75392926,-0.74544513,-0.736961,-0.7284768,-0.72243416,-0.7151402,-0.7066561,-0.698172,-0.68849754,-0.6836451,-0.6787927,-0.6715293,-0.66545606,-0.66423535,-0.6666769,-0.6715293,-0.6703086,-0.66786706,-0.66786706,-0.6703086,-0.6703086,-0.66908777,-0.6666769,-0.66786706,-0.675161,-0.6836451,-0.6848353,-0.6787927,-0.6715293,-0.6666769,-0.6666769,-0.6666769,-0.6666769,-0.66423535,-0.6666769,-0.66908777,-0.6727195,-0.675161,-0.6715293,-0.66786706,-0.6666769,-0.66304517,-0.6581927,-0.6557512,-0.65697193,-0.66060364,-0.6618244,-0.65938294,-0.6521195,-0.6497085,-0.6484878,-0.64604634,-0.6448561,-0.6436354,-0.64604634,-0.64604634,-0.6424146,-0.63515127,-0.62788785,-0.62788785,-0.62907803,-0.62907803,-0.62788785,-0.6254463,-0.6266671,-0.62425613,-0.6181829,-0.60847807,-0.60484636,-0.6096988,-0.6145512,-0.6181829,-0.6145512,-0.6096988,-0.60847807,-0.61091954,-0.6096988,-0.60484636,-0.60362566,-0.6072878,-0.6072878,-0.5999939,-0.58787805,-0.5806146,-0.5830256,-0.590289,-0.5951415,-0.59150976,-0.5854671,-0.5890988,-0.5951415,-0.5999939,-0.5987731,-0.59150976,-0.5866573,-0.5830256,-0.5721305,-0.5539415,-0.5369732,-0.5272683,-0.5236366,-0.52485734,-0.52000487,-0.51030004,-0.5066683,-0.5018159,-0.49574268,-0.48484755,-0.4654683,-0.44364756,-0.41575366,-0.38544875,-0.35999632,-0.34665978,-0.35999632,-0.38544875,-0.41819513,-0.45576346,-0.49211097,-0.5272683,-0.5551622,-0.5721305,-0.5757622,-0.57332075,-0.5757622,-0.57939386,-0.5818049,-0.5830256,-0.58424634,-0.5927305,-0.60243535,-0.6072878,-0.60847807,-0.60606706,-0.5866573,-0.5139317,-0.36121708,-0.123630404,0.16968298,0.45454264,0.6800134,0.81939137,0.89211714,0.9163488,0.86666477,0.69331944,0.37333298,-0.056978106,-0.4860683,-0.7975707,-0.9321268,-0.9309061,-0.8654439,-0.7806024,-0.698172,-0.62425613,-0.5587939,-0.52122563,-0.51152074,-0.52122563,-0.52848905,-0.52485734,-0.50788903,-0.48725855,-0.4727317,-0.46424758,-0.45698416,-0.4460585,-0.43272197,-0.42182684,-0.4133427,-0.40000612,-0.38666952,-0.37455368,-0.36606956,-0.35877562,-0.34424877,-0.31879634,-0.2921232,-0.2739342,-0.26059753,-0.25333416,-0.2387768,-0.21817678,-0.19998777,-0.17816705,-0.15152442,-0.123630404,-0.09454632,-0.072725534,-0.053346336,-0.03393662,-0.008484185,0.020599961,0.043641448,0.063020706,0.07757807,0.08847308,0.096957326,0.10180974,0.104251266,0.10544145,0.10180974,0.093325615,0.072725534,0.048493862,0.026673198,0.007263422,-0.014557362,-0.046052456,-0.08243048,-0.12485123,-0.16486096,-0.206061,-0.25333416,-0.30060732,-0.34910125,-0.39393294,-0.4399854,-0.48970002,-0.5369732,-0.57939386,-0.6169622,-0.6508988,-0.6933195,-0.7321085,-0.76363415,-0.78667563,-0.80001223,-0.8133183,-0.82183295,-0.82302314,-0.82183295,-0.8206122,-0.82302314,-0.8181707,-0.80727565,-0.78545487,-0.7684866,-0.76363415,-0.76363415,-0.7612232,-0.752739,-0.7381817,-0.7260659,-0.71395004,-0.70061344,-0.69212925,-0.6848353,-0.6848353,-0.68605614,-0.6836451,-0.6800134,-0.675161,-0.6715293,-0.6703086,-0.6666769,-0.66304517,-0.66060364,-0.66423535,-0.66786706,-0.6715293,-0.67394024,-0.6763512,-0.6800134,-0.6787927,-0.6727195,-0.66545606,-0.66304517,-0.66908777,-0.6763512,-0.67757195,-0.6727195,-0.6666769,-0.66545606,-0.6666769,-0.66545606,-0.66545606,-0.6666769,-0.6727195,-0.67757195,-0.6763512,-0.66908777,-0.6618244,-0.6581927,-0.65938294,-0.65938294,-0.65697193,-0.65453047,-0.65697193,-0.66060364,-0.65938294,-0.65697193,-0.6497085,-0.6424146,-0.63637197,-0.63029873,-0.6254463,-0.62425613,-0.6266671,-0.62788785,-0.6230354,-0.6145512,-0.61091954,-0.615772,-0.6254463,-0.62907803,-0.6254463,-0.6205939,-0.6181829,-0.6169622,-0.6145512,-0.60847807,-0.60121465,-0.5999939,-0.5999939,-0.5951415,-0.5890988,-0.5854671,-0.5866573,-0.5927305,-0.59150976,-0.58424634,-0.57817316,-0.57939386,-0.5830256,-0.58787805,-0.5854671,-0.5830256,-0.5830256,-0.5830256,-0.58424634,-0.5818049,-0.576983,-0.57817316,-0.57817316,-0.57332075,-0.5660573,-0.5587939,-0.5600146,-0.5587939,-0.54908895,-0.53334147,-0.5139317,-0.5030366,-0.5005951,-0.49696338,-0.4945525,-0.48847926,-0.48725855,-0.48484755,-0.47395247,-0.44850004,-0.41819513,-0.38422805,-0.35395366,-0.3381756,-0.33695483,-0.3563646,-0.39878535,-0.45091093,-0.4994049,-0.5345317,-0.55635244,-0.56483656,-0.57090974,-0.56968904,-0.56483656,-0.5624256,-0.5612049,-0.5624256,-0.5684988,-0.57454145,-0.5818049,-0.5854671,-0.58424634,-0.576983,-0.5503098,-0.4691,-0.3284707,-0.11273539,0.15271461,0.4048586,0.5878781,0.69454014,0.74788666,0.7890867,0.7781913,0.6460463,0.34061706,-0.09817797,-0.5309,-0.82183295,-0.9284951,-0.9054537,-0.8339488,-0.75392926,-0.6800134,-0.6072878,-0.54545736,-0.5042573,-0.48725855,-0.4812159,-0.47877437,-0.47877437,-0.4727317,-0.4593951,-0.4399854,-0.42301708,-0.41697437,-0.41212195,-0.4048586,-0.39030123,-0.37333292,-0.35999632,-0.35029143,-0.34061712,-0.32605976,-0.30545974,-0.2933439,-0.2800073,-0.26667076,-0.2521134,-0.23636585,-0.2218085,-0.20728171,-0.18546098,-0.1624195,-0.13696706,-0.117587805,-0.09939879,-0.07879877,-0.059389055,-0.040009797,-0.021820664,-0.0024109483,0.023041487,0.049684048,0.07150483,0.08243048,0.090914726,0.104251266,0.1151464,0.1212194,0.117587805,0.10544145,0.090914726,0.07757807,0.059388995,0.0278939,-0.0012207627,-0.03393662,-0.0606097,-0.08484149,-0.117587805,-0.15271461,-0.18787193,-0.22788173,-0.27152318,-0.3236488,-0.37818533,-0.4290902,-0.47395247,-0.51637316,-0.55635244,-0.5951415,-0.6315195,-0.66423535,-0.69576097,-0.7248451,-0.74907684,-0.7612232,-0.76726586,-0.77455974,-0.78182316,-0.7903073,-0.79152805,-0.78545487,-0.7793817,-0.77333903,-0.7684866,-0.7612232,-0.75029755,-0.736961,-0.7272866,-0.7151402,-0.7018037,-0.69090855,-0.6824244,-0.6812036,-0.6812036,-0.67394024,-0.66304517,-0.6521195,-0.6484878,-0.6521195,-0.65453047,-0.65453047,-0.6484878,-0.6436354,-0.6424146,-0.6436354,-0.64726704,-0.6484878,-0.6521195,-0.6497085,-0.6412244,-0.6315195,-0.63029873,-0.63515127,-0.6436354,-0.64604634,-0.6448561,-0.6412244,-0.64604634,-0.6484878,-0.6497085,-0.6521195,-0.6521195,-0.65453047,-0.65453047,-0.64726704,-0.63756216,-0.6315195,-0.63274026,-0.63756216,-0.6412244,-0.6412244,-0.63515127,-0.62907803,-0.6266671,-0.6254463,-0.62788785,-0.63274026,-0.63637197,-0.63756216,-0.63393044,-0.62425613,-0.6181829,-0.6181829,-0.6205939,-0.6218146,-0.615772,-0.60606706,-0.5999939,-0.5987731,-0.5987731,-0.5987731,-0.5987731,-0.5999939,-0.60243535,-0.60362566,-0.5999939,-0.5951415,-0.5927305,-0.5927305,-0.5939512,-0.59150976,-0.58787805,-0.5854671,-0.5854671,-0.5854671,-0.5818049,-0.5806146,-0.57939386,-0.57939386,-0.57939386,-0.576983,-0.5806146,-0.5830256,-0.57939386,-0.56483656,-0.5418256,-0.5236366,-0.51515245,-0.5175634,-0.51878417,-0.51274145,-0.50788903,-0.5042573,-0.49818414,-0.48484755,-0.46302682,-0.4375744,-0.41575366,-0.39152193,-0.3697012,-0.3551439,-0.35999632,-0.38908052,-0.43635368,-0.4824366,-0.51274145,-0.5357524,-0.5539415,-0.567278,-0.576983,-0.576983,-0.57090974,-0.57332075,-0.57939386,-0.5854671,-0.58787805,-0.59150976,-0.59758294,-0.59758294,-0.59150976,-0.57817316,-0.5345317,-0.4424268,-0.2933439,-0.07879877,0.16605127,0.37574387,0.51515234,0.59636223,0.6533402,0.7090976,0.706656,0.5563524,0.23392439,-0.206061,-0.6121098,-0.86303294,-0.9381695,-0.89455855,-0.8133183,-0.73577076,-0.66423535,-0.60243535,-0.54786825,-0.5066683,-0.4860683,-0.4824366,-0.49092072,-0.49818414,-0.49333167,-0.47514266,-0.45213175,-0.43394268,-0.42182684,-0.41575366,-0.40849024,-0.40000612,-0.39030123,-0.37574387,-0.3551439,-0.33695483,-0.3236488,-0.31635487,-0.30909145,-0.29819638,-0.2800073,-0.25818658,-0.23758656,-0.2157659,-0.19394511,-0.17212445,-0.15756702,-0.14789265,-0.13574636,-0.1163671,-0.09213537,-0.063020706,-0.038789034,-0.015747607,0.012115836,0.04486215,0.07150483,0.08847308,0.09576702,0.09817803,0.104251266,0.10666227,0.09939873,0.090914726,0.083651185,0.07879877,0.072725534,0.05453658,0.0278939,-0.0024109483,-0.03152567,-0.0606097,-0.09576714,-0.13333535,-0.17212445,-0.21817678,-0.27030247,-0.33091217,-0.38908052,-0.43879515,-0.47999507,-0.5224158,-0.56968904,-0.6145512,-0.65697193,-0.6896878,-0.7199927,-0.752739,-0.78423417,-0.8060549,-0.8181707,-0.8206122,-0.82302314,-0.82665485,-0.8278756,-0.8278756,-0.82546467,-0.82302314,-0.8133183,-0.7975707,-0.7793817,-0.7660756,-0.7612232,-0.76000243,-0.75392926,-0.7418134,-0.7272866,-0.71758175,-0.70909756,-0.6993927,-0.68849754,-0.68605614,-0.68727684,-0.69090855,-0.6896878,-0.6824244,-0.67394024,-0.6715293,-0.6703086,-0.6703086,-0.6666769,-0.66304517,-0.66545606,-0.66786706,-0.6666769,-0.66060364,-0.65697193,-0.66060364,-0.66786706,-0.6763512,-0.6787927,-0.675161,-0.6715293,-0.6715293,-0.6715293,-0.66908777,-0.6666769,-0.66786706,-0.6666769,-0.66423535,-0.66060364,-0.65938294,-0.66304517,-0.66786706,-0.66423535,-0.6557512,-0.6497085,-0.6521195,-0.6581927,-0.6618244,-0.6581927,-0.64726704,-0.6448561,-0.6448561,-0.6436354,-0.63756216,-0.63029873,-0.6315195,-0.63393044,-0.63515127,-0.63274026,-0.62788785,-0.62425613,-0.6230354,-0.6230354,-0.6205939,-0.6169622,-0.6194037,-0.6205939,-0.6169622,-0.61091954,-0.60606706,-0.60484636,-0.60243535,-0.60121465,-0.59758294,-0.5963622,-0.59758294,-0.5987731,-0.60121465,-0.59758294,-0.5939512,-0.5927305,-0.5890988,-0.5830256,-0.5757622,-0.57332075,-0.57939386,-0.5890988,-0.5939512,-0.5866573,-0.5757622,-0.5636463,-0.54908895,-0.5357524,-0.51878417,-0.50788903,-0.51030004,-0.51515245,-0.51515245,-0.5066683,-0.4945525,-0.48484755,-0.4727317,-0.45213175,-0.42301708,-0.39271218,-0.36606956,-0.34910125,-0.3418073,-0.34910125,-0.3721122,-0.4133427,-0.4654683,-0.51030004,-0.5393841,-0.5587939,-0.56968904,-0.5757622,-0.57817316,-0.57454145,-0.57090974,-0.57332075,-0.5818049,-0.59150976,-0.5999939,-0.60484636,-0.60847807,-0.6121098,-0.60847807,-0.5684988,-0.4593951,-0.26908165,-0.0024109483,0.2921232,0.5575732,0.7381818,0.832728,0.8824121,0.8872646,0.80727553,0.5842464,0.20728171,-0.24362922,-0.63393044,-0.86425364,-0.9272744,-0.8933378,-0.8157598,-0.7321085,-0.6521195,-0.5830256,-0.5406048,-0.5236366,-0.5236366,-0.5260475,-0.5224158,-0.51637316,-0.5066683,-0.49211097,-0.47395247,-0.45698416,-0.4448378,-0.43516344,-0.4266793,-0.41453296,-0.40122682,-0.39271218,-0.38059634,-0.36243784,-0.34302807,-0.32728046,-0.31757563,-0.31272316,-0.29938662,-0.27756584,-0.25455487,-0.23636585,-0.22425002,-0.20969266,-0.1890927,-0.1624195,-0.13696706,-0.113925576,-0.089693904,-0.063020706,-0.035157263,-0.012115836,0.008484125,0.029084206,0.052125692,0.07513654,0.09454632,0.10788298,0.117587805,0.123630404,0.1224097,0.11273539,0.096957326,0.07879877,0.063020706,0.046052456,0.021820664,-0.0036317706,-0.032715857,-0.063020706,-0.09454632,-0.13574636,-0.18301952,-0.23029268,-0.2800073,-0.32728046,-0.37818533,-0.4315012,-0.48362684,-0.52970976,-0.5721305,-0.6145512,-0.6533402,-0.69212925,-0.7248451,-0.7515183,-0.77455974,-0.79515976,-0.8096866,-0.8193914,-0.82302314,-0.82665485,-0.82546467,-0.82183295,-0.814539,-0.8060549,-0.8012024,-0.79515976,-0.78667563,-0.77575,-0.7624134,-0.7515183,-0.74059266,-0.7260659,-0.7115085,-0.70061344,-0.698172,-0.69454026,-0.69090855,-0.6812036,-0.6703086,-0.66908777,-0.66908777,-0.66908777,-0.6666769,-0.6618244,-0.66423535,-0.66786706,-0.6715293,-0.6727195,-0.6715293,-0.66908777,-0.66545606,-0.66060364,-0.65697193,-0.65938294,-0.66908777,-0.67757195,-0.67757195,-0.6727195,-0.6666769,-0.6666769,-0.66908777,-0.6727195,-0.6727195,-0.6703086,-0.6703086,-0.675161,-0.6800134,-0.6824244,-0.6824244,-0.6800134,-0.675161,-0.6715293,-0.66786706,-0.66304517,-0.66060364,-0.6581927,-0.6521195,-0.6484878,-0.64604634,-0.64726704,-0.64726704,-0.6436354,-0.6387829,-0.63637197,-0.6400037,-0.64604634,-0.64604634,-0.6412244,-0.63393044,-0.63274026,-0.63274026,-0.6315195,-0.6254463,-0.6205939,-0.6194037,-0.6181829,-0.6169622,-0.615772,-0.6169622,-0.6194037,-0.6205939,-0.6133305,-0.60243535,-0.59150976,-0.5939512,-0.60121465,-0.6096988,-0.6072878,-0.5987731,-0.5927305,-0.590289,-0.590289,-0.5890988,-0.5890988,-0.590289,-0.590289,-0.5890988,-0.5854671,-0.57939386,-0.57939386,-0.5806146,-0.5818049,-0.57939386,-0.57939386,-0.57817316,-0.57090974,-0.55635244,-0.5357524,-0.51878417,-0.51030004,-0.5066683,-0.5054475,-0.4994049,-0.49333167,-0.49092072,-0.4824366,-0.46302682,-0.43394268,-0.40241706,-0.37574387,-0.3551439,-0.34546953,-0.34910125,-0.36725974,-0.40363777,-0.45213175,-0.49574268,-0.52970976,-0.5551622,-0.57090974,-0.57817316,-0.5757622,-0.5684988,-0.5636463,-0.56968904,-0.5830256,-0.5963622,-0.60243535,-0.60606706,-0.6096988,-0.6133305,-0.6133305,-0.57939386,-0.47999507,-0.30301827,-0.046052456,0.24848175,0.5333415,0.74788666,0.87029624,0.9296855,0.9393903,0.86544394,0.6557511,0.2921232,-0.16486096,-0.5806146,-0.8460646,-0.9333476,-0.9103061,-0.84121215,-0.7587817,-0.6800134,-0.60847807,-0.55635244,-0.5272683,-0.52000487,-0.52122563,-0.52000487,-0.51515245,-0.5030366,-0.48362684,-0.46665853,-0.45213175,-0.44850004,-0.4460585,-0.4375744,-0.42301708,-0.40363777,-0.39030123,-0.37940615,-0.36606956,-0.35029143,-0.33454388,-0.3236488,-0.31394392,-0.30060732,-0.2787866,-0.2557451,-0.2387768,-0.22425002,-0.20847195,-0.18424022,-0.15637684,-0.13333535,-0.11273539,-0.09454632,-0.06909388,-0.041199982,-0.014557362,0.012115836,0.036378026,0.0606097,0.08484149,0.10303056,0.11877811,0.12726212,0.13211465,0.13089395,0.1212194,0.10666227,0.093325615,0.079989076,0.063020706,0.040009856,0.010895014,-0.015747607,-0.043641448,-0.07394636,-0.11151457,-0.15515614,-0.19998777,-0.24848175,-0.29819638,-0.3527329,-0.40726954,-0.45698416,-0.5030366,-0.55149996,-0.60362566,-0.6508988,-0.68605614,-0.71395004,-0.7394024,-0.7684866,-0.7975707,-0.8193914,-0.8315073,-0.8375805,-0.84484386,-0.8496964,-0.8472854,-0.8388012,-0.82302314,-0.80849636,-0.7927183,-0.77819145,-0.76726586,-0.7612232,-0.7612232,-0.7587817,-0.74666584,-0.7284768,-0.7127293,-0.7066561,-0.7066561,-0.70546585,-0.70061344,-0.6933195,-0.69090855,-0.68727684,-0.6836451,-0.675161,-0.66908777,-0.6703086,-0.67394024,-0.6787927,-0.6800134,-0.6787927,-0.6824244,-0.68605614,-0.69090855,-0.69090855,-0.69212925,-0.69212925,-0.68727684,-0.6800134,-0.66908777,-0.66423535,-0.6703086,-0.675161,-0.6787927,-0.67757195,-0.6727195,-0.67394024,-0.67757195,-0.6787927,-0.6787927,-0.67757195,-0.6787927,-0.6800134,-0.6824244,-0.6763512,-0.66908777,-0.66423535,-0.65938294,-0.66060364,-0.66304517,-0.6666769,-0.6727195,-0.6727195,-0.6666769,-0.65697193,-0.6484878,-0.64726704,-0.6448561,-0.6436354,-0.6400037,-0.6387829,-0.6436354,-0.64604634,-0.64604634,-0.6400037,-0.63515127,-0.63393044,-0.63637197,-0.63756216,-0.63515127,-0.63274026,-0.63274026,-0.63029873,-0.6254463,-0.6181829,-0.6133305,-0.615772,-0.6194037,-0.6194037,-0.6181829,-0.6145512,-0.6133305,-0.6145512,-0.61091954,-0.60484636,-0.59758294,-0.5987731,-0.60362566,-0.6072878,-0.60847807,-0.6072878,-0.6072878,-0.60606706,-0.5999939,-0.5927305,-0.5866573,-0.5866573,-0.5890988,-0.58787805,-0.5818049,-0.576983,-0.576983,-0.57332075,-0.5636463,-0.54908895,-0.53334147,-0.52485734,-0.5236366,-0.52122563,-0.51637316,-0.51030004,-0.5066683,-0.4994049,-0.4824366,-0.45576346,-0.4266793,-0.3963744,-0.37092197,-0.3527329,-0.34546953,-0.35999632,-0.39515364,-0.44727927,-0.49818414,-0.5369732,-0.5624256,-0.5757622,-0.5806146,-0.57939386,-0.576983,-0.576983,-0.5818049,-0.5866573,-0.5890988,-0.590289,-0.5951415,-0.60484636,-0.6133305,-0.6205939,-0.60606706,-0.5357524,-0.39878535,-0.18182927,0.09817803,0.3842281,0.6181829,0.7697073,0.8484756,0.8908963,0.8763696,0.75151837,0.4654683,0.03756821,-0.42182684,-0.76726586,-0.9333476,-0.9466536,-0.8824122,-0.8012024,-0.7248451,-0.6497085,-0.58787805,-0.5418256,-0.51637316,-0.5090793,-0.51030004,-0.51152074,-0.5066683,-0.49211097,-0.4727317,-0.4581744,-0.44850004,-0.43879515,-0.42545855,-0.40849024,-0.39515364,-0.38789028,-0.38181704,-0.3684805,-0.3515122,-0.33091217,-0.31635487,-0.30301827,-0.28971225,-0.2739342,-0.25696588,-0.24484998,-0.23151344,-0.21091342,-0.18546098,-0.16000855,-0.14059877,-0.123630404,-0.10544151,-0.079989076,-0.052125633,-0.03030485,-0.007263422,0.019379258,0.048493862,0.072725534,0.08606219,0.09213531,0.096957326,0.10303056,0.10788298,0.104251266,0.096957326,0.089693904,0.08484149,0.07150483,0.046052456,0.0133366585,-0.018189013,-0.0472731,-0.076357305,-0.11273539,-0.15637684,-0.2024293,-0.24726093,-0.29090244,-0.34061712,-0.39271218,-0.4412061,-0.48847926,-0.5345317,-0.5806146,-0.6218146,-0.6533402,-0.6824244,-0.7115085,-0.74907684,-0.78545487,-0.8109073,-0.8206122,-0.8193914,-0.8206122,-0.82302314,-0.8278756,-0.8303171,-0.8242439,-0.8193914,-0.80849636,-0.793939,-0.7793817,-0.76726586,-0.7624134,-0.75756097,-0.74666584,-0.7296976,-0.7115085,-0.7018037,-0.6993927,-0.69576097,-0.68727684,-0.6800134,-0.6763512,-0.67757195,-0.67757195,-0.6727195,-0.66908777,-0.66908777,-0.6715293,-0.6727195,-0.66786706,-0.6618244,-0.66060364,-0.66304517,-0.66304517,-0.66060364,-0.6581927,-0.66060364,-0.66545606,-0.6666769,-0.66304517,-0.66060364,-0.6618244,-0.6666769,-0.6715293,-0.6703086,-0.6666769,-0.66545606,-0.66423535,-0.66423535,-0.66060364,-0.65697193,-0.6557512,-0.65697193,-0.65697193,-0.6533402,-0.6533402,-0.65697193,-0.66304517,-0.66545606,-0.65938294,-0.6521195,-0.6484878,-0.64604634,-0.6448561,-0.6412244,-0.63637197,-0.63637197,-0.63756216,-0.63515127,-0.63029873,-0.6266671,-0.62425613,-0.6218146,-0.6169622,-0.615772,-0.6145512,-0.6169622,-0.6205939,-0.6181829,-0.60847807,-0.60484636,-0.6072878,-0.60847807,-0.6072878,-0.5999939,-0.5939512,-0.59150976,-0.5939512,-0.5951415,-0.5963622,-0.5951415,-0.59758294,-0.5963622,-0.59150976,-0.5854671,-0.57817316,-0.57939386,-0.58424634,-0.5854671,-0.5866573,-0.5854671,-0.5866573,-0.5818049,-0.57454145,-0.5624256,-0.5503098,-0.54423654,-0.5381939,-0.5357524,-0.52970976,-0.52122563,-0.5139317,-0.5054475,-0.49696338,-0.48847926,-0.47999507,-0.47029024,-0.45091093,-0.4242378,-0.39030123,-0.36243784,-0.3515122,-0.36121708,-0.38181704,-0.409711,-0.44969022,-0.4860683,-0.52122563,-0.54667807,-0.55149996,-0.5503098,-0.5539415,-0.5612049,-0.567278,-0.57454145,-0.576983,-0.5854671,-0.59150976,-0.5939512,-0.5866573,-0.57939386,-0.576983,-0.5612049,-0.5005951,-0.37696463,-0.18668169,0.04727316,0.27878654,0.45213163,0.5636463,0.626667,0.6824244,0.7163609,0.6545304,0.42667925,0.031525612,-0.41575366,-0.7624134,-0.92605364,-0.922422,-0.84362316,-0.76000243,-0.68605614,-0.6230354,-0.5636463,-0.52000487,-0.4994049,-0.49092072,-0.48484755,-0.47636342,-0.4654683,-0.45698416,-0.44850004,-0.4375744,-0.4242378,-0.40849024,-0.40000612,-0.39152193,-0.38059634,-0.3684805,-0.3551439,-0.34546953,-0.33695483,-0.32120734,-0.29938662,-0.2763756,-0.26059753,-0.24726093,-0.23514509,-0.21817678,-0.19516587,-0.1757561,-0.1611988,-0.14789265,-0.1297037,-0.10788292,-0.08606213,-0.063020706,-0.03756827,-0.009704828,0.01696825,0.04120004,0.0606097,0.07757807,0.093325615,0.10666227,0.113925576,0.117587805,0.11999881,0.123630404,0.1224097,0.11151457,0.093325615,0.07031453,0.046052456,0.020599961,-0.009704828,-0.040009797,-0.070314586,-0.10180974,-0.14059877,-0.18546098,-0.23392439,-0.283639,-0.33213294,-0.3830378,-0.4399854,-0.49818414,-0.54545736,-0.5854671,-0.6194037,-0.6581927,-0.6993927,-0.73577076,-0.7660756,-0.78423417,-0.7987914,-0.80849636,-0.8169805,-0.82302314,-0.82665485,-0.8278756,-0.82302314,-0.8157598,-0.8048341,-0.79515976,-0.7878659,-0.7793817,-0.7660756,-0.7515183,-0.7418134,-0.73577076,-0.73455,-0.7284768,-0.7151402,-0.7018037,-0.69454026,-0.69090855,-0.68605614,-0.6763512,-0.66786706,-0.66423535,-0.66423535,-0.66423535,-0.66304517,-0.65938294,-0.66304517,-0.66545606,-0.66545606,-0.65938294,-0.65453047,-0.65697193,-0.6618244,-0.66786706,-0.675161,-0.6812036,-0.6836451,-0.6848353,-0.6812036,-0.67757195,-0.6763512,-0.6800134,-0.6824244,-0.6812036,-0.67757195,-0.6763512,-0.6787927,-0.6812036,-0.6812036,-0.6800134,-0.67757195,-0.6800134,-0.6800134,-0.6763512,-0.6703086,-0.66545606,-0.66786706,-0.6703086,-0.6727195,-0.6703086,-0.66304517,-0.65697193,-0.6521195,-0.64726704,-0.6436354,-0.6424146,-0.64604634,-0.6497085,-0.6508988,-0.64726704,-0.6387829,-0.63393044,-0.6315195,-0.62788785,-0.62788785,-0.62788785,-0.6315195,-0.63393044,-0.63274026,-0.6266671,-0.6169622,-0.6145512,-0.6133305,-0.6133305,-0.6133305,-0.6133305,-0.6145512,-0.615772,-0.6121098,-0.6072878,-0.60362566,-0.60362566,-0.60362566,-0.60243535,-0.59758294,-0.5939512,-0.5963622,-0.59758294,-0.59758294,-0.5927305,-0.590289,-0.58787805,-0.5818049,-0.5721305,-0.55635244,-0.5381939,-0.52848905,-0.5224158,-0.5175634,-0.51152074,-0.50788903,-0.5030366,-0.49696338,-0.48362684,-0.46061587,-0.43031102,-0.40122682,-0.37455368,-0.3551439,-0.35395366,-0.3697012,-0.40122682,-0.44364756,-0.4860683,-0.51637316,-0.54545736,-0.57090974,-0.5854671,-0.5939512,-0.59150976,-0.58424634,-0.5818049,-0.5818049,-0.5866573,-0.5927305,-0.60121465,-0.60847807,-0.61091954,-0.6096988,-0.5927305,-0.5309,-0.40363777,-0.19516587,0.07757807,0.3636279,0.60362554,0.7600025,0.84606457,0.89696944,0.8908963,0.77575004,0.5030365,0.08847308,-0.35877562,-0.7078768,-0.88607436,-0.91634876,-0.8654439,-0.7878659,-0.7066561,-0.63393044,-0.576983,-0.5418256,-0.52485734,-0.52000487,-0.51637316,-0.51515245,-0.50788903,-0.4945525,-0.47636342,-0.4593951,-0.44969022,-0.4412061,-0.4290902,-0.4133427,-0.39515364,-0.3830378,-0.37455368,-0.36362803,-0.3515122,-0.33939636,-0.32728046,-0.31394392,-0.2969756,-0.2763756,-0.25818658,-0.24121833,-0.22666097,-0.21213412,-0.19150364,-0.16968292,-0.15271461,-0.13089389,-0.10544151,-0.07394636,-0.040009797,-0.012115836,0.012115836,0.038789034,0.06546223,0.089693904,0.10666227,0.1163671,0.1224097,0.13089395,0.13455606,0.13211465,0.12607193,0.11877811,0.11273539,0.09817803,0.07150483,0.038789034,0.007263422,-0.021820664,-0.046052456,-0.079989076,-0.12240976,-0.17090362,-0.22061831,-0.27152318,-0.3236488,-0.37940615,-0.43272197,-0.4860683,-0.5393841,-0.59150976,-0.63756216,-0.6727195,-0.6993927,-0.7248451,-0.7515183,-0.77575,-0.7987914,-0.8109073,-0.8181707,-0.82665485,-0.8303171,-0.82665485,-0.8193914,-0.8109073,-0.8060549,-0.80001223,-0.793939,-0.78182316,-0.77089757,-0.76363415,-0.7563707,-0.7430341,-0.7260659,-0.7102878,-0.70061344,-0.69576097,-0.6896878,-0.6800134,-0.6715293,-0.6703086,-0.6715293,-0.6703086,-0.66545606,-0.6581927,-0.65453047,-0.6557512,-0.65697193,-0.6557512,-0.65453047,-0.65697193,-0.65697193,-0.6557512,-0.6557512,-0.6557512,-0.65938294,-0.6618244,-0.6581927,-0.6508988,-0.64604634,-0.6497085,-0.65697193,-0.66060364,-0.65938294,-0.65453047,-0.6533402,-0.65697193,-0.65697193,-0.6533402,-0.6508988,-0.6533402,-0.65697193,-0.66060364,-0.65938294,-0.65453047,-0.6521195,-0.6484878,-0.6448561,-0.6387829,-0.63029873,-0.62907803,-0.63029873,-0.63274026,-0.63393044,-0.63029873,-0.6266671,-0.62425613,-0.6218146,-0.6218146,-0.62425613,-0.62788785,-0.6266671,-0.6194037,-0.61091954,-0.60484636,-0.60847807,-0.6145512,-0.615772,-0.61091954,-0.5999939,-0.5963622,-0.5963622,-0.59758294,-0.5987731,-0.5963622,-0.59758294,-0.5987731,-0.59758294,-0.5939512,-0.5890988,-0.5890988,-0.590289,-0.590289,-0.5890988,-0.5854671,-0.5806146,-0.576983,-0.5721305,-0.5684988,-0.56968904,-0.57332075,-0.576983,-0.5757622,-0.5721305,-0.567278,-0.5684988,-0.57090974,-0.5684988,-0.5624256,-0.5575732,-0.5600146,-0.5660573,-0.5660573,-0.5575732,-0.5393841,-0.5224158,-0.5090793,-0.49818414,-0.4860683,-0.47877437,-0.47514266,-0.47636342,-0.47636342,-0.4727317,-0.46302682,-0.4460585,-0.42182684,-0.39152193,-0.35999632,-0.33213294,-0.3236488,-0.33332318,-0.35877562,-0.39393294,-0.43635368,-0.47758418,-0.51030004,-0.5321207,-0.5393841,-0.5418256,-0.54667807,-0.5539415,-0.5612049,-0.56483656,-0.5660573,-0.56968904,-0.57454145,-0.5818049,-0.58424634,-0.5866573,-0.59150976,-0.57454145,-0.49818414,-0.3381756,-0.09091467,0.2048403,0.49333167,0.72121346,0.8594012,0.93090594,0.95513785,0.9030428,0.7309183,0.4072696,-0.03152567,-0.46665853,-0.77455974,-0.9006012,-0.8933378,-0.82546467,-0.74666584,-0.675161,-0.60484636,-0.54423654,-0.5054475,-0.49574268,-0.5018159,-0.50788903,-0.5054475,-0.49696338,-0.48484755,-0.47029024,-0.45454264,-0.4375744,-0.42182684,-0.41453296,-0.40726954,-0.39515364,-0.38059634,-0.3648488,-0.35395366,-0.34302807,-0.32605976,-0.3066805,-0.28849143,-0.27756584,-0.26667076,-0.25092316,-0.22910243,-0.20969266,-0.19635606,-0.18424022,-0.16486096,-0.13696706,-0.104251206,-0.07757807,-0.055757284,-0.032715857,-0.004852414,0.023041487,0.043641448,0.06546223,0.08847308,0.11273539,0.13574636,0.14545119,0.14789271,0.14545119,0.14423048,0.13696706,0.1224097,0.10180974,0.07513654,0.048493862,0.023041487,-0.007263422,-0.03756827,-0.06665242,-0.09939879,-0.13696706,-0.18424022,-0.23636585,-0.28971225,-0.3381756,-0.38422805,-0.43272197,-0.47999507,-0.5260475,-0.5721305,-0.615772,-0.66304517,-0.70546585,-0.74059266,-0.76726586,-0.78667563,-0.8048341,-0.8206122,-0.8290964,-0.8303171,-0.8290964,-0.8315073,-0.8315073,-0.8278756,-0.8181707,-0.80727565,-0.79635,-0.7830439,-0.7684866,-0.75392926,-0.7418134,-0.7381817,-0.7333293,-0.72243416,-0.70909756,-0.69576097,-0.6896878,-0.68605614,-0.6824244,-0.67757195,-0.6715293,-0.6703086,-0.66908777,-0.66545606,-0.66304517,-0.66423535,-0.66786706,-0.66908777,-0.6666769,-0.65938294,-0.65453047,-0.65697193,-0.66060364,-0.66423535,-0.66423535,-0.66423535,-0.66545606,-0.66545606,-0.66304517,-0.66060364,-0.65938294,-0.66304517,-0.66545606,-0.66304517,-0.6581927,-0.6557512,-0.66060364,-0.66304517,-0.66304517,-0.66060364,-0.6581927,-0.65453047,-0.65453047,-0.6497085,-0.6436354,-0.6424146,-0.6484878,-0.65453047,-0.65453047,-0.6508988,-0.64726704,-0.6497085,-0.6497085,-0.6484878,-0.6424146,-0.6387829,-0.6412244,-0.6424146,-0.6387829,-0.63029873,-0.6218146,-0.6218146,-0.62425613,-0.62425613,-0.6194037,-0.6145512,-0.6121098,-0.6133305,-0.61091954,-0.60847807,-0.60606706,-0.6072878,-0.60847807,-0.6072878,-0.60362566,-0.5999939,-0.60121465,-0.60243535,-0.5999939,-0.5963622,-0.59150976,-0.59150976,-0.5927305,-0.58787805,-0.5818049,-0.5757622,-0.57454145,-0.576983,-0.57939386,-0.5806146,-0.5818049,-0.58787805,-0.590289,-0.5854671,-0.576983,-0.5684988,-0.56968904,-0.576983,-0.57817316,-0.57454145,-0.567278,-0.5636463,-0.56483656,-0.56483656,-0.5600146,-0.55149996,-0.54908895,-0.5503098,-0.5539415,-0.5503098,-0.5406048,-0.5309,-0.51637316,-0.5042573,-0.4945525,-0.4860683,-0.48725855,-0.48847926,-0.4812159,-0.46787924,-0.4460585,-0.42060608,-0.39030123,-0.35758537,-0.3284707,-0.31394392,-0.32483906,-0.35395366,-0.39152193,-0.4375744,-0.47877437,-0.51274145,-0.5357524,-0.54545736,-0.54545736,-0.54423654,-0.5503098,-0.5551622,-0.55635244,-0.5551622,-0.55635244,-0.5660573,-0.57817316,-0.5854671,-0.5866573,-0.5854671,-0.5636463,-0.4824366,-0.32120734,-0.07879877,0.206061,0.46665847,0.65697193,0.77211833,0.83394873,0.8751488,0.84606457,0.6824244,0.35758543,-0.089693904,-0.5272683,-0.8242439,-0.9321268,-0.9042329,-0.8193914,-0.7309183,-0.6581927,-0.5963622,-0.54423654,-0.50788903,-0.48847926,-0.4824366,-0.47758418,-0.4691,-0.45698416,-0.44727927,-0.4412061,-0.43394268,-0.4242378,-0.4109012,-0.40000612,-0.39271218,-0.38544875,-0.37696463,-0.36243784,-0.34665978,-0.33576465,-0.32605976,-0.30909145,-0.28604996,-0.25940728,-0.2387768,-0.22425002,-0.21213412,-0.19998777,-0.18301952,-0.16486096,-0.14423048,-0.11999875,-0.093325675,-0.07150489,-0.05453664,-0.038789034,-0.01696825,0.009704828,0.04120004,0.063020706,0.08120978,0.09817803,0.11151457,0.12485123,0.12970376,0.12607193,0.11999881,0.110293865,0.09817803,0.083651185,0.06546223,0.046052456,0.021820664,-0.007263422,-0.043641448,-0.07757807,-0.110293925,-0.14304024,-0.18182927,-0.23273414,-0.28727072,-0.3381756,-0.38422805,-0.42545855,-0.4727317,-0.52122563,-0.56483656,-0.60243535,-0.63393044,-0.6666769,-0.69212925,-0.71758175,-0.7418134,-0.76363415,-0.7878659,-0.8024231,-0.8048341,-0.80001223,-0.7927183,-0.793939,-0.793939,-0.7878659,-0.77333903,-0.75756097,-0.74907684,-0.7430341,-0.736961,-0.7272866,-0.71395004,-0.70546585,-0.69576097,-0.6848353,-0.66908777,-0.65697193,-0.6533402,-0.6557512,-0.65697193,-0.65453047,-0.6484878,-0.64726704,-0.64604634,-0.64604634,-0.6424146,-0.6400037,-0.6400037,-0.6424146,-0.6436354,-0.6448561,-0.6448561,-0.6436354,-0.63756216,-0.6315195,-0.6315195,-0.63637197,-0.64726704,-0.65697193,-0.6533402,-0.64726704,-0.6412244,-0.6448561,-0.6521195,-0.6533402,-0.64726704,-0.6400037,-0.6387829,-0.64604634,-0.6508988,-0.6497085,-0.64604634,-0.6448561,-0.6484878,-0.64726704,-0.6412244,-0.63274026,-0.62788785,-0.62907803,-0.6315195,-0.63274026,-0.62788785,-0.62425613,-0.6230354,-0.62425613,-0.62425613,-0.62425613,-0.6205939,-0.6169622,-0.6121098,-0.6096988,-0.60847807,-0.61091954,-0.61091954,-0.60362566,-0.5951415,-0.590289,-0.5927305,-0.5963622,-0.59758294,-0.59150976,-0.58424634,-0.5806146,-0.5806146,-0.57817316,-0.57454145,-0.576983,-0.58424634,-0.5927305,-0.5927305,-0.5818049,-0.5684988,-0.5600146,-0.5600146,-0.5612049,-0.5660573,-0.56968904,-0.5721305,-0.57090974,-0.5660573,-0.5600146,-0.5551622,-0.55635244,-0.5612049,-0.5612049,-0.5600146,-0.5551622,-0.54908895,-0.5357524,-0.52000487,-0.50788903,-0.5005951,-0.5030366,-0.5042573,-0.49818414,-0.48725855,-0.47395247,-0.46787924,-0.45454264,-0.43272197,-0.40363777,-0.37696463,-0.36362803,-0.36121708,-0.3648488,-0.37455368,-0.39515364,-0.43031102,-0.47151095,-0.5066683,-0.5321207,-0.54301584,-0.54786825,-0.5503098,-0.55149996,-0.5551622,-0.5624256,-0.57454145,-0.5830256,-0.5830256,-0.57939386,-0.576983,-0.57454145,-0.57454145,-0.567278,-0.5236366,-0.42182684,-0.2618183,-0.041199982,0.19879758,0.39637434,0.5272683,0.59877324,0.65819275,0.7163609,0.7018037,0.5333415,0.18182933,-0.27271336,-0.66060364,-0.8751488,-0.9151585,-0.8545488,-0.77575,-0.7066561,-0.6448561,-0.5830256,-0.52970976,-0.4945525,-0.47514266,-0.47029024,-0.47151095,-0.4727317,-0.47029024,-0.46180612,-0.4448378,-0.4266793,-0.4133427,-0.40241706,-0.38908052,-0.37696463,-0.36606956,-0.35877562,-0.3527329,-0.3418073,-0.32605976,-0.30787075,-0.29090244,-0.27756584,-0.263039,-0.24484998,-0.22666097,-0.2157659,-0.20365,-0.18668169,-0.16486096,-0.14059877,-0.11999875,-0.10180974,-0.07757807,-0.049684107,-0.018189013,0.0060732365,0.025452375,0.042420745,0.059388995,0.07513654,0.09213531,0.10666227,0.11999881,0.12848294,0.12607193,0.11273539,0.096957326,0.08243048,0.06909394,0.05453658,0.031525612,0.004852414,-0.024231672,-0.052125633,-0.08606213,-0.12607199,-0.16849267,-0.2157659,-0.26545,-0.31635487,-0.3721122,-0.4278695,-0.47395247,-0.51637316,-0.5575732,-0.60243535,-0.64726704,-0.68727684,-0.7199927,-0.7442549,-0.76363415,-0.7793817,-0.7903073,-0.7987914,-0.8060549,-0.8133183,-0.8206122,-0.82302314,-0.8181707,-0.8096866,-0.8012024,-0.7903073,-0.77819145,-0.7697073,-0.7624134,-0.7587817,-0.7515183,-0.7381817,-0.72243416,-0.7102878,-0.70546585,-0.7030244,-0.69698167,-0.68605614,-0.6727195,-0.66423535,-0.6581927,-0.6508988,-0.6508988,-0.6521195,-0.6581927,-0.66423535,-0.66304517,-0.65453047,-0.64726704,-0.6424146,-0.6412244,-0.6436354,-0.6497085,-0.6533402,-0.6581927,-0.6581927,-0.65453047,-0.6508988,-0.6497085,-0.6533402,-0.65938294,-0.66304517,-0.66545606,-0.66545606,-0.66304517,-0.66060364,-0.65938294,-0.6581927,-0.6557512,-0.65697193,-0.65453047,-0.6521195,-0.65453047,-0.6581927,-0.66060364,-0.66060364,-0.6521195,-0.6436354,-0.6400037,-0.6448561,-0.6508988,-0.6508988,-0.64604634,-0.63756216,-0.63637197,-0.63637197,-0.63756216,-0.63637197,-0.63393044,-0.63274026,-0.63029873,-0.6254463,-0.6181829,-0.615772,-0.6181829,-0.6194037,-0.6169622,-0.61091954,-0.60847807,-0.61091954,-0.6145512,-0.6121098,-0.6072878,-0.60243535,-0.60243535,-0.60484636,-0.60243535,-0.59758294,-0.5951415,-0.5963622,-0.60121465,-0.60121465,-0.5999939,-0.5999939,-0.60121465,-0.5987731,-0.5951415,-0.58787805,-0.5854671,-0.590289,-0.5951415,-0.5927305,-0.5806146,-0.5624256,-0.54786825,-0.5357524,-0.5272683,-0.5236366,-0.5224158,-0.5236366,-0.5224158,-0.5139317,-0.4994049,-0.47877437,-0.45576346,-0.4290902,-0.3963744,-0.3684805,-0.3563646,-0.36725974,-0.3963744,-0.4290902,-0.46424758,-0.49818414,-0.5309,-0.5600146,-0.57817316,-0.5830256,-0.5830256,-0.58424634,-0.5866573,-0.58787805,-0.5890988,-0.59150976,-0.5963622,-0.60484636,-0.61091954,-0.615772,-0.6218146,-0.6194037,-0.56968904,-0.4448378,-0.23392439,0.042420745,0.3236487,0.5612049,0.72121346,0.80968654,0.86425376,0.87029624,0.78182316,0.54423654,0.15878785,-0.28971225,-0.6715293,-0.88607436,-0.9321268,-0.8836329,-0.80364394,-0.7284768,-0.66423535,-0.60362566,-0.5587939,-0.5369732,-0.5357524,-0.5406048,-0.5369732,-0.5272683,-0.5139317,-0.5042573,-0.4945525,-0.4824366,-0.4654683,-0.44969022,-0.4375744,-0.4266793,-0.41212195,-0.40122682,-0.39152193,-0.38666952,-0.37940615,-0.36121708,-0.33939636,-0.3151647,-0.29938662,-0.28971225,-0.2751549,-0.25818658,-0.2387768,-0.21817678,-0.19757688,-0.16968292,-0.13818783,-0.11151457,-0.09454632,-0.079989076,-0.06183052,-0.038789034,-0.004852414,0.025452375,0.05090487,0.072725534,0.087282896,0.09576702,0.09817803,0.09939873,0.10180974,0.10180974,0.09576702,0.07879877,0.056978106,0.035157323,0.008484125,-0.02060002,-0.05453664,-0.089693904,-0.11999875,-0.1490829,-0.1890927,-0.23758656,-0.2957549,-0.3527329,-0.40604877,-0.45576346,-0.5054475,-0.5539415,-0.59758294,-0.63756216,-0.67757195,-0.7199927,-0.76000243,-0.7890866,-0.81212807,-0.82665485,-0.8388012,-0.8484756,-0.8484756,-0.8460646,-0.8424329,-0.84121215,-0.84484386,-0.83999145,-0.8315073,-0.8181707,-0.8048341,-0.793939,-0.7793817,-0.7648549,-0.75392926,-0.74907684,-0.74544513,-0.7394024,-0.7296976,-0.71758175,-0.70909756,-0.7018037,-0.69090855,-0.6836451,-0.6800134,-0.6824244,-0.68605614,-0.6824244,-0.67394024,-0.66545606,-0.66545606,-0.66908777,-0.6715293,-0.6715293,-0.67394024,-0.6787927,-0.6836451,-0.6848353,-0.6824244,-0.6787927,-0.6800134,-0.6848353,-0.6836451,-0.6812036,-0.6763512,-0.675161,-0.67394024,-0.67394024,-0.675161,-0.675161,-0.67757195,-0.67757195,-0.6715293,-0.66423535,-0.6581927,-0.65697193,-0.6581927,-0.66060364,-0.66545606,-0.66908777,-0.6727195,-0.6703086,-0.65938294,-0.6497085,-0.6436354,-0.6448561,-0.64604634,-0.6412244,-0.6387829,-0.6412244,-0.64604634,-0.64604634,-0.6387829,-0.6266671,-0.6169622,-0.6181829,-0.62425613,-0.6254463,-0.62425613,-0.6218146,-0.62425613,-0.62907803,-0.62788785,-0.6230354,-0.6169622,-0.6145512,-0.6133305,-0.6121098,-0.60847807,-0.60362566,-0.60484636,-0.6072878,-0.60606706,-0.60243535,-0.59758294,-0.5963622,-0.5963622,-0.5927305,-0.58787805,-0.5866573,-0.590289,-0.5927305,-0.59150976,-0.5890988,-0.5866573,-0.5890988,-0.5927305,-0.590289,-0.5854671,-0.5806146,-0.58424634,-0.58787805,-0.5854671,-0.576983,-0.5587939,-0.54301584,-0.52848905,-0.5175634,-0.51274145,-0.51152074,-0.51274145,-0.50788903,-0.49574268,-0.48484755,-0.4727317,-0.4581744,-0.43635368,-0.4048586,-0.37092197,-0.34665978,-0.34424877,-0.36121708,-0.38666952,-0.42182684,-0.46424758,-0.5030366,-0.5381939,-0.5612049,-0.57090974,-0.5721305,-0.57090974,-0.5721305,-0.5721305,-0.57817316,-0.5866573,-0.5951415,-0.60362566,-0.60362566,-0.5999939,-0.60362566,-0.60606706,-0.57454145,-0.47029024,-0.2751549,-0.0012207627,0.29819632,0.56968904,0.7684865,0.8848536,0.9454634,0.9442426,0.8412123,0.59877324,0.21454513,-0.23758656,-0.63029873,-0.8618122,-0.9236427,-0.88485366,-0.80849636,-0.7333293,-0.66060364,-0.59150976,-0.54301584,-0.52000487,-0.5236366,-0.53334147,-0.5309,-0.51515245,-0.49574268,-0.48362684,-0.47514266,-0.46665853,-0.45454264,-0.4399854,-0.4266793,-0.41453296,-0.39878535,-0.38422805,-0.37092197,-0.36243784,-0.3527329,-0.33576465,-0.31879634,-0.30423903,-0.2933439,-0.2824183,-0.263039,-0.23758656,-0.21454513,-0.19635606,-0.18301952,-0.16364026,-0.14059877,-0.113925576,-0.08847314,-0.06183052,-0.03152567,-0.0036317706,0.021820664,0.040009856,0.055757284,0.07757807,0.10180974,0.123630404,0.12970376,0.12726212,0.1224097,0.1151464,0.10666227,0.090914726,0.07150483,0.05453658,0.036378026,0.0133366585,-0.01696825,-0.05090487,-0.083651185,-0.117587805,-0.15756702,-0.206061,-0.26059753,-0.3115024,-0.35999632,-0.409711,-0.46424758,-0.52000487,-0.567278,-0.60847807,-0.64604634,-0.68605614,-0.72362435,-0.75029755,-0.7721183,-0.7903073,-0.8109073,-0.82665485,-0.832728,-0.8339488,-0.8315073,-0.832728,-0.8339488,-0.82302314,-0.80727565,-0.793939,-0.78667563,-0.7806024,-0.7697073,-0.75392926,-0.74059266,-0.7333293,-0.7272866,-0.71758175,-0.7066561,-0.69698167,-0.6933195,-0.6896878,-0.6800134,-0.6703086,-0.66423535,-0.66545606,-0.66786706,-0.6666769,-0.66423535,-0.66304517,-0.66545606,-0.66908777,-0.66786706,-0.66545606,-0.66060364,-0.66423535,-0.66908777,-0.6715293,-0.67394024,-0.67394024,-0.6763512,-0.67757195,-0.6763512,-0.6763512,-0.67394024,-0.6763512,-0.6800134,-0.6800134,-0.6812036,-0.6812036,-0.6848353,-0.68605614,-0.6812036,-0.67394024,-0.66786706,-0.6727195,-0.6763512,-0.6763512,-0.66786706,-0.65697193,-0.6533402,-0.6557512,-0.65697193,-0.65938294,-0.65938294,-0.66060364,-0.6618244,-0.6581927,-0.6521195,-0.64604634,-0.6424146,-0.6400037,-0.63637197,-0.63515127,-0.63756216,-0.6412244,-0.6424146,-0.63515127,-0.62788785,-0.62425613,-0.6266671,-0.62788785,-0.6218146,-0.6133305,-0.6096988,-0.6145512,-0.6205939,-0.615772,-0.60484636,-0.5963622,-0.5987731,-0.60847807,-0.6133305,-0.61091954,-0.60121465,-0.5927305,-0.5890988,-0.5866573,-0.5866573,-0.58787805,-0.59150976,-0.5939512,-0.59150976,-0.5890988,-0.5854671,-0.58787805,-0.58787805,-0.5866573,-0.5818049,-0.57817316,-0.57939386,-0.5818049,-0.5818049,-0.57817316,-0.5757622,-0.5757622,-0.5757622,-0.57090974,-0.567278,-0.5660573,-0.5660573,-0.5624256,-0.54545736,-0.52485734,-0.5054475,-0.5030366,-0.5090793,-0.51152074,-0.5090793,-0.49818414,-0.48847926,-0.47877437,-0.46302682,-0.4424268,-0.41575366,-0.38544875,-0.35877562,-0.33939636,-0.34061712,-0.35999632,-0.40000612,-0.45091093,-0.49333167,-0.52485734,-0.54667807,-0.5587939,-0.5636463,-0.5624256,-0.5612049,-0.56483656,-0.5757622,-0.5866573,-0.5927305,-0.590289,-0.58787805,-0.59150976,-0.5987731,-0.60121465,-0.5818049,-0.5030366,-0.35395366,-0.12607199,0.15756714,0.43516338,0.6533402,0.78304386,0.8509171,0.88970613,0.86303294,0.71272933,0.39393294,-0.05453664,-0.5005951,-0.8133183,-0.940611,-0.9272744,-0.8557695,-0.77089757,-0.69090855,-0.6230354,-0.5660573,-0.52848905,-0.51030004,-0.5054475,-0.5042573,-0.5030366,-0.49696338,-0.4824366,-0.46787924,-0.45454264,-0.4448378,-0.43272197,-0.41453296,-0.39756465,-0.38666952,-0.38059634,-0.37818533,-0.36606956,-0.35029143,-0.33332318,-0.31757563,-0.30423903,-0.28849143,-0.26789147,-0.24970245,-0.23514509,-0.22061831,-0.20484024,-0.1890927,-0.16968292,-0.1490829,-0.12485123,-0.09091467,-0.055757284,-0.0278939,-0.008484185,0.007263422,0.026673198,0.04727316,0.06787324,0.08484149,0.09454632,0.10666227,0.113925576,0.110293865,0.09817803,0.08243048,0.06787324,0.055757284,0.046052456,0.031525612,0.012115836,-0.009704828,-0.03756827,-0.07150489,-0.113925576,-0.15756702,-0.20120853,-0.24362922,-0.28604996,-0.33213294,-0.3830378,-0.4278695,-0.4727317,-0.51878417,-0.5636463,-0.6096988,-0.6497085,-0.68605614,-0.71758175,-0.7478866,-0.77089757,-0.78667563,-0.79515976,-0.80001223,-0.80849636,-0.81212807,-0.8096866,-0.8024231,-0.7903073,-0.7806024,-0.77333903,-0.7684866,-0.7660756,-0.76000243,-0.752739,-0.7418134,-0.7248451,-0.7102878,-0.70546585,-0.7030244,-0.6993927,-0.6896878,-0.67394024,-0.6618244,-0.6581927,-0.65938294,-0.65697193,-0.6521195,-0.64726704,-0.64726704,-0.6497085,-0.6448561,-0.6387829,-0.63515127,-0.63637197,-0.6436354,-0.6484878,-0.6484878,-0.6497085,-0.65453047,-0.65938294,-0.6581927,-0.6557512,-0.6533402,-0.6533402,-0.6581927,-0.6521195,-0.64726704,-0.6448561,-0.64604634,-0.64726704,-0.6448561,-0.6412244,-0.6400037,-0.6448561,-0.6484878,-0.6448561,-0.6400037,-0.63756216,-0.63756216,-0.6400037,-0.63637197,-0.6315195,-0.62788785,-0.62907803,-0.6266671,-0.6218146,-0.615772,-0.615772,-0.6218146,-0.62788785,-0.6254463,-0.6205939,-0.615772,-0.6181829,-0.6194037,-0.6121098,-0.60243535,-0.5951415,-0.5951415,-0.5987731,-0.5987731,-0.5987731,-0.5987731,-0.60243535,-0.60606706,-0.60243535,-0.5939512,-0.5830256,-0.576983,-0.5806146,-0.58424634,-0.590289,-0.5927305,-0.590289,-0.5854671,-0.57817316,-0.57332075,-0.57454145,-0.576983,-0.5806146,-0.5757622,-0.56968904,-0.567278,-0.567278,-0.56968904,-0.56968904,-0.567278,-0.56483656,-0.56483656,-0.5636463,-0.5575732,-0.5503098,-0.5381939,-0.5260475,-0.51515245,-0.5030366,-0.49818414,-0.49696338,-0.49818414,-0.49818414,-0.48847926,-0.47636342,-0.46180612,-0.4412061,-0.41453296,-0.3830378,-0.3527329,-0.33213294,-0.33332318,-0.35029143,-0.37940615,-0.41938537,-0.46061587,-0.49818414,-0.52485734,-0.5345317,-0.5393841,-0.5418256,-0.54667807,-0.5503098,-0.5503098,-0.54908895,-0.5539415,-0.5624256,-0.57332075,-0.5757622,-0.57332075,-0.56968904,-0.5624256,-0.52485734,-0.43031102,-0.27152318,-0.05090487,0.19150364,0.39756465,0.5406048,0.6205939,0.6739403,0.7175816,0.7018037,0.5551622,0.2387768,-0.19272435,-0.5963622,-0.8496964,-0.9236427,-0.87636954,-0.79152805,-0.71395004,-0.64604634,-0.5818049,-0.5272683,-0.49211097,-0.47758418,-0.47636342,-0.47514266,-0.4691,-0.46180612,-0.45698416,-0.45091093,-0.4375744,-0.42301708,-0.409711,-0.39756465,-0.38544875,-0.3684805,-0.35029143,-0.3381756,-0.33213294,-0.32728046,-0.31394392,-0.29819638,-0.27756584,-0.2618183,-0.24970245,-0.23151344,-0.21332437,-0.19635606,-0.18182927,-0.16849267,-0.15152442,-0.1297037,-0.106662154,-0.083651185,-0.0606097,-0.03393662,-0.008484185,0.014557362,0.03393662,0.05453658,0.07757807,0.100619555,0.1163671,0.11999881,0.1163671,0.113925576,0.10910368,0.09939873,0.083651185,0.06424153,0.04727316,0.030304909,0.009704828,-0.019379199,-0.053346336,-0.08606213,-0.12240976,-0.1624195,-0.20847195,-0.25696588,-0.30301827,-0.35029143,-0.40241706,-0.45576346,-0.50788903,-0.5503098,-0.5890988,-0.6266671,-0.66545606,-0.7030244,-0.7309183,-0.752739,-0.77089757,-0.7878659,-0.8012024,-0.8096866,-0.8133183,-0.8157598,-0.8157598,-0.81212807,-0.8024231,-0.79152805,-0.7806024,-0.7721183,-0.7660756,-0.75756097,-0.7478866,-0.736961,-0.7272866,-0.716361,-0.7042451,-0.69576097,-0.6896878,-0.68727684,-0.6836451,-0.675161,-0.66545606,-0.66060364,-0.6618244,-0.6666769,-0.66786706,-0.66786706,-0.66545606,-0.66423535,-0.66060364,-0.6557512,-0.65453047,-0.6557512,-0.66060364,-0.6666769,-0.66545606,-0.6618244,-0.66060364,-0.66304517,-0.6666769,-0.66545606,-0.66304517,-0.66060364,-0.66060364,-0.66423535,-0.66304517,-0.66304517,-0.66545606,-0.66908777,-0.6727195,-0.6727195,-0.6715293,-0.6703086,-0.6715293,-0.6715293,-0.66545606,-0.6581927,-0.6521195,-0.6533402,-0.65453047,-0.6508988,-0.6497085,-0.64604634,-0.6448561,-0.6436354,-0.63756216,-0.6315195,-0.63029873,-0.63637197,-0.6412244,-0.63756216,-0.63029873,-0.62425613,-0.6218146,-0.62425613,-0.6218146,-0.615772,-0.6121098,-0.61091954,-0.6121098,-0.61091954,-0.6072878,-0.6072878,-0.60847807,-0.6096988,-0.6072878,-0.60484636,-0.60484636,-0.6072878,-0.60847807,-0.60121465,-0.5939512,-0.590289,-0.5927305,-0.5999939,-0.5987731,-0.5963622,-0.5927305,-0.59150976,-0.5927305,-0.5890988,-0.5866573,-0.58424634,-0.5854671,-0.5890988,-0.5866573,-0.5806146,-0.5684988,-0.5551622,-0.5406048,-0.5260475,-0.5175634,-0.51637316,-0.5175634,-0.51878417,-0.51030004,-0.49818414,-0.4824366,-0.46424758,-0.4412061,-0.4109012,-0.38181704,-0.36243784,-0.36121708,-0.37455368,-0.39515364,-0.4242378,-0.4593951,-0.49818414,-0.52970976,-0.5503098,-0.5600146,-0.5684988,-0.57817316,-0.5854671,-0.58424634,-0.57939386,-0.57817316,-0.58424634,-0.5951415,-0.60243535,-0.60362566,-0.60243535,-0.60362566,-0.5854671,-0.51030004,-0.35758537,-0.123630404,0.16000855,0.4375744,0.66545606,0.80968654,0.8872646,0.9212011,0.8860744,0.73455,0.43272197,0.009704828,-0.4242378,-0.7442549,-0.8872646,-0.89574873,-0.8375805,-0.7612232,-0.68849754,-0.615772,-0.55635244,-0.52000487,-0.50788903,-0.51274145,-0.51515245,-0.51515245,-0.51030004,-0.5005951,-0.48484755,-0.46180612,-0.4424268,-0.4290902,-0.42301708,-0.41819513,-0.40604877,-0.39030123,-0.37333292,-0.35999632,-0.34910125,-0.33576465,-0.3236488,-0.3115024,-0.2969756,-0.2787866,-0.2557451,-0.23392439,-0.21695608,-0.20484024,-0.19272435,-0.17090362,-0.1490829,-0.12726218,-0.106662154,-0.083651185,-0.05090487,-0.018189013,0.009704828,0.031525612,0.048493862,0.07150483,0.09213531,0.110293865,0.11877811,0.123630404,0.12726212,0.12848294,0.12485123,0.11273539,0.09576702,0.07757807,0.05453658,0.030304909,0.0024110079,-0.029084206,-0.058168292,-0.089693904,-0.12848294,-0.17334515,-0.22302932,-0.26789147,-0.31757563,-0.3721122,-0.4278695,-0.48484755,-0.52970976,-0.567278,-0.6072878,-0.6497085,-0.69212925,-0.7248451,-0.7515183,-0.77089757,-0.7878659,-0.8024231,-0.80849636,-0.81212807,-0.81212807,-0.81212807,-0.8109073,-0.8024231,-0.7927183,-0.78182316,-0.77333903,-0.7660756,-0.7563707,-0.74666584,-0.736961,-0.7260659,-0.716361,-0.7042451,-0.69454026,-0.6896878,-0.6848353,-0.6824244,-0.6715293,-0.65938294,-0.6508988,-0.64726704,-0.6508988,-0.6508988,-0.6508988,-0.6521195,-0.6557512,-0.65938294,-0.65697193,-0.6508988,-0.6448561,-0.6436354,-0.64604634,-0.64604634,-0.6448561,-0.64604634,-0.6508988,-0.65697193,-0.6581927,-0.6557512,-0.6533402,-0.6521195,-0.6533402,-0.6497085,-0.6484878,-0.64604634,-0.6484878,-0.6533402,-0.6508988,-0.6497085,-0.6497085,-0.6497085,-0.6508988,-0.64726704,-0.6436354,-0.6412244,-0.6436354,-0.64726704,-0.6424146,-0.63637197,-0.6315195,-0.6315195,-0.6315195,-0.63029873,-0.6266671,-0.6218146,-0.6205939,-0.6205939,-0.6169622,-0.6133305,-0.6133305,-0.615772,-0.615772,-0.6096988,-0.60121465,-0.5951415,-0.5963622,-0.5987731,-0.5951415,-0.5927305,-0.5890988,-0.5890988,-0.5890988,-0.58424634,-0.5806146,-0.57939386,-0.5806146,-0.5830256,-0.5806146,-0.57817316,-0.5806146,-0.58424634,-0.5866573,-0.5818049,-0.57332075,-0.567278,-0.5636463,-0.5636463,-0.5612049,-0.5612049,-0.5600146,-0.5624256,-0.5636463,-0.5636463,-0.5636463,-0.5612049,-0.5587939,-0.5527208,-0.54301584,-0.5406048,-0.5418256,-0.54908895,-0.55635244,-0.5539415,-0.54667807,-0.52970976,-0.51274145,-0.49696338,-0.48362684,-0.47877437,-0.47877437,-0.47999507,-0.47636342,-0.46302682,-0.44850004,-0.4315012,-0.41453296,-0.39152193,-0.36243784,-0.33332318,-0.31879634,-0.32605976,-0.35029143,-0.38059634,-0.41697437,-0.45576346,-0.48970002,-0.5175634,-0.5345317,-0.5393841,-0.54301584,-0.54545736,-0.5503098,-0.54786825,-0.54667807,-0.54786825,-0.55635244,-0.5684988,-0.57454145,-0.57817316,-0.5830256,-0.5806146,-0.52970976,-0.3963744,-0.17453533,0.1163671,0.4145329,0.6642355,0.832728,0.92242193,0.9624318,0.9333476,0.7975707,0.51637316,0.10303056,-0.34061712,-0.69698167,-0.8824122,-0.9103061,-0.85695976,-0.77455974,-0.6933195,-0.6194037,-0.5551622,-0.51274145,-0.49818414,-0.5030366,-0.5090793,-0.5054475,-0.4945525,-0.47999507,-0.4654683,-0.45091093,-0.43516344,-0.42301708,-0.41212195,-0.40726954,-0.40122682,-0.38789028,-0.3721122,-0.3563646,-0.3418073,-0.33213294,-0.31879634,-0.30545974,-0.28971225,-0.27152318,-0.25333416,-0.23392439,-0.21695608,-0.20365,-0.18787193,-0.16968292,-0.14545119,-0.11877811,-0.09576714,-0.07394636,-0.05090487,-0.021820664,0.008484125,0.032715797,0.052125692,0.06665242,0.087282896,0.10788298,0.123630404,0.13211465,0.12970376,0.12848294,0.1224097,0.11273539,0.096957326,0.07757807,0.058168292,0.032715797,0.0060732365,-0.025452435,-0.056978106,-0.08484149,-0.11877811,-0.1611988,-0.21332437,-0.26908165,-0.31998658,-0.36725974,-0.41819513,-0.4691,-0.5175634,-0.5612049,-0.60121465,-0.6424146,-0.6812036,-0.7151402,-0.7381817,-0.7587817,-0.77819145,-0.7987914,-0.8157598,-0.8206122,-0.8181707,-0.814539,-0.8133183,-0.8133183,-0.80727565,-0.7975707,-0.78667563,-0.7793817,-0.77333903,-0.7624134,-0.74907684,-0.73455,-0.72243416,-0.7102878,-0.69698167,-0.6896878,-0.68605614,-0.68849754,-0.69090855,-0.6836451,-0.67394024,-0.66304517,-0.6581927,-0.65938294,-0.65938294,-0.6618244,-0.66423535,-0.66786706,-0.6715293,-0.66786706,-0.66304517,-0.66060364,-0.66060364,-0.66304517,-0.66060364,-0.66060364,-0.66304517,-0.66545606,-0.66908777,-0.66545606,-0.66304517,-0.66060364,-0.66304517,-0.66545606,-0.6618244,-0.65938294,-0.6618244,-0.6666769,-0.6715293,-0.66908777,-0.66423535,-0.65938294,-0.65697193,-0.65697193,-0.6533402,-0.6484878,-0.6448561,-0.64604634,-0.64726704,-0.6436354,-0.6400037,-0.63637197,-0.63274026,-0.63029873,-0.6266671,-0.6266671,-0.62907803,-0.63393044,-0.63515127,-0.6254463,-0.6145512,-0.60847807,-0.60847807,-0.61091954,-0.6096988,-0.6072878,-0.60484636,-0.60362566,-0.60484636,-0.5999939,-0.59758294,-0.5963622,-0.5963622,-0.5951415,-0.5927305,-0.5927305,-0.5951415,-0.59758294,-0.5963622,-0.5866573,-0.57817316,-0.57332075,-0.57332075,-0.57454145,-0.5721305,-0.56968904,-0.56968904,-0.57090974,-0.57454145,-0.5721305,-0.567278,-0.5660573,-0.56483656,-0.5636463,-0.5587939,-0.55635244,-0.5600146,-0.56483656,-0.5684988,-0.56483656,-0.5575732,-0.5539415,-0.5539415,-0.5575732,-0.5539415,-0.5503098,-0.54908895,-0.54667807,-0.5393841,-0.5224158,-0.5066683,-0.49333167,-0.48847926,-0.48484755,-0.47395247,-0.4654683,-0.4593951,-0.45454264,-0.4460585,-0.42182684,-0.38908052,-0.35999632,-0.33454388,-0.3236488,-0.3236488,-0.33695483,-0.35999632,-0.39393294,-0.43394268,-0.46665853,-0.49574268,-0.5175634,-0.52848905,-0.5345317,-0.5345317,-0.5393841,-0.54545736,-0.5551622,-0.5624256,-0.5612049,-0.5575732,-0.5587939,-0.56483656,-0.57332075,-0.576983,-0.5575732,-0.47877437,-0.32605976,-0.09817797,0.18060863,0.44850004,0.6497086,0.7708975,0.83513904,0.8775904,0.8557695,0.7102878,0.40122676,-0.035157263,-0.47029024,-0.7793817,-0.90786463,-0.89819026,-0.8290964,-0.7430341,-0.6666769,-0.59758294,-0.5406048,-0.5018159,-0.4824366,-0.47758418,-0.47395247,-0.4691,-0.4593951,-0.44364756,-0.4290902,-0.42182684,-0.41819513,-0.41453296,-0.40604877,-0.39393294,-0.38059634,-0.36606956,-0.35395366,-0.33454388,-0.31635487,-0.30301827,-0.2933439,-0.28604996,-0.27030247,-0.24970245,-0.22666097,-0.20728171,-0.19272435,-0.17697686,-0.15878779,-0.14059877,-0.121219575,-0.100619555,-0.076357305,-0.04849392,-0.024231672,-0.0012207627,0.01696825,0.038789034,0.06183052,0.083651185,0.09939873,0.10788298,0.117587805,0.1224097,0.1224097,0.1163671,0.10180974,0.089693904,0.076357245,0.0606097,0.042420745,0.020599961,-0.0024109483,-0.026673198,-0.055757284,-0.09213537,-0.13455611,-0.17816705,-0.22788173,-0.2763756,-0.32605976,-0.37455368,-0.41697437,-0.4593951,-0.5054475,-0.55149996,-0.5963622,-0.63393044,-0.6666769,-0.69576097,-0.72362435,-0.75029755,-0.7697073,-0.7830439,-0.79152805,-0.7987914,-0.8012024,-0.7975707,-0.7927183,-0.7890866,-0.78545487,-0.7793817,-0.7684866,-0.75515,-0.74666584,-0.7442549,-0.7430341,-0.7333293,-0.71880245,-0.7030244,-0.69090855,-0.6836451,-0.675161,-0.6715293,-0.66786706,-0.66786706,-0.66786706,-0.6618244,-0.65453047,-0.6484878,-0.64726704,-0.64726704,-0.64604634,-0.64726704,-0.6497085,-0.6533402,-0.6557512,-0.6497085,-0.6448561,-0.6412244,-0.6436354,-0.6497085,-0.6521195,-0.6521195,-0.6533402,-0.6557512,-0.6581927,-0.65453047,-0.6497085,-0.64726704,-0.6508988,-0.6581927,-0.65938294,-0.65938294,-0.65938294,-0.66060364,-0.66060364,-0.65697193,-0.65453047,-0.6533402,-0.65453047,-0.6521195,-0.6448561,-0.63515127,-0.63029873,-0.6315195,-0.63393044,-0.6315195,-0.6266671,-0.62425613,-0.62425613,-0.6266671,-0.6230354,-0.6205939,-0.6181829,-0.6169622,-0.615772,-0.6121098,-0.61091954,-0.6121098,-0.6169622,-0.6194037,-0.6121098,-0.60484636,-0.60121465,-0.60362566,-0.60606706,-0.60362566,-0.59758294,-0.5927305,-0.5927305,-0.5951415,-0.5963622,-0.59758294,-0.59758294,-0.5987731,-0.5999939,-0.5951415,-0.59150976,-0.59150976,-0.5939512,-0.5951415,-0.590289,-0.5854671,-0.5830256,-0.5854671,-0.5890988,-0.58787805,-0.5854671,-0.5818049,-0.57939386,-0.57817316,-0.5721305,-0.5684988,-0.5612049,-0.5527208,-0.54423654,-0.52970976,-0.51878417,-0.5139317,-0.51274145,-0.51274145,-0.5042573,-0.48847926,-0.46665853,-0.4399854,-0.4133427,-0.38544875,-0.37092197,-0.37092197,-0.3830378,-0.40241706,-0.41819513,-0.43635368,-0.46665853,-0.5005951,-0.5345317,-0.5587939,-0.57090974,-0.5757622,-0.5806146,-0.58424634,-0.5830256,-0.5830256,-0.5890988,-0.5987731,-0.61091954,-0.6145512,-0.6096988,-0.60606706,-0.5999939,-0.56483656,-0.46665853,-0.29938662,-0.06424147,0.19635606,0.42545843,0.5915097,0.69212925,0.75273895,0.7890867,0.75029755,0.57576215,0.2387768,-0.206061,-0.6169622,-0.87759024,-0.95757926,-0.9187903,-0.8424329,-0.76363415,-0.69090855,-0.6205939,-0.5612049,-0.52848905,-0.5224158,-0.5309,-0.5309,-0.5236366,-0.51030004,-0.49574268,-0.4824366,-0.46787924,-0.45454264,-0.4424268,-0.43272197,-0.4242378,-0.41212195,-0.40000612,-0.38908052,-0.37940615,-0.36725974,-0.34788048,-0.3284707,-0.31394392,-0.30182803,-0.28971225,-0.27152318,-0.25333416,-0.23999757,-0.22788173,-0.21454513,-0.1890927,-0.1624195,-0.13574636,-0.113925576,-0.09454632,-0.070314586,-0.04486215,-0.02060002,0.003631711,0.026673198,0.05090487,0.07150483,0.083651185,0.08847308,0.08847308,0.089693904,0.08847308,0.08243048,0.07031453,0.053346276,0.03756821,0.015747547,-0.009704828,-0.038789034,-0.070314586,-0.09939879,-0.13455611,-0.17816705,-0.22788173,-0.2800073,-0.32728046,-0.37455368,-0.4242378,-0.47877437,-0.5309,-0.57817316,-0.6205939,-0.6618244,-0.7018037,-0.7381817,-0.7660756,-0.78667563,-0.8060549,-0.82302314,-0.8388012,-0.84484386,-0.8484756,-0.8472854,-0.84362316,-0.8388012,-0.8303171,-0.82302314,-0.8181707,-0.8133183,-0.8048341,-0.79152805,-0.77697074,-0.76726586,-0.7612232,-0.75515,-0.7442549,-0.7321085,-0.72362435,-0.71880245,-0.7127293,-0.7030244,-0.69454026,-0.6896878,-0.68849754,-0.6896878,-0.68605614,-0.6800134,-0.6763512,-0.6763512,-0.6787927,-0.67757195,-0.67757195,-0.6812036,-0.6848353,-0.68849754,-0.68849754,-0.6848353,-0.68605614,-0.6896878,-0.6933195,-0.69090855,-0.68849754,-0.68605614,-0.68727684,-0.69090855,-0.68849754,-0.68605614,-0.6848353,-0.68727684,-0.69212925,-0.69090855,-0.6896878,-0.68849754,-0.68727684,-0.68605614,-0.6824244,-0.67757195,-0.6763512,-0.67757195,-0.67757195,-0.6715293,-0.6666769,-0.66423535,-0.66423535,-0.66423535,-0.65938294,-0.65453047,-0.6533402,-0.6557512,-0.65697193,-0.6533402,-0.6484878,-0.6448561,-0.64604634,-0.6484878,-0.64604634,-0.6412244,-0.6387829,-0.63756216,-0.6387829,-0.63274026,-0.6266671,-0.6254463,-0.63029873,-0.63393044,-0.6315195,-0.6254463,-0.6181829,-0.6145512,-0.6145512,-0.6133305,-0.6121098,-0.61091954,-0.6133305,-0.6145512,-0.6096988,-0.60606706,-0.60606706,-0.6096988,-0.6121098,-0.6072878,-0.60121465,-0.59758294,-0.5987731,-0.60243535,-0.5999939,-0.5963622,-0.5927305,-0.59150976,-0.5927305,-0.590289,-0.5890988,-0.5890988,-0.590289,-0.590289,-0.58424634,-0.576983,-0.56483656,-0.55149996,-0.5393841,-0.52485734,-0.51515245,-0.51274145,-0.51152074,-0.51030004,-0.4994049,-0.48362684,-0.4654683,-0.4424268,-0.41697437,-0.39030123,-0.37092197,-0.36725974,-0.37940615,-0.40000612,-0.41575366,-0.43272197,-0.45454264,-0.48484755,-0.51637316,-0.5418256,-0.5612049,-0.57454145,-0.5830256,-0.5890988,-0.5866573,-0.5854671,-0.58787805,-0.5951415,-0.60362566,-0.60847807,-0.6096988,-0.61091954,-0.6169622,-0.60847807,-0.5406048,-0.39756465,-0.16968292,0.117587805,0.4072696,0.6508988,0.80968654,0.8908963,0.92605364,0.8933377,0.75273895,0.45698416,0.031525612,-0.41819513,-0.76000243,-0.920011,-0.9321268,-0.8727378,-0.79515976,-0.7212134,-0.64604634,-0.5818049,-0.5406048,-0.5272683,-0.52970976,-0.52970976,-0.52485734,-0.5139317,-0.5018159,-0.48970002,-0.4727317,-0.4581744,-0.4460585,-0.43879515,-0.43272197,-0.42060608,-0.40726954,-0.39393294,-0.3830378,-0.3697012,-0.35395366,-0.33695483,-0.32120734,-0.30787075,-0.2933439,-0.2739342,-0.25333416,-0.23758656,-0.22425002,-0.20728171,-0.18182927,-0.15515614,-0.12848294,-0.10544151,-0.08484149,-0.058168292,-0.032715857,-0.009704828,0.010895014,0.029084206,0.052125692,0.07394636,0.090914726,0.10180974,0.10788298,0.11273539,0.11151457,0.10303056,0.08847308,0.07150483,0.056978106,0.03756821,0.0133366585,-0.014557362,-0.04486215,-0.07150489,-0.100619555,-0.13818783,-0.18182927,-0.23151344,-0.2787866,-0.32605976,-0.37696463,-0.43272197,-0.4860683,-0.53334147,-0.5757622,-0.6169622,-0.6581927,-0.698172,-0.7296976,-0.75515,-0.77819145,-0.7975707,-0.8133183,-0.8206122,-0.8242439,-0.82665485,-0.8290964,-0.82665485,-0.8181707,-0.80849636,-0.8012024,-0.79515976,-0.7903073,-0.77819145,-0.7660756,-0.75392926,-0.74544513,-0.7381817,-0.7248451,-0.71395004,-0.70546585,-0.70061344,-0.698172,-0.6896878,-0.6824244,-0.67757195,-0.6763512,-0.6787927,-0.675161,-0.66908777,-0.66423535,-0.6618244,-0.66304517,-0.66060364,-0.66060364,-0.66060364,-0.6618244,-0.6618244,-0.65938294,-0.65697193,-0.6581927,-0.6618244,-0.66545606,-0.66423535,-0.65938294,-0.65938294,-0.6618244,-0.66545606,-0.66304517,-0.66060364,-0.65938294,-0.66060364,-0.66423535,-0.65938294,-0.6533402,-0.6508988,-0.6508988,-0.6533402,-0.6497085,-0.6448561,-0.6400037,-0.63756216,-0.63637197,-0.63274026,-0.62907803,-0.62788785,-0.62788785,-0.62907803,-0.62425613,-0.6205939,-0.6181829,-0.6181829,-0.6205939,-0.6169622,-0.6121098,-0.6096988,-0.61091954,-0.61091954,-0.6072878,-0.60121465,-0.59758294,-0.5951415,-0.5939512,-0.59150976,-0.590289,-0.590289,-0.59150976,-0.5927305,-0.5866573,-0.5806146,-0.576983,-0.576983,-0.57817316,-0.57454145,-0.5721305,-0.5721305,-0.5757622,-0.57939386,-0.5757622,-0.5721305,-0.5684988,-0.5684988,-0.567278,-0.5612049,-0.5551622,-0.5551622,-0.5575732,-0.5624256,-0.5600146,-0.5551622,-0.55149996,-0.55149996,-0.5551622,-0.5503098,-0.54545736,-0.5406048,-0.5393841,-0.5418256,-0.5393841,-0.5369732,-0.5369732,-0.5406048,-0.54423654,-0.54301584,-0.5406048,-0.5381939,-0.5369732,-0.5321207,-0.51515245,-0.49574268,-0.47999507,-0.47151095,-0.4691,-0.4654683,-0.4593951,-0.45332193,-0.4448378,-0.43031102,-0.40241706,-0.36725974,-0.33576465,-0.31635487,-0.30909145,-0.3103122,-0.32242805,-0.33939636,-0.36243784,-0.38422805,-0.40726954,-0.43516344,-0.4654683,-0.49696338,-0.52122563,-0.5321207,-0.53334147,-0.53334147,-0.5321207,-0.53334147,-0.53334147,-0.5369732,-0.54545736,-0.5575732,-0.567278,-0.57090974,-0.57090974,-0.54301584,-0.45332193,-0.2824183,-0.023041487,0.27756584,0.5648366,0.78060234,0.9090853,0.97817934,0.9939269,0.9151586,0.698172,0.3296914,-0.12485123,-0.5393841,-0.8060549,-0.89819026,-0.8751488,-0.8024231,-0.7212134,-0.6436354,-0.57332075,-0.5175634,-0.4824366,-0.47029024,-0.47514266,-0.47999507,-0.47877437,-0.46424758,-0.4460585,-0.43031102,-0.42060608,-0.41212195,-0.39878535,-0.3830378,-0.36725974,-0.35877562,-0.3515122,-0.3381756,-0.3236488,-0.30909145,-0.2957549,-0.283639,-0.26545,-0.24726093,-0.23151344,-0.21695608,-0.20365,-0.18301952,-0.16000855,-0.13574636,-0.113925576,-0.093325675,-0.06909388,-0.04486215,-0.024231672,-0.0024109483,0.018189073,0.046052456,0.072725534,0.09454632,0.11151457,0.12485123,0.14304018,0.15756714,0.16605127,0.16605127,0.15878785,0.15152442,0.1418196,0.12607193,0.10544145,0.07879877,0.055757284,0.0278939,-0.0024109483,-0.036378086,-0.07394636,-0.106662154,-0.14423048,-0.18787193,-0.2387768,-0.2945341,-0.34546953,-0.39393294,-0.4424268,-0.48847926,-0.5345317,-0.57454145,-0.6121098,-0.6484878,-0.6824244,-0.71395004,-0.736961,-0.75515,-0.7721183,-0.7830439,-0.7903073,-0.7878659,-0.7830439,-0.7806024,-0.77819145,-0.77333903,-0.76363415,-0.74907684,-0.736961,-0.7272866,-0.7199927,-0.70909756,-0.698172,-0.68849754,-0.6800134,-0.6727195,-0.66060364,-0.6521195,-0.64726704,-0.6424146,-0.6387829,-0.63029873,-0.62425613,-0.62425613,-0.62788785,-0.6315195,-0.6254463,-0.6194037,-0.6169622,-0.6181829,-0.6218146,-0.6218146,-0.6205939,-0.6218146,-0.6254463,-0.6315195,-0.6315195,-0.6315195,-0.63274026,-0.63393044,-0.63637197,-0.63393044,-0.6315195,-0.63274026,-0.63637197,-0.6400037,-0.63756216,-0.63393044,-0.63029873,-0.62907803,-0.62788785,-0.62425613,-0.6230354,-0.62425613,-0.6266671,-0.6254463,-0.6194037,-0.6121098,-0.6096988,-0.6133305,-0.6181829,-0.615772,-0.61091954,-0.60606706,-0.60362566,-0.60484636,-0.60121465,-0.5987731,-0.5987731,-0.60121465,-0.60484636,-0.60243535,-0.5987731,-0.5963622,-0.5939512,-0.5927305,-0.5866573,-0.5818049,-0.57939386,-0.5818049,-0.5854671,-0.5830256,-0.57939386,-0.576983,-0.57454145,-0.57332075,-0.5684988,-0.56483656,-0.5624256,-0.5636463,-0.56483656,-0.5624256,-0.5587939,-0.5612049,-0.5624256,-0.5636463,-0.5600146,-0.5539415,-0.54908895,-0.54908895,-0.5503098,-0.54786825,-0.54667807,-0.54786825,-0.54908895,-0.54908895,-0.54423654,-0.5393841,-0.5381939,-0.5418256,-0.54545736,-0.54301584,-0.5406048,-0.5393841,-0.5406048,-0.54301584,-0.5406048,-0.5357524,-0.5321207,-0.5309,-0.5321207,-0.5260475,-0.51878417,-0.5090793,-0.49696338,-0.4860683,-0.47029024,-0.4593951,-0.45576346,-0.45454264,-0.45332193,-0.4412061,-0.42182684,-0.39515364,-0.36725974,-0.34061712,-0.31757563,-0.30787075,-0.31635487,-0.33454388,-0.35395366,-0.3697012,-0.38908052,-0.42182684,-0.4593951,-0.49696338,-0.51878417,-0.5272683,-0.5309,-0.5357524,-0.54301584,-0.54301584,-0.54423654,-0.54786825,-0.5527208,-0.5587939,-0.5624256,-0.5624256,-0.56483656,-0.5575732,-0.5005951,-0.36606956,-0.15030366,0.12726212,0.409711,0.64241457,0.7987915,0.8812219,0.92364275,0.9090853,0.7866757,0.5090792,0.08847308,-0.3697012,-0.7260659,-0.901822,-0.9115268,-0.84362316,-0.7624134,-0.68727684,-0.6181829,-0.5539415,-0.5054475,-0.4812159,-0.47877437,-0.48362684,-0.47877437,-0.47029024,-0.4593951,-0.4460585,-0.43272197,-0.41575366,-0.39878535,-0.38666952,-0.37818533,-0.3697012,-0.3551439,-0.34061712,-0.32969147,-0.3236488,-0.31879634,-0.3066805,-0.28971225,-0.27271336,-0.25455487,-0.23758656,-0.2157659,-0.19635606,-0.17938781,-0.16364026,-0.14789265,-0.123630404,-0.09939879,-0.07757807,-0.0606097,-0.042420805,-0.018189013,0.008484125,0.035157323,0.056978106,0.076357245,0.096957326,0.1151464,0.12485123,0.12485123,0.11877811,0.1163671,0.11151457,0.10303056,0.08847308,0.06787324,0.048493862,0.0278939,0.003631711,-0.025452435,-0.0606097,-0.093325675,-0.12848294,-0.16968292,-0.2157659,-0.263039,-0.30787075,-0.3527329,-0.40000612,-0.44969022,-0.5018159,-0.54667807,-0.5890988,-0.6315195,-0.6715293,-0.7078768,-0.73577076,-0.7563707,-0.77455974,-0.79152805,-0.8060549,-0.814539,-0.8181707,-0.8193914,-0.8181707,-0.8169805,-0.8096866,-0.8012024,-0.793939,-0.78667563,-0.77697074,-0.7648549,-0.7515183,-0.74059266,-0.7321085,-0.7272866,-0.716361,-0.7078768,-0.70061344,-0.6933195,-0.68727684,-0.6763512,-0.6703086,-0.6703086,-0.675161,-0.6800134,-0.6763512,-0.6703086,-0.66908777,-0.6703086,-0.675161,-0.675161,-0.6715293,-0.6703086,-0.6715293,-0.675161,-0.6727195,-0.6703086,-0.6715293,-0.6763512,-0.6812036,-0.6800134,-0.675161,-0.67394024,-0.67394024,-0.6787927,-0.67757195,-0.675161,-0.675161,-0.6787927,-0.6824244,-0.6787927,-0.67394024,-0.66908777,-0.66908777,-0.6727195,-0.67394024,-0.6727195,-0.6703086,-0.66786706,-0.6666769,-0.66304517,-0.65938294,-0.65697193,-0.65697193,-0.65697193,-0.6521195,-0.6497085,-0.6521195,-0.6557512,-0.6557512,-0.6497085,-0.6424146,-0.63756216,-0.6387829,-0.6400037,-0.63393044,-0.62907803,-0.62907803,-0.6315195,-0.63637197,-0.6315195,-0.6254463,-0.6205939,-0.6194037,-0.6205939,-0.6181829,-0.615772,-0.6133305,-0.6145512,-0.6133305,-0.6072878,-0.60243535,-0.60243535,-0.6072878,-0.6121098,-0.61091954,-0.60606706,-0.60243535,-0.60121465,-0.60362566,-0.60121465,-0.5987731,-0.5987731,-0.60243535,-0.60484636,-0.60243535,-0.5987731,-0.5951415,-0.5951415,-0.5963622,-0.5927305,-0.590289,-0.59150976,-0.5963622,-0.60362566,-0.60121465,-0.5927305,-0.576983,-0.5575732,-0.5418256,-0.52848905,-0.5224158,-0.5236366,-0.5236366,-0.5224158,-0.51030004,-0.49574268,-0.47758418,-0.45454264,-0.4266793,-0.39515364,-0.37455368,-0.37092197,-0.3830378,-0.40363777,-0.41938537,-0.43879515,-0.47029024,-0.5066683,-0.5418256,-0.56483656,-0.57332075,-0.57817316,-0.5854671,-0.5927305,-0.5939512,-0.5939512,-0.5951415,-0.60121465,-0.6096988,-0.6133305,-0.6121098,-0.61091954,-0.6072878,-0.57454145,-0.47758418,-0.3103122,-0.07879877,0.17816699,0.40241706,0.5612049,0.6557511,0.71514034,0.7600025,0.736961,0.57698286,0.24362934,-0.20969266,-0.63274026,-0.9006012,-0.9781793,-0.9321268,-0.8460646,-0.76363415,-0.6933195,-0.6254463,-0.57090974,-0.5369732,-0.52485734,-0.52485734,-0.52000487,-0.5139317,-0.5042573,-0.4945525,-0.48362684,-0.46787924,-0.45454264,-0.4448378,-0.4375744,-0.43031102,-0.4133427,-0.39756465,-0.38181704,-0.37092197,-0.36121708,-0.34665978,-0.33091217,-0.31635487,-0.30301827,-0.28971225,-0.27152318,-0.2521134,-0.23392439,-0.21695608,-0.19998777,-0.17816705,-0.15515614,-0.13455611,-0.117587805,-0.09939879,-0.07394636,-0.046052456,-0.018189013,0.003631711,0.020599961,0.04120004,0.056978106,0.06787324,0.072725534,0.07394636,0.079989076,0.08120978,0.07513654,0.059388995,0.038789034,0.019379258,0.0,-0.023041487,-0.04849392,-0.07879877,-0.106662154,-0.13940853,-0.17816705,-0.22425002,-0.2751549,-0.32120734,-0.3697012,-0.42060608,-0.47395247,-0.5272683,-0.57332075,-0.6169622,-0.6581927,-0.6993927,-0.736961,-0.76363415,-0.78667563,-0.80849636,-0.8278756,-0.84484386,-0.85332805,-0.8557695,-0.8557695,-0.8545488,-0.85332805,-0.8472854,-0.84121215,-0.8375805,-0.832728,-0.82665485,-0.8133183,-0.7987914,-0.78667563,-0.77819145,-0.7721183,-0.7612232,-0.7515183,-0.7442549,-0.7394024,-0.7333293,-0.72243416,-0.7127293,-0.7078768,-0.7078768,-0.70909756,-0.70546585,-0.6993927,-0.69454026,-0.69454026,-0.69576097,-0.69576097,-0.69576097,-0.698172,-0.7018037,-0.7030244,-0.698172,-0.69454026,-0.6933195,-0.698172,-0.7030244,-0.7030244,-0.7018037,-0.7018037,-0.7042451,-0.70546585,-0.70061344,-0.69454026,-0.6933195,-0.698172,-0.70546585,-0.7066561,-0.7030244,-0.6993927,-0.6993927,-0.6993927,-0.69576097,-0.69212925,-0.69090855,-0.69090855,-0.69090855,-0.6848353,-0.6812036,-0.6812036,-0.6836451,-0.6848353,-0.6787927,-0.6727195,-0.66908777,-0.66908777,-0.6703086,-0.6666769,-0.66304517,-0.66304517,-0.66423535,-0.6666769,-0.66304517,-0.6581927,-0.65697193,-0.65938294,-0.6618244,-0.6581927,-0.6521195,-0.64726704,-0.64604634,-0.6484878,-0.64604634,-0.6436354,-0.6424146,-0.6436354,-0.6448561,-0.6400037,-0.63393044,-0.62907803,-0.6266671,-0.6230354,-0.6181829,-0.6169622,-0.6194037,-0.6266671,-0.6315195,-0.6266671,-0.6205939,-0.615772,-0.615772,-0.6169622,-0.6121098,-0.60847807,-0.60484636,-0.60484636,-0.60606706,-0.60243535,-0.5999939,-0.5987731,-0.60121465,-0.60243535,-0.59758294,-0.5927305,-0.59150976,-0.5927305,-0.5963622,-0.59150976,-0.5806146,-0.56483656,-0.5503098,-0.5357524,-0.52122563,-0.51274145,-0.5090793,-0.5090793,-0.5066683,-0.49333167,-0.47151095,-0.4448378,-0.41819513,-0.39515364,-0.37696463,-0.37092197,-0.37574387,-0.39030123,-0.40604877,-0.41938537,-0.4375744,-0.4691,-0.5066683,-0.5418256,-0.56483656,-0.576983,-0.58424634,-0.590289,-0.5939512,-0.59150976,-0.5866573,-0.5854671,-0.590289,-0.5999939,-0.6072878,-0.6133305,-0.6194037,-0.6096988,-0.54423654,-0.39393294,-0.15878779,0.13211465,0.42301714,0.65938294,0.8145391,0.89574873,0.93212676,0.89455855,0.7381818,0.43635368,0.010895014,-0.4315012,-0.76363415,-0.920011,-0.9272744,-0.86303294,-0.7793817,-0.7030244,-0.63274026,-0.5721305,-0.53334147,-0.52122563,-0.5260475,-0.5309,-0.52485734,-0.51030004,-0.4945525,-0.4824366,-0.47151095,-0.45698416,-0.4412061,-0.43031102,-0.42301708,-0.41575366,-0.40122682,-0.38666952,-0.3721122,-0.36243784,-0.3527329,-0.3381756,-0.32242805,-0.3066805,-0.2933439,-0.2800073,-0.26059753,-0.24121833,-0.2218085,-0.20484024,-0.1890927,-0.16849267,-0.14423048,-0.11877811,-0.09576714,-0.07394636,-0.04486215,-0.01696825,0.008484125,0.032715797,0.05453658,0.07879877,0.096957326,0.10788298,0.10910368,0.104251266,0.104251266,0.100619555,0.09454632,0.079989076,0.0606097,0.042420745,0.021820664,-0.0036317706,-0.035157263,-0.070314586,-0.10180974,-0.13696706,-0.1757561,-0.2218085,-0.27271336,-0.31879634,-0.36725974,-0.41697437,-0.46787924,-0.5175634,-0.5612049,-0.5999939,-0.63756216,-0.67394024,-0.7078768,-0.7333293,-0.75756097,-0.7806024,-0.8024231,-0.8181707,-0.82183295,-0.82183295,-0.8206122,-0.8193914,-0.8181707,-0.8096866,-0.8012024,-0.7927183,-0.78545487,-0.77697074,-0.7624134,-0.74907684,-0.7394024,-0.7321085,-0.7248451,-0.7115085,-0.698172,-0.6896878,-0.6848353,-0.6812036,-0.67394024,-0.6666769,-0.66060364,-0.6581927,-0.65697193,-0.6521195,-0.6508988,-0.6521195,-0.6581927,-0.6618244,-0.65938294,-0.6581927,-0.6581927,-0.66060364,-0.66304517,-0.65938294,-0.65453047,-0.6533402,-0.65453047,-0.65697193,-0.6533402,-0.6484878,-0.64604634,-0.64604634,-0.6484878,-0.64604634,-0.6448561,-0.6448561,-0.64604634,-0.64726704,-0.6436354,-0.6412244,-0.6412244,-0.6436354,-0.6448561,-0.6400037,-0.63393044,-0.63274026,-0.63393044,-0.63637197,-0.63274026,-0.62907803,-0.6266671,-0.62788785,-0.62907803,-0.6230354,-0.6169622,-0.6121098,-0.6133305,-0.615772,-0.6133305,-0.6096988,-0.60606706,-0.60484636,-0.60484636,-0.5999939,-0.5939512,-0.59150976,-0.590289,-0.59150976,-0.5866573,-0.58424634,-0.58424634,-0.5854671,-0.58787805,-0.5818049,-0.5757622,-0.5721305,-0.57332075,-0.5757622,-0.57454145,-0.5721305,-0.5721305,-0.57332075,-0.57454145,-0.56968904,-0.5636463,-0.5600146,-0.5600146,-0.5624256,-0.5587939,-0.5551622,-0.5539415,-0.5551622,-0.55635244,-0.5539415,-0.5503098,-0.54908895,-0.5503098,-0.55149996,-0.54908895,-0.54545736,-0.54423654,-0.54545736,-0.54667807,-0.54301584,-0.5406048,-0.5393841,-0.5418256,-0.54423654,-0.5393841,-0.52970976,-0.51515245,-0.4994049,-0.48725855,-0.47395247,-0.46787924,-0.46665853,-0.46787924,-0.46424758,-0.44969022,-0.4278695,-0.40122682,-0.37092197,-0.34546953,-0.32120734,-0.30787075,-0.3115024,-0.3284707,-0.3515122,-0.37333292,-0.39878535,-0.4315012,-0.46787924,-0.5030366,-0.52485734,-0.5357524,-0.5418256,-0.54667807,-0.5503098,-0.5503098,-0.5503098,-0.5551622,-0.5624256,-0.56968904,-0.56968904,-0.5684988,-0.5721305,-0.567278,-0.5175634,-0.38666952,-0.16849267,0.117587805,0.4145329,0.66667676,0.83758056,0.92486346,0.9624318,0.9381695,0.80483425,0.5272683,0.11151457,-0.34424877,-0.7066561,-0.8897061,-0.9090854,-0.8484756,-0.76726586,-0.69212925,-0.6218146,-0.5527208,-0.5042573,-0.4824366,-0.4824366,-0.49092072,-0.48847926,-0.47636342,-0.46061587,-0.44727927,-0.43516344,-0.41938537,-0.40604877,-0.39515364,-0.38666952,-0.37818533,-0.36362803,-0.34910125,-0.33695483,-0.32728046,-0.31998658,-0.30423903,-0.28604996,-0.26908165,-0.2521134,-0.23758656,-0.21695608,-0.19635606,-0.17816705,-0.16000855,-0.14181954,-0.117587805,-0.093325675,-0.070314586,-0.052125633,-0.032715857,-0.007263422,0.020599961,0.046052456,0.06787324,0.087282896,0.10910368,0.12970376,0.14545119,0.15271461,0.15515614,0.15637684,0.15515614,0.14667189,0.13089395,0.11151457,0.093325615,0.07150483,0.04486215,0.012115836,-0.021820664,-0.05090487,-0.083651185,-0.123630404,-0.17090362,-0.22061831,-0.26789147,-0.3151647,-0.3648488,-0.41938537,-0.47395247,-0.52000487,-0.5624256,-0.60362566,-0.6448561,-0.6848353,-0.7151402,-0.7394024,-0.75756097,-0.77333903,-0.78667563,-0.79515976,-0.80001223,-0.8048341,-0.8048341,-0.8012024,-0.7890866,-0.7793817,-0.7721183,-0.76726586,-0.76363415,-0.75029755,-0.73577076,-0.72362435,-0.71758175,-0.7115085,-0.7018037,-0.69212925,-0.6824244,-0.67757195,-0.675161,-0.6666769,-0.65938294,-0.6533402,-0.6521195,-0.6533402,-0.6508988,-0.6484878,-0.6484878,-0.6497085,-0.6508988,-0.6484878,-0.64726704,-0.6497085,-0.65453047,-0.65938294,-0.6557512,-0.6508988,-0.6497085,-0.6508988,-0.65453047,-0.6533402,-0.6508988,-0.6508988,-0.6533402,-0.65697193,-0.65453047,-0.6508988,-0.6521195,-0.65453047,-0.65697193,-0.65453047,-0.6521195,-0.6484878,-0.64726704,-0.64726704,-0.6436354,-0.6400037,-0.6400037,-0.6412244,-0.6412244,-0.63515127,-0.63029873,-0.6266671,-0.62788785,-0.62907803,-0.6254463,-0.6205939,-0.6181829,-0.6181829,-0.6194037,-0.6121098,-0.60606706,-0.60362566,-0.60484636,-0.6096988,-0.6096988,-0.60606706,-0.60243535,-0.5999939,-0.5999939,-0.5963622,-0.59150976,-0.590289,-0.590289,-0.590289,-0.5854671,-0.5806146,-0.57817316,-0.5806146,-0.5866573,-0.5866573,-0.58424634,-0.5830256,-0.5818049,-0.5830256,-0.5806146,-0.57817316,-0.57817316,-0.5806146,-0.58424634,-0.5818049,-0.576983,-0.57332075,-0.56968904,-0.567278,-0.5612049,-0.5575732,-0.5575732,-0.5612049,-0.5660573,-0.5636463,-0.5587939,-0.5551622,-0.5551622,-0.5575732,-0.5551622,-0.5503098,-0.5406048,-0.52848905,-0.51515245,-0.4994049,-0.49211097,-0.49092072,-0.49211097,-0.49092072,-0.4812159,-0.46787924,-0.45454264,-0.4375744,-0.41575366,-0.38666952,-0.3563646,-0.33332318,-0.32605976,-0.33454388,-0.35395366,-0.39030123,-0.4399854,-0.4860683,-0.5224158,-0.5406048,-0.54545736,-0.54667807,-0.5503098,-0.5551622,-0.5551622,-0.5539415,-0.55635244,-0.5636463,-0.5721305,-0.57817316,-0.5806146,-0.58424634,-0.58787805,-0.5660573,-0.47999507,-0.31998658,-0.089693904,0.18060863,0.43272197,0.6205939,0.7357708,0.793939,0.82787573,0.8036438,0.65938294,0.34665978,-0.09817797,-0.5393841,-0.84121215,-0.9515061,-0.9236427,-0.8460646,-0.7684866,-0.69576097,-0.6205939,-0.55149996,-0.5054475,-0.48847926,-0.49092072,-0.49333167,-0.48725855,-0.47514266,-0.4593951,-0.44364756,-0.42545855,-0.41212195,-0.40241706,-0.39515364,-0.38789028,-0.37818533,-0.36725974,-0.3563646,-0.34665978,-0.33332318,-0.31272316,-0.2933439,-0.2787866,-0.26545,-0.25092316,-0.23151344,-0.21091342,-0.19150364,-0.1757561,-0.1624195,-0.14059877,-0.11999875,-0.09939879,-0.07879877,-0.056978106,-0.029084206,-0.0024109483,0.023041487,0.04486215,0.06424153,0.087282896,0.10666227,0.11877811,0.12485123,0.12607193,0.12607193,0.123630404,0.1163671,0.104251266,0.08847308,0.07394636,0.055757284,0.03393662,0.008484125,-0.019379199,-0.0472731,-0.08243048,-0.12485123,-0.17212445,-0.22302932,-0.26545,-0.3103122,-0.35877562,-0.409711,-0.46061587,-0.5042573,-0.54545736,-0.5890988,-0.63393044,-0.67394024,-0.7042451,-0.7296976,-0.7515183,-0.77455974,-0.7927183,-0.80001223,-0.8024231,-0.8024231,-0.8048341,-0.8060549,-0.80001223,-0.7927183,-0.78667563,-0.7806024,-0.77455974,-0.76363415,-0.7515183,-0.7430341,-0.736961,-0.7296976,-0.716361,-0.7042451,-0.69698167,-0.69212925,-0.68849754,-0.6787927,-0.66786706,-0.6618244,-0.65938294,-0.6618244,-0.65938294,-0.65938294,-0.66060364,-0.66304517,-0.66423535,-0.66060364,-0.6581927,-0.65938294,-0.66060364,-0.6618244,-0.65697193,-0.65453047,-0.65453047,-0.66060364,-0.66545606,-0.6618244,-0.65697193,-0.6533402,-0.6557512,-0.6618244,-0.6618244,-0.66060364,-0.65938294,-0.65938294,-0.66060364,-0.6581927,-0.65697193,-0.6557512,-0.6581927,-0.66060364,-0.6557512,-0.6508988,-0.64726704,-0.64604634,-0.64726704,-0.6436354,-0.6400037,-0.6387829,-0.6400037,-0.6424146,-0.63756216,-0.63274026,-0.62907803,-0.62907803,-0.62907803,-0.6254463,-0.6205939,-0.6181829,-0.6181829,-0.6194037,-0.615772,-0.6121098,-0.60847807,-0.6072878,-0.60606706,-0.5999939,-0.5963622,-0.5939512,-0.5963622,-0.59758294,-0.59150976,-0.5866573,-0.58424634,-0.5854671,-0.58787805,-0.58424634,-0.5806146,-0.57939386,-0.5818049,-0.58424634,-0.5818049,-0.57817316,-0.576983,-0.57817316,-0.5818049,-0.57939386,-0.5757622,-0.57332075,-0.56968904,-0.5612049,-0.54667807,-0.5309,-0.5224158,-0.52122563,-0.5236366,-0.51878417,-0.51152074,-0.5018159,-0.49211097,-0.47999507,-0.45576346,-0.4290902,-0.40122682,-0.37696463,-0.36121708,-0.35877562,-0.37092197,-0.40000612,-0.4448378,-0.49211097,-0.5260475,-0.55149996,-0.56483656,-0.57090974,-0.5757622,-0.576983,-0.57817316,-0.5806146,-0.58787805,-0.5963622,-0.5999939,-0.60606706,-0.6121098,-0.6169622,-0.6218146,-0.61091954,-0.55635244,-0.4375744,-0.24970245,-0.0012207627,0.26181817,0.4763633,0.6145512,0.68968785,0.7418133,0.77575004,0.72243416,0.51030004,0.13089395,-0.32969147,-0.71395004,-0.92605364,-0.9684744,-0.9139378,-0.8315073,-0.7478866,-0.6715293,-0.60362566,-0.55635244,-0.5309,-0.52000487,-0.51878417,-0.51878417,-0.51515245,-0.5066683,-0.48970002,-0.47395247,-0.46061587,-0.45213175,-0.4448378,-0.4315012,-0.41697437,-0.4048586,-0.39515364,-0.38544875,-0.3684805,-0.35029143,-0.33332318,-0.31998658,-0.30909145,-0.2933439,-0.2763756,-0.25940728,-0.24362922,-0.22788173,-0.20728171,-0.18546098,-0.16486096,-0.14545119,-0.12485123,-0.09817797,-0.07150489,-0.04486215,-0.02060002,0.0024110079,0.029084206,0.05453658,0.07513654,0.089693904,0.09939873,0.110293865,0.117587805,0.1163671,0.10910368,0.09817803,0.087282896,0.07394636,0.05453658,0.029084206,0.0,-0.025452435,-0.053346336,-0.087282956,-0.1297037,-0.17697686,-0.22425002,-0.2739342,-0.32728046,-0.3830378,-0.4375744,-0.48484755,-0.5309,-0.576983,-0.6230354,-0.6703086,-0.7078768,-0.74059266,-0.77089757,-0.80001223,-0.8242439,-0.84121215,-0.8521073,-0.8605915,-0.8654439,-0.86788535,-0.86303294,-0.8545488,-0.8484756,-0.84362316,-0.8375805,-0.82665485,-0.8157598,-0.8048341,-0.7975707,-0.7903073,-0.77575,-0.7612232,-0.74907684,-0.7394024,-0.73455,-0.7260659,-0.71758175,-0.7127293,-0.70909756,-0.7078768,-0.7018037,-0.69698167,-0.69454026,-0.69454026,-0.69576097,-0.6933195,-0.69090855,-0.6896878,-0.6933195,-0.69698167,-0.69576097,-0.69212925,-0.69090855,-0.6933195,-0.698172,-0.69698167,-0.69454026,-0.69454026,-0.69698167,-0.6993927,-0.69698167,-0.69576097,-0.69454026,-0.69698167,-0.7018037,-0.70061344,-0.698172,-0.69576097,-0.69698167,-0.698172,-0.69454026,-0.69090855,-0.68849754,-0.68849754,-0.68849754,-0.6836451,-0.6787927,-0.6763512,-0.67757195,-0.6787927,-0.67394024,-0.66908777,-0.66786706,-0.6703086,-0.67394024,-0.6727195,-0.66908777,-0.6666769,-0.66545606,-0.66545606,-0.66060364,-0.65697193,-0.6557512,-0.6581927,-0.66060364,-0.6557512,-0.6521195,-0.6508988,-0.6508988,-0.6533402,-0.64604634,-0.6387829,-0.63393044,-0.63393044,-0.63637197,-0.63393044,-0.6315195,-0.62788785,-0.62907803,-0.63029873,-0.6266671,-0.62425613,-0.6230354,-0.6230354,-0.6254463,-0.6230354,-0.6194037,-0.6133305,-0.60121465,-0.5866573,-0.5660573,-0.55149996,-0.54667807,-0.54786825,-0.54786825,-0.5418256,-0.53334147,-0.52848905,-0.5224158,-0.5090793,-0.4824366,-0.44850004,-0.41453296,-0.39030123,-0.38422805,-0.39152193,-0.41575366,-0.45698416,-0.5090793,-0.5539415,-0.58424634,-0.60121465,-0.60847807,-0.6145512,-0.6205939,-0.6205939,-0.6205939,-0.62425613,-0.63274026,-0.6424146,-0.6497085,-0.65453047,-0.6557512,-0.65938294,-0.6557512,-0.60362566,-0.4812159,-0.27756584,-0.004852414,0.28727067,0.5478684,0.7284769,0.8242439,0.87029624,0.86544394,0.77333903,0.53938425,0.15637684,-0.29819638,-0.69212925,-0.92120117,-0.9830317,-0.9454634,-0.8727378,-0.7927183,-0.7127293,-0.6400037,-0.58787805,-0.56483656,-0.56483656,-0.56483656,-0.5624256,-0.5539415,-0.54301584,-0.5309,-0.51515245,-0.4994049,-0.4860683,-0.47514266,-0.46665853,-0.45332193,-0.43879515,-0.4266793,-0.41575366,-0.40363777,-0.38544875,-0.3697012,-0.3551439,-0.34424877,-0.33213294,-0.3115024,-0.29090244,-0.27152318,-0.25455487,-0.23758656,-0.21454513,-0.18787193,-0.16364026,-0.14181954,-0.11999875,-0.09454632,-0.06787324,-0.041199982,-0.01696825,0.008484125,0.036378026,0.063020706,0.08484149,0.096957326,0.10180974,0.10666227,0.10666227,0.104251266,0.09576702,0.08243048,0.06787324,0.048493862,0.024231672,-0.004852414,-0.036378086,-0.06665242,-0.09939879,-0.14059877,-0.18787193,-0.2387768,-0.28604996,-0.33332318,-0.38544875,-0.4448378,-0.5042573,-0.55635244,-0.60362566,-0.6484878,-0.69212925,-0.7333293,-0.7660756,-0.793939,-0.8181707,-0.84121215,-0.8594012,-0.8702963,-0.873928,-0.8751488,-0.87759024,-0.87636954,-0.8691061,-0.8594012,-0.8509171,-0.8460646,-0.83999145,-0.8278756,-0.81212807,-0.7975707,-0.78667563,-0.7793817,-0.7684866,-0.75756097,-0.7478866,-0.7418134,-0.73455,-0.72362435,-0.7127293,-0.70546585,-0.7030244,-0.7042451,-0.7018037,-0.698172,-0.69698167,-0.698172,-0.6993927,-0.69698167,-0.6933195,-0.69212925,-0.69454026,-0.698172,-0.69698167,-0.69454026,-0.69454026,-0.69698167,-0.70061344,-0.698172,-0.69454026,-0.6933195,-0.69454026,-0.69698167,-0.69454026,-0.69212925,-0.69090855,-0.6933195,-0.69576097,-0.69212925,-0.68849754,-0.68727684,-0.68849754,-0.69212925,-0.68727684,-0.6824244,-0.6787927,-0.67757195,-0.6787927,-0.6763512,-0.6727195,-0.6715293,-0.6727195,-0.6727195,-0.6666769,-0.65938294,-0.6557512,-0.6581927,-0.66060364,-0.6557512,-0.6484878,-0.6412244,-0.6387829,-0.6400037,-0.63756216,-0.63393044,-0.63393044,-0.63515127,-0.63637197,-0.6315195,-0.6266671,-0.6254463,-0.6266671,-0.62788785,-0.6254463,-0.6205939,-0.6194037,-0.6194037,-0.6205939,-0.6169622,-0.6121098,-0.6096988,-0.60847807,-0.6096988,-0.60606706,-0.60243535,-0.5987731,-0.5963622,-0.5951415,-0.590289,-0.5866573,-0.58787805,-0.59150976,-0.5939512,-0.59150976,-0.5866573,-0.57939386,-0.5684988,-0.55635244,-0.5381939,-0.5224158,-0.51637316,-0.51637316,-0.51637316,-0.51030004,-0.5005951,-0.49092072,-0.4824366,-0.46787924,-0.4399854,-0.40726954,-0.37333292,-0.3515122,-0.34665978,-0.3563646,-0.3830378,-0.42182684,-0.47151095,-0.5139317,-0.5418256,-0.5612049,-0.5684988,-0.57332075,-0.576983,-0.5757622,-0.5757622,-0.57939386,-0.5866573,-0.5951415,-0.5999939,-0.60362566,-0.60847807,-0.615772,-0.6169622,-0.57817316,-0.47029024,-0.2800073,-0.012115836,0.28727067,0.567278,0.7708975,0.8848536,0.93453777,0.93212676,0.8436233,0.6157719,0.2363658,-0.22425002,-0.63274026,-0.8751488,-0.9430219,-0.9042329,-0.8303171,-0.75392926,-0.67757195,-0.60606706,-0.5503098,-0.52122563,-0.51515245,-0.51515245,-0.5139317,-0.5066683,-0.49818414,-0.4860683,-0.47029024,-0.45332193,-0.4399854,-0.4315012,-0.42545855,-0.41212195,-0.39878535,-0.38544875,-0.37455368,-0.36362803,-0.34788048,-0.33091217,-0.31394392,-0.30060732,-0.28849143,-0.27030247,-0.2521134,-0.23514509,-0.22061831,-0.20484024,-0.18182927,-0.15637684,-0.13089389,-0.106662154,-0.08484149,-0.058168292,-0.03030485,-0.0024109483,0.023041487,0.046052456,0.07150483,0.09454632,0.113925576,0.12848294,0.13818777,0.14789271,0.15152442,0.14667189,0.13455606,0.117587805,0.10303056,0.08606219,0.06546223,0.038789034,0.008484125,-0.019379199,-0.049684107,-0.08847314,-0.13574636,-0.18668169,-0.23636585,-0.28604996,-0.33576465,-0.38908052,-0.44364756,-0.49211097,-0.5406048,-0.58787805,-0.63393044,-0.6787927,-0.7151402,-0.74666584,-0.77455974,-0.8012024,-0.82183295,-0.832728,-0.83635974,-0.8375805,-0.8375805,-0.8375805,-0.832728,-0.82665485,-0.8206122,-0.8169805,-0.8109073,-0.80001223,-0.7878659,-0.77575,-0.7660756,-0.7563707,-0.7418134,-0.7272866,-0.71758175,-0.7127293,-0.70909756,-0.70061344,-0.6933195,-0.68605614,-0.6836451,-0.6812036,-0.6763512,-0.6703086,-0.66908777,-0.6715293,-0.67394024,-0.6715293,-0.66908777,-0.66786706,-0.6703086,-0.6715293,-0.66908777,-0.66545606,-0.66545606,-0.6703086,-0.6763512,-0.6787927,-0.6787927,-0.6763512,-0.67394024,-0.6715293,-0.66786706,-0.66545606,-0.66786706,-0.6727195,-0.6763512,-0.6763512,-0.67394024,-0.6703086,-0.66908777,-0.66786706,-0.66545606,-0.66304517,-0.6618244,-0.66304517,-0.66423535,-0.65938294,-0.65697193,-0.6557512,-0.65697193,-0.65697193,-0.6508988,-0.6448561,-0.6412244,-0.6424146,-0.6436354,-0.6400037,-0.63274026,-0.6254463,-0.6230354,-0.6230354,-0.6194037,-0.6181829,-0.6169622,-0.615772,-0.6169622,-0.61091954,-0.6072878,-0.60484636,-0.6072878,-0.6096988,-0.60606706,-0.60243535,-0.5987731,-0.59758294,-0.59758294,-0.5951415,-0.5927305,-0.5939512,-0.5951415,-0.5963622,-0.5927305,-0.5890988,-0.590289,-0.5927305,-0.5939512,-0.58787805,-0.57939386,-0.5757622,-0.576983,-0.5818049,-0.5806146,-0.576983,-0.57454145,-0.57454145,-0.57454145,-0.567278,-0.5624256,-0.5600146,-0.5600146,-0.5587939,-0.54545736,-0.52848905,-0.5139317,-0.5066683,-0.5066683,-0.5018159,-0.49574268,-0.48970002,-0.48362684,-0.47758418,-0.46180612,-0.4375744,-0.40726954,-0.37818533,-0.35029143,-0.3284707,-0.3236488,-0.34061712,-0.37455368,-0.42060608,-0.46302682,-0.49574268,-0.5236366,-0.5418256,-0.55149996,-0.55149996,-0.54908895,-0.54908895,-0.5539415,-0.5624256,-0.5660573,-0.57090974,-0.5757622,-0.58424634,-0.5890988,-0.5890988,-0.5806146,-0.52970976,-0.41212195,-0.21332437,0.06183052,0.35758543,0.6096988,0.77455986,0.8605914,0.9078646,0.9127171,0.8230232,0.57698286,0.17090368,-0.29819638,-0.68849754,-0.9030427,-0.9442427,-0.8872646,-0.8012024,-0.71880245,-0.6448561,-0.5806146,-0.5321207,-0.5005951,-0.4860683,-0.48362684,-0.4812159,-0.47395247,-0.46180612,-0.44727927,-0.43516344,-0.4266793,-0.41819513,-0.40363777,-0.38789028,-0.37333292,-0.36362803,-0.3515122,-0.33576465,-0.31879634,-0.30423903,-0.2945341,-0.28604996,-0.26908165,-0.24970245,-0.23029268,-0.21454513,-0.20120853,-0.18182927,-0.1611988,-0.13818783,-0.1163671,-0.09576714,-0.07150489,-0.0472731,-0.021820664,0.0024110079,0.029084206,0.058168292,0.08484149,0.10544145,0.11999881,0.13333535,0.1503036,0.16241944,0.16968298,0.16727197,0.15878785,0.15271461,0.1418196,0.12607193,0.09939873,0.07031453,0.04486215,0.019379258,-0.008484185,-0.041199982,-0.07757807,-0.117587805,-0.1611988,-0.21213412,-0.26789147,-0.32605976,-0.37574387,-0.42182684,-0.46665853,-0.51274145,-0.5600146,-0.60121465,-0.6400037,-0.675161,-0.7078768,-0.736961,-0.7563707,-0.7721183,-0.78423417,-0.79515976,-0.8012024,-0.7975707,-0.7927183,-0.7878659,-0.7830439,-0.77819145,-0.7648549,-0.75029755,-0.7394024,-0.7321085,-0.7260659,-0.71395004,-0.70061344,-0.68727684,-0.6824244,-0.6763512,-0.6666769,-0.65453047,-0.6448561,-0.6400037,-0.6387829,-0.63756216,-0.63393044,-0.6315195,-0.63029873,-0.62788785,-0.6218146,-0.6181829,-0.615772,-0.6194037,-0.6230354,-0.6230354,-0.6218146,-0.6230354,-0.6266671,-0.62907803,-0.6266671,-0.6205939,-0.6194037,-0.6218146,-0.6254463,-0.62425613,-0.6230354,-0.6230354,-0.6266671,-0.63029873,-0.62907803,-0.6254463,-0.6218146,-0.6254463,-0.62907803,-0.6266671,-0.6230354,-0.6169622,-0.615772,-0.615772,-0.61091954,-0.60606706,-0.60243535,-0.60606706,-0.6096988,-0.60847807,-0.60484636,-0.5987731,-0.5987731,-0.5987731,-0.59758294,-0.5939512,-0.5890988,-0.5854671,-0.5806146,-0.57454145,-0.56968904,-0.56968904,-0.57332075,-0.57939386,-0.5757622,-0.57090974,-0.567278,-0.567278,-0.567278,-0.5636463,-0.55635244,-0.5503098,-0.54786825,-0.54786825,-0.54545736,-0.54301584,-0.5418256,-0.54301584,-0.54545736,-0.54301584,-0.5393841,-0.5345317,-0.5369732,-0.5406048,-0.5393841,-0.5381939,-0.5381939,-0.5381939,-0.5406048,-0.5369732,-0.5321207,-0.52848905,-0.52848905,-0.52848905,-0.5175634,-0.5054475,-0.49333167,-0.4860683,-0.48484755,-0.4824366,-0.47636342,-0.47029024,-0.4654683,-0.4593951,-0.4460585,-0.4266793,-0.40122682,-0.37574387,-0.34910125,-0.32120734,-0.30423903,-0.30787075,-0.33332318,-0.37574387,-0.42182684,-0.4581744,-0.48484755,-0.5054475,-0.51515245,-0.5175634,-0.51878417,-0.52000487,-0.5260475,-0.53334147,-0.5357524,-0.5381939,-0.5393841,-0.54423654,-0.54786825,-0.54545736,-0.5418256,-0.5139317,-0.43516344,-0.29090244,-0.07513654,0.1769768,0.40241706,0.5575732,0.6460463,0.6993927,0.75514996,0.7660756,0.6484878,0.35758543,-0.07150489,-0.5054475,-0.8024231,-0.91634876,-0.8897061,-0.8048341,-0.7199927,-0.64726704,-0.5854671,-0.5321207,-0.48847926,-0.4654683,-0.4581744,-0.46061587,-0.46180612,-0.45332193,-0.43879515,-0.42301708,-0.41212195,-0.40363777,-0.39030123,-0.37696463,-0.3648488,-0.35758537,-0.3515122,-0.3381756,-0.32483906,-0.30909145,-0.2969756,-0.28485978,-0.26789147,-0.24970245,-0.23273414,-0.21939754,-0.206061,-0.18668169,-0.16364026,-0.14304024,-0.123630404,-0.10788292,-0.08606213,-0.0606097,-0.03393662,-0.009704828,0.012115836,0.035157323,0.058168292,0.079989076,0.096957326,0.113925576,0.13333535,0.14667189,0.15515614,0.15393543,0.1490829,0.14304018,0.13455606,0.1224097,0.10303056,0.07879877,0.056978106,0.031525612,0.0012208223,-0.032715857,-0.07150489,-0.11151457,-0.15393537,-0.2024293,-0.25696588,-0.31272316,-0.36362803,-0.4133427,-0.46302682,-0.5139317,-0.5624256,-0.60243535,-0.6412244,-0.67757195,-0.7151402,-0.7478866,-0.77089757,-0.78667563,-0.7987914,-0.8096866,-0.8181707,-0.8193914,-0.8181707,-0.8157598,-0.814539,-0.81212807,-0.80364394,-0.7903073,-0.77819145,-0.77089757,-0.7648549,-0.75515,-0.7430341,-0.7296976,-0.71880245,-0.70909756,-0.69698167,-0.68727684,-0.6812036,-0.67757195,-0.675161,-0.6666769,-0.6581927,-0.6533402,-0.65453047,-0.65697193,-0.6533402,-0.6497085,-0.64726704,-0.6497085,-0.6557512,-0.65697193,-0.6557512,-0.6557512,-0.65938294,-0.66304517,-0.6618244,-0.66060364,-0.6581927,-0.65938294,-0.66304517,-0.6618244,-0.66060364,-0.66304517,-0.66786706,-0.6715293,-0.66908777,-0.6666769,-0.6666769,-0.6703086,-0.67394024,-0.6727195,-0.66786706,-0.66304517,-0.66304517,-0.66545606,-0.66423535,-0.66304517,-0.65938294,-0.65697193,-0.65453047,-0.6484878,-0.6436354,-0.6412244,-0.6424146,-0.6448561,-0.6400037,-0.63515127,-0.6315195,-0.63274026,-0.63515127,-0.63274026,-0.62788785,-0.62425613,-0.62425613,-0.6266671,-0.62425613,-0.6218146,-0.6194037,-0.6194037,-0.6205939,-0.6181829,-0.6145512,-0.6121098,-0.6133305,-0.6145512,-0.61091954,-0.6072878,-0.60362566,-0.60606706,-0.60847807,-0.60484636,-0.5987731,-0.5951415,-0.5963622,-0.5999939,-0.5987731,-0.5951415,-0.59150976,-0.59150976,-0.5927305,-0.5890988,-0.5830256,-0.57090974,-0.5575732,-0.54545736,-0.5309,-0.5224158,-0.52000487,-0.52122563,-0.52122563,-0.51515245,-0.5054475,-0.49333167,-0.4812159,-0.46061587,-0.4315012,-0.40000612,-0.37092197,-0.35877562,-0.36243784,-0.37818533,-0.4048586,-0.44364756,-0.4860683,-0.5236366,-0.54786825,-0.5587939,-0.5612049,-0.56483656,-0.5684988,-0.56968904,-0.56968904,-0.5721305,-0.57817316,-0.5866573,-0.5927305,-0.59758294,-0.60121465,-0.60606706,-0.590289,-0.51515245,-0.36243784,-0.1297037,0.15152442,0.42786944,0.6545304,0.80001223,0.88000107,0.9163488,0.88000107,0.7309183,0.42909026,0.003631711,-0.43516344,-0.76000243,-0.9054537,-0.9103061,-0.8472854,-0.7684866,-0.69454026,-0.6218146,-0.5612049,-0.5224158,-0.51152074,-0.51637316,-0.5175634,-0.51152074,-0.5005951,-0.48970002,-0.47877437,-0.46424758,-0.44969022,-0.43635368,-0.4266793,-0.41697437,-0.40363777,-0.38908052,-0.37455368,-0.36362803,-0.35395366,-0.3381756,-0.32120734,-0.30301827,-0.28849143,-0.2751549,-0.25818658,-0.24121833,-0.22425002,-0.20847195,-0.19272435,-0.16849267,-0.14304024,-0.117587805,-0.096957326,-0.076357305,-0.049684107,-0.021820664,0.0060732365,0.031525612,0.05453658,0.079989076,0.10303056,0.1212194,0.13089395,0.13574636,0.13940859,0.14059877,0.13696706,0.12607193,0.10910368,0.093325615,0.07394636,0.049684048,0.018189073,-0.015747607,-0.04849392,-0.08120972,-0.121219575,-0.16968292,-0.22302932,-0.2751549,-0.32728046,-0.37940615,-0.43635368,-0.49211097,-0.5406048,-0.5854671,-0.6266671,-0.6666769,-0.70546585,-0.736961,-0.7624134,-0.78545487,-0.80727565,-0.8242439,-0.8339488,-0.83635974,-0.83513904,-0.83635974,-0.83513904,-0.8278756,-0.8169805,-0.8060549,-0.7975707,-0.79152805,-0.7793817,-0.7660756,-0.752739,-0.7442549,-0.736961,-0.7248451,-0.7127293,-0.70061344,-0.69454026,-0.69212925,-0.6848353,-0.6763512,-0.66908777,-0.6666769,-0.6666769,-0.66304517,-0.65938294,-0.6557512,-0.65697193,-0.65938294,-0.6581927,-0.6557512,-0.65453047,-0.6581927,-0.65938294,-0.65697193,-0.6521195,-0.6497085,-0.6533402,-0.6581927,-0.65938294,-0.65697193,-0.6557512,-0.6581927,-0.6618244,-0.66060364,-0.6581927,-0.6557512,-0.6581927,-0.6618244,-0.6618244,-0.66060364,-0.65938294,-0.65938294,-0.65938294,-0.65453047,-0.6484878,-0.6436354,-0.6436354,-0.6448561,-0.6400037,-0.63515127,-0.63274026,-0.63393044,-0.63756216,-0.63637197,-0.6315195,-0.6266671,-0.6266671,-0.62788785,-0.6254463,-0.6205939,-0.6169622,-0.6169622,-0.6181829,-0.615772,-0.6121098,-0.6096988,-0.6096988,-0.6121098,-0.6096988,-0.60606706,-0.60362566,-0.60362566,-0.60484636,-0.60243535,-0.59758294,-0.5927305,-0.5927305,-0.5939512,-0.59150976,-0.5890988,-0.5854671,-0.5854671,-0.5866573,-0.58424634,-0.5818049,-0.57817316,-0.57939386,-0.57939386,-0.5757622,-0.57332075,-0.57090974,-0.57332075,-0.5757622,-0.57332075,-0.56968904,-0.5660573,-0.5684988,-0.5721305,-0.56968904,-0.56483656,-0.5600146,-0.5600146,-0.5612049,-0.5600146,-0.5600146,-0.5612049,-0.5660573,-0.56968904,-0.5660573,-0.5600146,-0.5539415,-0.54545736,-0.5321207,-0.51515245,-0.4994049,-0.49092072,-0.49092072,-0.49211097,-0.48847926,-0.47877437,-0.4654683,-0.45213175,-0.43272197,-0.4048586,-0.37333292,-0.34788048,-0.33695483,-0.3418073,-0.3551439,-0.37574387,-0.40122682,-0.43635368,-0.47395247,-0.5042573,-0.52848905,-0.54423654,-0.5539415,-0.5612049,-0.5624256,-0.5624256,-0.5636463,-0.5684988,-0.57454145,-0.57817316,-0.5806146,-0.5854671,-0.5927305,-0.5999939,-0.5806146,-0.5018159,-0.34302807,-0.104251206,0.18301952,0.4727317,0.7054658,0.8521073,0.92486346,0.94909513,0.89455855,0.7139499,0.3818171,-0.063020706,-0.49696338,-0.79635,-0.9175695,-0.9090854,-0.8460646,-0.7684866,-0.69090855,-0.615772,-0.5551622,-0.5224158,-0.51515245,-0.51878417,-0.52122563,-0.51637316,-0.50788903,-0.49696338,-0.4812159,-0.4654683,-0.45213175,-0.44364756,-0.43516344,-0.42301708,-0.40849024,-0.39515364,-0.38666952,-0.37818533,-0.36362803,-0.34424877,-0.32483906,-0.3115024,-0.29938662,-0.283639,-0.26422924,-0.24484998,-0.22788173,-0.21091342,-0.19031346,-0.16849267,-0.14423048,-0.123630404,-0.10180974,-0.07513654,-0.0472731,-0.02060002,0.0024110079,0.024231672,0.048493862,0.07394636,0.09576702,0.10910368,0.117587805,0.12485123,0.12970376,0.12970376,0.11999881,0.10544145,0.093325615,0.079989076,0.063020706,0.038789034,0.009704828,-0.018189013,-0.04849392,-0.08120972,-0.123630404,-0.17090362,-0.21695608,-0.263039,-0.3115024,-0.36362803,-0.41697437,-0.46424758,-0.51030004,-0.55635244,-0.60484636,-0.6508988,-0.6896878,-0.7212134,-0.74666584,-0.77333903,-0.79635,-0.81212807,-0.82302314,-0.8303171,-0.8375805,-0.84121215,-0.8375805,-0.8278756,-0.8169805,-0.80849636,-0.80001223,-0.7878659,-0.77575,-0.7624134,-0.75392926,-0.74666584,-0.73577076,-0.7248451,-0.71395004,-0.70546585,-0.698172,-0.68849754,-0.6800134,-0.6727195,-0.6715293,-0.6715293,-0.66908777,-0.66786706,-0.66545606,-0.66786706,-0.6715293,-0.66908777,-0.66545606,-0.66304517,-0.66545606,-0.66908777,-0.66786706,-0.66423535,-0.6618244,-0.66423535,-0.66908777,-0.6703086,-0.6703086,-0.66908777,-0.6727195,-0.6763512,-0.67394024,-0.66908777,-0.66423535,-0.66545606,-0.66908777,-0.6703086,-0.6703086,-0.6703086,-0.67394024,-0.67757195,-0.6763512,-0.6727195,-0.66786706,-0.6666769,-0.66545606,-0.66060364,-0.6557512,-0.6521195,-0.6533402,-0.65453047,-0.6508988,-0.64726704,-0.6436354,-0.6448561,-0.64604634,-0.6436354,-0.6400037,-0.63637197,-0.63637197,-0.6387829,-0.63637197,-0.63393044,-0.6315195,-0.6315195,-0.63274026,-0.62788785,-0.6230354,-0.6181829,-0.6181829,-0.6181829,-0.6169622,-0.6133305,-0.61091954,-0.6133305,-0.6145512,-0.61091954,-0.60606706,-0.60243535,-0.60362566,-0.60606706,-0.60484636,-0.5999939,-0.5951415,-0.5939512,-0.5939512,-0.59150976,-0.5890988,-0.58787805,-0.59150976,-0.5951415,-0.5939512,-0.59150976,-0.58787805,-0.58787805,-0.5890988,-0.5866573,-0.58424634,-0.5818049,-0.58424634,-0.5830256,-0.57939386,-0.57454145,-0.57090974,-0.57332075,-0.576983,-0.5757622,-0.57332075,-0.567278,-0.567278,-0.5660573,-0.5624256,-0.5624256,-0.5624256,-0.567278,-0.5684988,-0.55635244,-0.5369732,-0.51878417,-0.50788903,-0.5042573,-0.49818414,-0.48847926,-0.47636342,-0.46665853,-0.45576346,-0.4315012,-0.40000612,-0.36606956,-0.34424877,-0.33695483,-0.34302807,-0.35758537,-0.37574387,-0.3963744,-0.41938537,-0.44727927,-0.47758418,-0.50788903,-0.5357524,-0.5527208,-0.5575732,-0.5575732,-0.5587939,-0.56483656,-0.57090974,-0.57332075,-0.57332075,-0.57454145,-0.5818049,-0.5866573,-0.58787805,-0.5830256,-0.5527208,-0.4691,-0.3103122,-0.070314586,0.21576583,0.48606825,0.6884974,0.81090736,0.8787806,0.9078646,0.8594012,0.6703086,0.3212074,-0.13089389,-0.5575732,-0.83635974,-0.9381695,-0.91271704,-0.8303171,-0.7418134,-0.6618244,-0.5951415,-0.54301584,-0.51030004,-0.49574268,-0.4945525,-0.49818414,-0.49696338,-0.4860683,-0.4691,-0.45213175,-0.4412061,-0.4315012,-0.42060608,-0.40604877,-0.39152193,-0.38181704,-0.37092197,-0.35758537,-0.34302807,-0.32728046,-0.31635487,-0.30909145,-0.2969756,-0.283639,-0.26545,-0.24970245,-0.23151344,-0.20847195,-0.18787193,-0.16849267,-0.15393537,-0.13696706,-0.11514634,-0.087282956,-0.059389055,-0.03756827,-0.01696825,0.0060732365,0.0278939,0.05090487,0.07031453,0.08847308,0.10666227,0.1224097,0.12970376,0.12848294,0.11999881,0.110293865,0.10180974,0.089693904,0.07150483,0.049684048,0.026673198,0.0024110079,-0.023041487,-0.056978106,-0.093325675,-0.13211459,-0.17212445,-0.21213412,-0.25818658,-0.3066805,-0.3527329,-0.39878535,-0.4448378,-0.49574268,-0.54301584,-0.58424634,-0.6194037,-0.6521195,-0.68727684,-0.7199927,-0.74544513,-0.76363415,-0.77575,-0.7878659,-0.7975707,-0.80001223,-0.7975707,-0.7903073,-0.7878659,-0.78423417,-0.77575,-0.7660756,-0.7563707,-0.7478866,-0.7394024,-0.7260659,-0.7115085,-0.698172,-0.6933195,-0.6896878,-0.6824244,-0.6727195,-0.66304517,-0.65697193,-0.6533402,-0.6484878,-0.6436354,-0.63637197,-0.63756216,-0.6387829,-0.63756216,-0.63515127,-0.6315195,-0.6315195,-0.63393044,-0.63515127,-0.63515127,-0.63637197,-0.6387829,-0.6412244,-0.6412244,-0.6400037,-0.6400037,-0.6436354,-0.64604634,-0.6448561,-0.6412244,-0.63756216,-0.6387829,-0.6400037,-0.63756216,-0.63393044,-0.62907803,-0.6315195,-0.63637197,-0.63756216,-0.63515127,-0.63274026,-0.63274026,-0.63274026,-0.63029873,-0.62907803,-0.62788785,-0.6315195,-0.63274026,-0.62788785,-0.6205939,-0.6133305,-0.6133305,-0.615772,-0.6145512,-0.6096988,-0.60606706,-0.6072878,-0.60606706,-0.60362566,-0.5999939,-0.5963622,-0.59758294,-0.5987731,-0.5963622,-0.5890988,-0.5830256,-0.58424634,-0.5854671,-0.5854671,-0.5830256,-0.5806146,-0.5818049,-0.5830256,-0.57939386,-0.57332075,-0.567278,-0.567278,-0.5684988,-0.567278,-0.5636463,-0.5600146,-0.5612049,-0.5636463,-0.5636463,-0.5624256,-0.5600146,-0.5612049,-0.5612049,-0.5587939,-0.5527208,-0.54786825,-0.54786825,-0.54908895,-0.54786825,-0.54545736,-0.54423654,-0.54786825,-0.5503098,-0.54908895,-0.54423654,-0.5393841,-0.5381939,-0.5321207,-0.52000487,-0.5054475,-0.4945525,-0.49333167,-0.4945525,-0.48970002,-0.47999507,-0.46665853,-0.45698416,-0.44969022,-0.43272197,-0.40726954,-0.37696463,-0.3515122,-0.33454388,-0.33091217,-0.33939636,-0.35999632,-0.39515364,-0.4399854,-0.47514266,-0.5018159,-0.51878417,-0.5260475,-0.5309,-0.53334147,-0.5321207,-0.53334147,-0.5393841,-0.54786825,-0.5527208,-0.5551622,-0.5587939,-0.5636463,-0.5660573,-0.5636463,-0.5381939,-0.46302682,-0.32969147,-0.13211459,0.10910368,0.33817554,0.5054475,0.60362554,0.65938294,0.7139499,0.7309183,0.6290779,0.3527329,-0.06909388,-0.5018159,-0.8024231,-0.9175695,-0.8933378,-0.8109073,-0.7248451,-0.6484878,-0.5818049,-0.52848905,-0.49211097,-0.47395247,-0.46665853,-0.4654683,-0.4654683,-0.46302682,-0.45213175,-0.43879515,-0.4242378,-0.41575366,-0.40726954,-0.39515364,-0.37940615,-0.36362803,-0.3527329,-0.34546953,-0.33576465,-0.3236488,-0.3103122,-0.29819638,-0.28485978,-0.26908165,-0.25092316,-0.23273414,-0.22061831,-0.20847195,-0.19031346,-0.16849267,-0.14423048,-0.12607199,-0.10788292,-0.087282956,-0.06183052,-0.03393662,-0.012115836,0.009704828,0.031525612,0.053346276,0.07394636,0.08847308,0.100619555,0.11273539,0.1224097,0.12848294,0.12607193,0.11877811,0.110293865,0.09817803,0.08243048,0.056978106,0.030304909,0.004852414,-0.02060002,-0.0472731,-0.08243048,-0.123630404,-0.16486096,-0.20847195,-0.25455487,-0.30423903,-0.35395366,-0.40241706,-0.44969022,-0.49696338,-0.54786825,-0.5951415,-0.63756216,-0.6727195,-0.7030244,-0.73455,-0.76000243,-0.77819145,-0.79152805,-0.8012024,-0.8109073,-0.8169805,-0.8169805,-0.81212807,-0.8060549,-0.8048341,-0.80001223,-0.7890866,-0.77455974,-0.7624134,-0.75756097,-0.75392926,-0.74666584,-0.7333293,-0.71880245,-0.7115085,-0.70546585,-0.698172,-0.68727684,-0.6763512,-0.6703086,-0.66545606,-0.65938294,-0.6533402,-0.64726704,-0.64726704,-0.6484878,-0.6484878,-0.64726704,-0.64726704,-0.65453047,-0.66304517,-0.66545606,-0.66423535,-0.66060364,-0.66060364,-0.6618244,-0.66304517,-0.66304517,-0.66304517,-0.6666769,-0.66908777,-0.66908777,-0.6666769,-0.66545606,-0.6703086,-0.67394024,-0.6727195,-0.66786706,-0.66545606,-0.66786706,-0.6703086,-0.66908777,-0.66304517,-0.65697193,-0.65697193,-0.6581927,-0.65938294,-0.6581927,-0.6557512,-0.6557512,-0.6557512,-0.6533402,-0.6497085,-0.64726704,-0.64726704,-0.64726704,-0.6436354,-0.6387829,-0.63637197,-0.6387829,-0.6412244,-0.6387829,-0.63274026,-0.6266671,-0.62788785,-0.6315195,-0.63274026,-0.62907803,-0.6218146,-0.6194037,-0.6194037,-0.6194037,-0.615772,-0.6133305,-0.6169622,-0.6194037,-0.6194037,-0.615772,-0.61091954,-0.61091954,-0.6121098,-0.6096988,-0.60362566,-0.5987731,-0.5987731,-0.60121465,-0.60243535,-0.5987731,-0.5951415,-0.5951415,-0.5963622,-0.59758294,-0.5963622,-0.5939512,-0.5951415,-0.590289,-0.576983,-0.5575732,-0.5381939,-0.52848905,-0.52485734,-0.5224158,-0.5175634,-0.51274145,-0.51030004,-0.5066683,-0.49574268,-0.47395247,-0.44727927,-0.42060608,-0.39393294,-0.37092197,-0.35999632,-0.36725974,-0.39756465,-0.4412061,-0.48725855,-0.5236366,-0.55149996,-0.57332075,-0.5854671,-0.58787805,-0.58424634,-0.5818049,-0.5854671,-0.5927305,-0.5987731,-0.60362566,-0.6072878,-0.6133305,-0.6169622,-0.6181829,-0.6072878,-0.5527208,-0.43272197,-0.23392439,0.035157323,0.3151647,0.55272067,0.7078768,0.791528,0.8412123,0.84243286,0.7442548,0.49211097,0.100619555,-0.34061712,-0.6993927,-0.8908963,-0.9284951,-0.87759024,-0.79635,-0.71395004,-0.6424146,-0.58787805,-0.5503098,-0.52970976,-0.5236366,-0.5224158,-0.5236366,-0.51878417,-0.5066683,-0.48970002,-0.4727317,-0.46180612,-0.44969022,-0.43635368,-0.42060608,-0.40849024,-0.40363777,-0.40122682,-0.39271218,-0.37940615,-0.36362803,-0.35029143,-0.33695483,-0.32120734,-0.30182803,-0.283639,-0.27030247,-0.25455487,-0.23514509,-0.21213412,-0.19031346,-0.17453533,-0.15878779,-0.13818783,-0.11151457,-0.08243048,-0.058168292,-0.035157263,-0.010895073,0.015747547,0.040009856,0.059388995,0.07513654,0.087282896,0.100619555,0.10910368,0.10788298,0.100619555,0.09213531,0.08120978,0.06787324,0.046052456,0.021820664,-0.004852414,-0.03030485,-0.056978106,-0.09213537,-0.13211459,-0.17697686,-0.2218085,-0.26908165,-0.31998658,-0.3697012,-0.41819513,-0.46424758,-0.51152074,-0.5636463,-0.6133305,-0.6581927,-0.6933195,-0.72243416,-0.75392926,-0.7830439,-0.80364394,-0.8169805,-0.82546467,-0.83635974,-0.8460646,-0.8509171,-0.8496964,-0.84484386,-0.84121215,-0.83513904,-0.8242439,-0.8096866,-0.79515976,-0.78667563,-0.7793817,-0.7684866,-0.75392926,-0.74059266,-0.7333293,-0.7260659,-0.71758175,-0.7042451,-0.69212925,-0.68849754,-0.68849754,-0.68727684,-0.6848353,-0.6800134,-0.6787927,-0.6787927,-0.67757195,-0.675161,-0.675161,-0.6812036,-0.68605614,-0.68605614,-0.6836451,-0.6812036,-0.6836451,-0.68849754,-0.68849754,-0.6836451,-0.67757195,-0.675161,-0.67394024,-0.67394024,-0.67394024,-0.67394024,-0.6787927,-0.6824244,-0.6824244,-0.6800134,-0.67757195,-0.6787927,-0.6812036,-0.6800134,-0.6763512,-0.6727195,-0.675161,-0.6763512,-0.6763512,-0.6727195,-0.66908777,-0.6715293,-0.6715293,-0.66908777,-0.66304517,-0.65697193,-0.65697193,-0.6581927,-0.6557512,-0.6497085,-0.6436354,-0.6448561,-0.64604634,-0.6448561,-0.6387829,-0.63393044,-0.63515127,-0.63637197,-0.63515127,-0.62907803,-0.62425613,-0.62425613,-0.6230354,-0.6230354,-0.6205939,-0.6169622,-0.6181829,-0.6181829,-0.6133305,-0.6096988,-0.60847807,-0.6133305,-0.6205939,-0.6205939,-0.6133305,-0.60484636,-0.60121465,-0.60121465,-0.60121465,-0.5987731,-0.5963622,-0.59758294,-0.59758294,-0.5951415,-0.590289,-0.5866573,-0.58787805,-0.59150976,-0.590289,-0.5866573,-0.5830256,-0.58424634,-0.58787805,-0.5854671,-0.57332075,-0.5539415,-0.5381939,-0.5260475,-0.52000487,-0.51637316,-0.51274145,-0.51030004,-0.5054475,-0.49818414,-0.4860683,-0.47151095,-0.45332193,-0.43031102,-0.40000612,-0.36725974,-0.34302807,-0.3418073,-0.36121708,-0.3963744,-0.43879515,-0.4824366,-0.52000487,-0.5503098,-0.56968904,-0.57332075,-0.57332075,-0.5757622,-0.57817316,-0.57939386,-0.57939386,-0.5806146,-0.58787805,-0.5999939,-0.61091954,-0.6169622,-0.6194037,-0.61091954,-0.54786825,-0.40604877,-0.17816705,0.10910368,0.39637434,0.6290779,0.77938175,0.8569597,0.8908963,0.8557695,0.7090976,0.4145329,-0.0012207627,-0.43879515,-0.7721183,-0.9309061,-0.9418317,-0.87636954,-0.7927183,-0.7151402,-0.6424146,-0.576983,-0.5309,-0.51030004,-0.51274145,-0.52122563,-0.5224158,-0.51030004,-0.49211097,-0.47877437,-0.46665853,-0.45576346,-0.44364756,-0.43031102,-0.42060608,-0.4109012,-0.40122682,-0.38789028,-0.37455368,-0.3648488,-0.3563646,-0.34302807,-0.32483906,-0.30423903,-0.28849143,-0.2739342,-0.25818658,-0.2387768,-0.21939754,-0.20365,-0.18546098,-0.16486096,-0.13940853,-0.11273539,-0.09091467,-0.06787324,-0.042420805,-0.012115836,0.015747547,0.036378026,0.05453658,0.07394636,0.093325615,0.10910368,0.1163671,0.117587805,0.113925576,0.110293865,0.10303056,0.08847308,0.06909394,0.048493862,0.0278939,0.003631711,-0.026673198,-0.059389055,-0.09454632,-0.12726218,-0.16605121,-0.21332437,-0.26545,-0.31635487,-0.36362803,-0.40726954,-0.45332193,-0.5005951,-0.54667807,-0.59150976,-0.6315195,-0.6727195,-0.7102878,-0.74059266,-0.7624134,-0.78182316,-0.7987914,-0.8133183,-0.82302314,-0.82546467,-0.82665485,-0.82665485,-0.8242439,-0.8181707,-0.80849636,-0.7987914,-0.79515976,-0.7890866,-0.7793817,-0.76363415,-0.74666584,-0.73455,-0.7260659,-0.71758175,-0.70546585,-0.69454026,-0.68849754,-0.6848353,-0.6812036,-0.675161,-0.66786706,-0.6666769,-0.6666769,-0.66545606,-0.6618244,-0.65938294,-0.6618244,-0.66423535,-0.66545606,-0.6618244,-0.66060364,-0.66423535,-0.6703086,-0.67394024,-0.6715293,-0.66786706,-0.66786706,-0.66786706,-0.66908777,-0.6666769,-0.6666769,-0.66908777,-0.66908777,-0.6666769,-0.66060364,-0.65697193,-0.65938294,-0.66423535,-0.66786706,-0.6666769,-0.66423535,-0.66786706,-0.6715293,-0.66908777,-0.6618244,-0.6533402,-0.6497085,-0.6484878,-0.6484878,-0.6424146,-0.63756216,-0.63756216,-0.63756216,-0.6387829,-0.63637197,-0.63393044,-0.63393044,-0.6315195,-0.6266671,-0.6181829,-0.6133305,-0.6133305,-0.6145512,-0.615772,-0.61091954,-0.60484636,-0.60243535,-0.60243535,-0.60484636,-0.60484636,-0.60121465,-0.60121465,-0.5999939,-0.59758294,-0.5939512,-0.590289,-0.58787805,-0.5866573,-0.5866573,-0.58424634,-0.5818049,-0.58424634,-0.5854671,-0.5854671,-0.5818049,-0.576983,-0.57817316,-0.57817316,-0.5757622,-0.5684988,-0.5624256,-0.5600146,-0.5624256,-0.5636463,-0.5636463,-0.5636463,-0.56483656,-0.56483656,-0.5600146,-0.5527208,-0.54908895,-0.5539415,-0.5587939,-0.5575732,-0.54786825,-0.5321207,-0.5175634,-0.5054475,-0.49333167,-0.48484755,-0.4812159,-0.48362684,-0.4860683,-0.4824366,-0.47151095,-0.45698416,-0.43879515,-0.41697437,-0.38789028,-0.3563646,-0.33091217,-0.32242805,-0.33213294,-0.35395366,-0.3830378,-0.42301708,-0.46424758,-0.4994049,-0.52485734,-0.5345317,-0.5393841,-0.54423654,-0.54908895,-0.5503098,-0.54908895,-0.54908895,-0.5551622,-0.5612049,-0.5660573,-0.567278,-0.567278,-0.56968904,-0.54667807,-0.45698416,-0.28485978,-0.032715857,0.25211334,0.51274145,0.6993927,0.80605483,