-0.2167697,-0.20213532,-0.1858443,-0.16958386,-0.1541518,-0.13786066,-0.12080264,-0.10125941,-0.08094925,-0.06223446,-0.049226046,-0.037843823,-0.02480483,-0.009372771,0.0077160597,0.021552682,0.029682875,0.034561038,0.038610816,0.0418936,0.041065097,0.036187172,0.026430845,0.01017046,-0.011796415,-0.040267467,-0.07278836,-0.10776359,-0.14356714,-0.18259215,-0.22489995,-0.267177,-0.3054043,-0.33795583,-0.3648008,-0.39001977,-0.4144104,-0.43475127,-0.45180935,-0.4648484,-0.4729786,-0.47865438,-0.47865438,-0.4729786,-0.46727204,-0.46564603,-0.4648484,-0.4648484,-0.46322232,-0.45831352,-0.45588982,-0.45263773,-0.44855726,-0.44450754,-0.44205314,-0.44288146,-0.44125545,-0.43800336,-0.42987317,-0.423369,-0.4209146,-0.4200862,-0.42171228,-0.41928852,-0.4160365,-0.4152081,-0.4184602,-0.423369,-0.42904478,-0.43475127,-0.43962944,-0.44042706,-0.438801,-0.4339229,-0.43067086,-0.43149918,-0.43475127,-0.43800336,-0.43800336,-0.43800336,-0.44288146,-0.44855726,-0.45101166,-0.44938564,-0.44613355,-0.44450754,-0.44775957,-0.45018333,-0.44938564,-0.44530523,-0.44205314,-0.44205314,-0.44288146,-0.44530523,-0.44775957,-0.45180935,-0.45588982,-0.45751584,-0.45831352,-0.45506144,-0.45343536,-0.45263773,-0.45343536,-0.45343536,-0.45668745,-0.46159625,-0.4681005,-0.47135252,-0.4697265,-0.46564603,-0.46322232,-0.46402,-0.46727204,-0.4705242,-0.4705242,-0.47135252,-0.4697265,-0.4697265,-0.4705242,-0.4721502,-0.47135252,-0.4697265,-0.46889812,-0.4697265,-0.47135252,-0.4754023,-0.4746046,-0.4705242,-0.46727204,-0.46402,-0.46239394,-0.4591419,-0.45018333,-0.43800336,-0.42662108,-0.4184602,-0.41683418,-0.4225406,-0.423369,-0.4184602,-0.40302813,-0.37943518,-0.35341853,-0.33632976,-0.32982558,-0.33470368,-0.34200555,-0.35096413,-0.3623464,-0.3818589,-0.4095323,-0.44042706,-0.4705242,-0.49249107,-0.5103775,-0.5266379,-0.54292905,-0.55836105,-0.5729954,-0.5860345,-0.5941647,-0.5990428,-0.5990428,-0.59741676,-0.59741676,-0.60392094,-0.6120511,-0.61284876,-0.60309255,-0.5697434,-0.50307566,-0.38431334,-0.21026552,0.0142201185,0.2606728,0.46727204,0.58275175,0.5754192,0.43067086,0.15574718,-0.19075304,-0.54292905,-0.8194481,-0.97073126,-1.0,-0.95039046,-0.87801623,-0.8129439,-0.76250595,-0.72348094,-0.6933839,-0.671417,-0.65840864,-0.65027845,-0.6454003,-0.6413199,-0.6364417,-0.6307659,-0.6226357,-0.61122274,-0.60146654,-0.5933363,-0.5884582,-0.5811564,-0.5721978,-0.5616132,-0.55105925,-0.54292905,-0.5363942,-0.52989006,-0.52421427,-0.5185077,-0.5136297,-0.5095798,-0.50307566,-0.49654084,-0.48761296,-0.4746046,-0.4591419,-0.44367915,-0.4282471,-0.4152081,-0.40545183,-0.39652395,-0.38756537,-0.3786068,-0.3664269,-0.34854043,-0.3265735,-0.30215222,-0.28263974,-0.2663793,-0.253371,-0.23548454,-0.21514362,-0.19400507,-0.17446196,-0.15820152,-0.14436483,-0.13298261,-0.122428596,-0.1142984,-0.10696596,-0.10046172,-0.09720969,-0.099633336,-0.106137514,-0.1142984,-0.12568074,-0.14356714,-0.17041224,-0.20781112,-0.24849284,-0.28589183,-0.3200693,-0.35341853,-0.3867677,-0.4225406,-0.45588982,-0.48841065,-0.5136297,-0.5307184,-0.541303,-0.54455507,-0.54780716,-0.55268526,-0.55836105,-0.5616132,-0.55998707,-0.55268526,-0.54697883,-0.54210067,-0.53967696,-0.5363942,-0.5307184,-0.5266379,-0.5233859,-0.5201338,-0.5136297,-0.5054994,-0.49736923,-0.490865,-0.48841065,-0.48515856,-0.48273486,-0.4802804,-0.47865438,-0.4770283,-0.4746046,-0.4729786,-0.4729786,-0.4729786,-0.4721502,-0.4705242,-0.4697265,-0.4705242,-0.4729786,-0.47377628,-0.4721502,-0.47135252,-0.4721502,-0.4754023,-0.4770283,-0.4778567,-0.4778567,-0.4778567,-0.47623062,-0.4729786,-0.46727204,-0.46402,-0.46402,-0.46564603,-0.4664744,-0.4648484,-0.46322232,-0.46159625,-0.4599396,-0.45751584,-0.4542638,-0.45263773,-0.4542638,-0.45668745,-0.45588982,-0.45180935,-0.44613355,-0.44367915,-0.44288146,-0.44288146,-0.44125545,-0.43717498,-0.43554896,-0.43554896,-0.4363773,-0.4363773,-0.43554896,-0.43475127,-0.4339229,-0.42987317,-0.4200862,-0.40545183,-0.38919145,-0.37698078,-0.37047666,-0.36967897,-0.3737287,-0.37698078,-0.37047666,-0.35504454,-0.33062327,-0.3086871,-0.29810244,-0.29810244,-0.30298054,-0.30377823,-0.29890013,-0.2997285,-0.31193912,-0.33470368,-0.36317474,-0.38839376,-0.40870392,-0.42416668,-0.43717498,-0.44530523,-0.45018333,-0.45180935,-0.45343536,-0.4542638,-0.45343536,-0.44938564,-0.44450754,-0.44042706,-0.44205314,-0.44288146,-0.44125545,-0.43149918,-0.39569557,-0.32332146,-0.20130694,-0.027259171,0.1874702,0.42008615,0.61852443,0.7356608,0.7437912,0.62260497,0.37940454,0.06545591,-0.2631272,-0.53802025,-0.70884657,-0.76496035,-0.7381153,-0.6738714,-0.60634464,-0.55185694,-0.5103775,-0.4802804,-0.46076792,-0.45263773,-0.45263773,-0.45343536,-0.44775957,-0.43717498,-0.423369,-0.411956,-0.40545183,-0.4021998,-0.39815003,-0.39244348,-0.38756537,-0.38348496,-0.37943518,-0.372931,-0.36317474,-0.35341853,-0.34283394,-0.33387536,-0.32819957,-0.32332146,-0.319241,-0.31436288,-0.30785865,-0.29810244,-0.28751785,-0.27858996,-0.2696314,-0.2615012,-0.25091654,-0.23790824,-0.22327387,-0.2086395,-0.19400507,-0.17771399,-0.16228199,-0.14681923,-0.13055885,-0.11184406,-0.08987707,-0.067112565,-0.045974016,-0.027259171,-0.009372771,0.0077160597,0.02480483,0.041065097,0.055699587,0.067910194,0.07846415,0.0841707,0.0866251,0.08742273,0.084999084,0.080090165,0.06708193,0.04514575,0.015846252,-0.017502964,-0.05085212,-0.08582735,-0.123226345,-0.16228199,-0.20213532,-0.24036264,-0.2737118,-0.30298054,-0.32819957,-0.35016644,-0.3664269,-0.38023287,-0.39406955,-0.40628016,-0.4152081,-0.4176625,-0.4144104,-0.40870392,-0.40545183,-0.40382582,-0.40140206,-0.39815003,-0.39489794,-0.39081746,-0.3867677,-0.38268727,-0.37698078,-0.372931,-0.37047666,-0.3680529,-0.3655985,-0.36397243,-0.36317474,-0.36154872,-0.35829663,-0.3517925,-0.34528828,-0.34200555,-0.34445995,-0.34854043,-0.35096413,-0.3517925,-0.3517925,-0.35096413,-0.35096413,-0.3517925,-0.3558423,-0.35909432,-0.3623464,-0.36317474,-0.36154872,-0.36154872,-0.3623464,-0.36397243,-0.3664269,-0.3655985,-0.3648008,-0.3655985,-0.3672245,-0.3680529,-0.3688506,-0.3688506,-0.3688506,-0.36967897,-0.371305,-0.3688506,-0.3655985,-0.36317474,-0.3623464,-0.36154872,-0.36154872,-0.35909432,-0.3558423,-0.3558423,-0.35667062,-0.3574683,-0.35909432,-0.35909432,-0.35909432,-0.35909432,-0.35909432,-0.35909432,-0.36154872,-0.3623464,-0.36154872,-0.35667062,-0.35259014,-0.35096413,-0.35341853,-0.35667062,-0.35667062,-0.35341853,-0.34933805,-0.34445995,-0.33795583,-0.32819957,-0.31681722,-0.3086871,-0.30215222,-0.2997285,-0.2997285,-0.29402196,-0.28021604,-0.25742078,-0.22977805,-0.20701349,-0.19805491,-0.20376134,-0.2143153,-0.22244549,-0.22732365,-0.23548454,-0.25091654,-0.2720858,-0.29159826,-0.30706102,-0.319241,-0.33632976,-0.35504454,-0.37047666,-0.3786068,-0.38023287,-0.37943518,-0.3786068,-0.38023287,-0.37943518,-0.37943518,-0.38023287,-0.38106126,-0.38348496,-0.3778091,-0.3648008,-0.32819957,-0.25742078,-0.14031512,0.029682875,0.240332,0.47457397,0.68442535,0.8218719,0.8560494,0.75679946,0.5250119,0.2061851,-0.1411128,-0.44042706,-0.6315636,-0.70396847,-0.68605137,-0.6234334,-0.553483,-0.49491477,-0.45343536,-0.4257927,-0.41115838,-0.40382582,-0.40057373,-0.39815003,-0.39569557,-0.39164585,-0.38106126,-0.3688506,-0.35667062,-0.34933805,-0.34528828,-0.34200555,-0.33712745,-0.33062327,-0.32332146,-0.31681722,-0.30948472,-0.30135453,-0.2948504,-0.28997225,-0.28751785,-0.28101367,-0.27288347,-0.2631272,-0.253371,-0.24524075,-0.23790824,-0.22977805,-0.22081947,-0.21106327,-0.20050925,-0.18909633,-0.17934006,-0.16878617,-0.15820152,-0.14519322,-0.12568074,-0.10451156,-0.08337301,-0.063860536,-0.046771646,-0.028885245,-0.01017046,0.009342074,0.026430845,0.0418936,0.056527972,0.06953621,0.081746936,0.09312928,0.103683114,0.114267826,0.12239802,0.12647843,0.12647843,0.12239802,0.114267826,0.09800732,0.07358599,0.04269123,0.006090045,-0.03051126,-0.06953633,-0.11021799,-0.1516974,-0.19075304,-0.22327387,-0.25091654,-0.2737118,-0.2948504,-0.3135652,-0.32899725,-0.33958185,-0.34691435,-0.3517925,-0.35341853,-0.35341853,-0.3517925,-0.35096413,-0.3517925,-0.35096413,-0.34771204,-0.34283394,-0.33550137,-0.33062327,-0.32737124,-0.3241191,-0.3216954,-0.319241,-0.3159889,-0.3127368,-0.30706102,-0.30215222,-0.2997285,-0.3005262,-0.30298054,-0.30298054,-0.3005262,-0.29564804,-0.29239595,-0.29239595,-0.29322433,-0.29564804,-0.29810244,-0.2997285,-0.30215222,-0.30298054,-0.30460662,-0.3054043,-0.3054043,-0.30377823,-0.2997285,-0.29727405,-0.29727405,-0.3005262,-0.30377823,-0.30460662,-0.3054043,-0.30706102,-0.31193912,-0.31436288,-0.3127368,-0.30785865,-0.30135453,-0.29890013,-0.29890013,-0.2997285,-0.2997285,-0.2997285,-0.30215222,-0.30460662,-0.3054043,-0.3054043,-0.3054043,-0.30377823,-0.30298054,-0.29890013,-0.29564804,-0.29402196,-0.2948504,-0.29727405,-0.29647642,-0.29564804,-0.29564804,-0.29810244,-0.2997285,-0.29647642,-0.29076993,-0.28346807,-0.27858996,-0.2793876,-0.28021604,-0.28184205,-0.28184205,-0.28263974,-0.28263974,-0.28101367,-0.28021604,-0.2793876,-0.27696395,-0.2745095,-0.2688337,-0.2615012,-0.253371,-0.24441242,-0.23385847,-0.22164786,-0.2143153,-0.21189159,-0.2143153,-0.21514362,-0.20618504,-0.18259215,-0.14924294,-0.122428596,-0.1093896,-0.11184406,-0.12405467,-0.13460857,-0.14031512,-0.14681923,-0.16065598,-0.18342054,-0.20943719,-0.23548454,-0.25416863,-0.267177,-0.27858996,-0.28751785,-0.29810244,-0.3054043,-0.30785865,-0.30706102,-0.3054043,-0.30623263,-0.3103131,-0.3135652,-0.3159889,-0.31681722,-0.3103131,-0.29727405,-0.26800537,-0.20701349,-0.10696596,0.04594338,0.24766457,0.4859563,0.7161484,0.88206613,0.9455122,0.8763596,0.66571057,0.35421622,-0.0020401478,-0.3314516,-0.5575634,-0.65353054,-0.6454003,-0.58358,-0.51445794,-0.45751584,-0.41358203,-0.3786068,-0.35341853,-0.33958185,-0.33632976,-0.33470368,-0.3314516,-0.32574517,-0.3176149,-0.3103131,-0.30460662,-0.3005262,-0.29564804,-0.29076993,-0.28509414,-0.27776158,-0.27125746,-0.26475328,-0.2606728,-0.25499701,-0.24849284,-0.24278641,-0.23790824,-0.23303008,-0.22652596,-0.21839571,-0.21026552,-0.20376134,-0.19968092,-0.19480282,-0.1858443,-0.17446196,-0.1647057,-0.15577775,-0.14681923,-0.13543701,-0.12160027,-0.10696596,-0.09312922,-0.07849485,-0.060608387,-0.04189354,-0.023178756,-0.0069183707,0.009342074,0.029682875,0.05164981,0.07033384,0.0841707,0.09475529,0.10530925,0.11669147,0.12565005,0.13052809,0.1313566,0.13298261,0.13460863,0.13540626,0.13215423,0.119974256,0.10125935,0.076838136,0.04514575,0.009342074,-0.027259171,-0.06548649,-0.10451156,-0.14273888,-0.18421823,-0.22164786,-0.2557947,-0.28346807,-0.3054043,-0.32249302,-0.33712745,-0.34771204,-0.3558423,-0.3623464,-0.3680529,-0.372931,-0.37047666,-0.36397243,-0.3558423,-0.34933805,-0.34691435,-0.34691435,-0.34771204,-0.34771204,-0.34691435,-0.34283394,-0.33470368,-0.32494748,-0.3159889,-0.31193912,-0.31193912,-0.31193912,-0.31193912,-0.3111108,-0.31193912,-0.3151912,-0.3184433,-0.3200693,-0.31681722,-0.31436288,-0.3103131,-0.3111108,-0.3151912,-0.319241,-0.32332146,-0.3265735,-0.3265735,-0.32899725,-0.3314516,-0.33470368,-0.33387536,-0.32899725,-0.32494748,-0.32574517,-0.32899725,-0.33470368,-0.33712745,-0.33712745,-0.33958185,-0.34200555,-0.33958185,-0.33387536,-0.32819957,-0.32494748,-0.32819957,-0.33307767,-0.33470368,-0.33387536,-0.3314516,-0.33062327,-0.33307767,-0.33224934,-0.33062327,-0.32819957,-0.3265735,-0.3265735,-0.32574517,-0.32332146,-0.3216954,-0.3216954,-0.32332146,-0.3241191,-0.320867,-0.3151912,-0.3103131,-0.3054043,-0.30298054,-0.30135453,-0.30215222,-0.30460662,-0.3086871,-0.31193912,-0.3135652,-0.3135652,-0.3127368,-0.3054043,-0.29322433,-0.27696395,-0.26229888,-0.25416863,-0.251745,-0.25091654,-0.25091654,-0.24686676,-0.23548454,-0.2143153,-0.19075304,-0.17283589,-0.16633171,-0.17283589,-0.18259215,-0.18667257,-0.18909633,-0.19480282,-0.20781112,-0.22894973,-0.251745,-0.2745095,-0.29239595,-0.30785865,-0.319241,-0.32574517,-0.32982558,-0.33224934,-0.33470368,-0.33795583,-0.34037948,-0.33795583,-0.33224934,-0.32819957,-0.32819957,-0.3314516,-0.32899725,-0.3216954,-0.29727405,-0.24441242,-0.14761686,0.0069184303,0.21511292,0.45831347,0.68605137,0.84463656,0.89344823,0.81374156,0.5965885,0.28263962,-0.067112565,-0.38514167,-0.6022949,-0.6950099,-0.6844253,-0.6210097,-0.54618114,-0.48515856,-0.43962944,-0.40628016,-0.38431334,-0.371305,-0.36397243,-0.3599227,-0.35421622,-0.34608603,-0.33958185,-0.33387536,-0.32819957,-0.32494748,-0.3200693,-0.3151912,-0.3103131,-0.3054043,-0.29647642,-0.28672016,-0.27776158,-0.27045977,-0.267177,-0.267177,-0.267177,-0.2615012,-0.253371,-0.24361473,-0.23548454,-0.23140407,-0.22732365,-0.22081947,-0.21106327,-0.19805491,-0.1858443,-0.17608804,-0.16878617,-0.16307962,-0.15332341,-0.13786066,-0.11834812,-0.09800738,-0.08012086,-0.06303209,-0.04514569,-0.026430905,-0.0077466965,0.0077160597,0.022350311,0.04023683,0.06057763,0.07929242,0.09312928,0.1020571,0.10938954,0.11589372,0.123226404,0.12402403,0.120771885,0.114267826,0.10530925,0.09230089,0.071162224,0.044317245,0.013422489,-0.023178756,-0.06303209,-0.10776359,-0.1541518,-0.19563115,-0.23060638,-0.2582491,-0.28346807,-0.3054043,-0.3265735,-0.34528828,-0.3607204,-0.371305,-0.3778091,-0.3818589,-0.38431334,-0.38348496,-0.38023287,-0.37455708,-0.3688506,-0.3664269,-0.3664269,-0.3680529,-0.3648008,-0.35909432,-0.35341853,-0.34933805,-0.34933805,-0.34691435,-0.34200555,-0.33470368,-0.3265735,-0.32332146,-0.32332146,-0.320867,-0.3184433,-0.3200693,-0.32494748,-0.33062327,-0.33224934,-0.32737124,-0.32249302,-0.320867,-0.32494748,-0.32899725,-0.3314516,-0.3314516,-0.33387536,-0.33712745,-0.34037948,-0.34200555,-0.34120786,-0.34037948,-0.34037948,-0.33875346,-0.33795583,-0.33875346,-0.34120786,-0.34283394,-0.34283394,-0.34528828,-0.34691435,-0.34771204,-0.34608603,-0.34200555,-0.33632976,-0.33387536,-0.33712745,-0.34200555,-0.34283394,-0.34037948,-0.33550137,-0.33224934,-0.33062327,-0.33062327,-0.3314516,-0.3314516,-0.33062327,-0.32819957,-0.3241191,-0.3216954,-0.320867,-0.32249302,-0.320867,-0.3176149,-0.3127368,-0.30785865,-0.30460662,-0.30135453,-0.29402196,-0.28184205,-0.26800537,-0.2566231,-0.2501189,-0.24929053,-0.24929053,-0.24603844,-0.23953432,-0.23140407,-0.22407156,-0.22081947,-0.21919346,-0.21594137,-0.20943719,-0.20618504,-0.20943719,-0.22569758,-0.24849284,-0.27125746,-0.28914386,-0.30215222,-0.3151912,-0.33062327,-0.34283394,-0.35016644,-0.34854043,-0.34445995,-0.34120786,-0.33958185,-0.33958185,-0.33875346,-0.33958185,-0.34363163,-0.34608603,-0.34120786,-0.3241191,-0.28751785,-0.22002178,-0.11184406,0.04839778,0.25334036,0.4859563,0.6966052,0.83162796,0.8600992,0.7584255,0.5266379,0.2143153,-0.12160027,-0.4127844,-0.59821445,-0.66816485,-0.65027845,-0.5884582,-0.5201338,-0.46322232,-0.4209146,-0.39406955,-0.37943518,-0.3737287,-0.371305,-0.3648008,-0.35829663,-0.34933805,-0.34200555,-0.33387536,-0.32737124,-0.3216954,-0.31681722,-0.3111108,-0.30460662,-0.29890013,-0.29402196,-0.28997225,-0.28509414,-0.27858996,-0.27288347,-0.2688337,-0.2655509,-0.2606728,-0.25416863,-0.24766451,-0.24278641,-0.23711056,-0.22977805,-0.22002178,-0.20701349,-0.19563115,-0.1850465,-0.17529029,-0.16633171,-0.15577775,-0.14436483,-0.12973046,-0.11347014,-0.09558362,-0.08012086,-0.06628418,-0.050023735,-0.029682934,-0.0052922964,0.019926667,0.037813187,0.050023675,0.061406016,0.07278836,0.084999084,0.09555304,0.103683114,0.11018729,0.115065455,0.11914587,0.11914587,0.115065455,0.10530925,0.08742273,0.06057763,0.027228594,-0.010998726,-0.050023735,-0.088251114,-0.12647843,-0.16633171,-0.20376134,-0.23711056,-0.2655509,-0.28997225,-0.3111108,-0.32982558,-0.34363163,-0.3517925,-0.35909432,-0.3648008,-0.37047666,-0.372931,-0.371305,-0.3680529,-0.3648008,-0.3623464,-0.3607204,-0.35667062,-0.3517925,-0.34771204,-0.34200555,-0.33632976,-0.3314516,-0.3265735,-0.32574517,-0.32574517,-0.32494748,-0.3200693,-0.3135652,-0.3086871,-0.30460662,-0.30298054,-0.30215222,-0.30135453,-0.30215222,-0.30215222,-0.30298054,-0.30298054,-0.3005262,-0.2997285,-0.2997285,-0.3005262,-0.30135453,-0.30377823,-0.30785865,-0.31193912,-0.3135652,-0.3151912,-0.3159889,-0.3200693,-0.32332146,-0.32494748,-0.32249302,-0.3184433,-0.31681722,-0.31436288,-0.3135652,-0.3111108,-0.30785865,-0.30948472,-0.31193912,-0.31436288,-0.31436288,-0.31436288,-0.31681722,-0.319241,-0.3200693,-0.31681722,-0.3103131,-0.30377823,-0.2997285,-0.2997285,-0.2997285,-0.3005262,-0.30298054,-0.30377823,-0.30215222,-0.29890013,-0.29564804,-0.2948504,-0.29564804,-0.2948504,-0.29076993,-0.28672016,-0.28346807,-0.28184205,-0.27776158,-0.27045977,-0.2615012,-0.253371,-0.24686676,-0.24198866,-0.23548454,-0.22815198,-0.22244549,-0.21756738,-0.2135176,-0.20618504,-0.19725722,-0.18667257,-0.17934006,-0.17529029,-0.17366427,-0.17366427,-0.17771399,-0.1858443,-0.20050925,-0.21919346,-0.23790824,-0.2566231,-0.2745095,-0.28997225,-0.30215222,-0.3103131,-0.31436288,-0.31436288,-0.3135652,-0.3103131,-0.3054043,-0.30215222,-0.2997285,-0.3005262,-0.30623263,-0.3086871,-0.30785865,-0.29159826,-0.24441242,-0.15740383,-0.019926667,0.16387737,0.3842827,0.6144749,0.8047831,0.9145868,0.91216314,0.7738881,0.5144273,0.18421817,-0.15577775,-0.42904478,-0.58683217,-0.6291399,-0.59171027,-0.52421427,-0.4599396,-0.40870392,-0.372931,-0.34933805,-0.33632976,-0.33307767,-0.3314516,-0.32819957,-0.3216954,-0.3151912,-0.3103131,-0.3054043,-0.3005262,-0.2948504,-0.28751785,-0.28184205,-0.27613556,-0.27125746,-0.2663793,-0.2606728,-0.25499701,-0.24849284,-0.24198866,-0.23628217,-0.23060638,-0.22569758,-0.22002178,-0.21594137,-0.21026552,-0.20538741,-0.19968092,-0.19075304,-0.17854244,-0.16553402,-0.15332341,-0.14436483,-0.13543701,-0.123226345,-0.1093896,-0.09475529,-0.08012086,-0.064658165,-0.04760009,-0.027259171,-0.0028685927,0.020724416,0.043519616,0.062203765,0.07846415,0.09150314,0.102885485,0.115065455,0.12647843,0.13948667,0.15086901,0.15820158,0.16307962,0.16550338,0.16387737,0.15574718,0.1411128,0.120771885,0.09555304,0.067910194,0.032935023,-0.0077466965,-0.050023735,-0.09150314,-0.1273067,-0.16145366,-0.19563115,-0.22732365,-0.25742078,-0.28021604,-0.2948504,-0.30460662,-0.3086871,-0.31193912,-0.31681722,-0.3216954,-0.32737124,-0.33062327,-0.33062327,-0.32737124,-0.32332146,-0.3216954,-0.320867,-0.3200693,-0.319241,-0.31681722,-0.31193912,-0.30377823,-0.29564804,-0.28834617,-0.28426576,-0.28346807,-0.28426576,-0.28426576,-0.28263974,-0.28021604,-0.27858996,-0.27696395,-0.27533787,-0.27288347,-0.27125746,-0.27045977,-0.26800537,-0.267177,-0.2655509,-0.2663793,-0.2696314,-0.27125746,-0.2720858,-0.27288347,-0.2737118,-0.27696395,-0.28021604,-0.28346807,-0.28589183,-0.28509414,-0.28509414,-0.28263974,-0.28021604,-0.28021604,-0.28346807,-0.28751785,-0.29159826,-0.29239595,-0.28997225,-0.28834617,-0.28834617,-0.28834617,-0.28914386,-0.28672016,-0.28509414,-0.28509414,-0.28426576,-0.28263974,-0.2793876,-0.27696395,-0.27696395,-0.27858996,-0.28021604,-0.27858996,-0.27613556,-0.27533787,-0.27533787,-0.27696395,-0.27696395,-0.27613556,-0.2745095,-0.27125746,-0.26800537,-0.2631272,-0.2615012,-0.26229888,-0.26475328,-0.267177,-0.2663793,-0.26475328,-0.2639249,-0.2639249,-0.2663793,-0.26800537,-0.2688337,-0.26800537,-0.2655509,-0.2631272,-0.2606728,-0.2590468,-0.2557947,-0.25091654,-0.24278641,-0.23140407,-0.22002178,-0.21189159,-0.20781112,-0.20943719,-0.20781112,-0.19642884,-0.17529029,-0.14844531,-0.12893277,-0.123226345,-0.13055885,-0.14194119,-0.14844531,-0.15007132,-0.15494949,-0.17041224,-0.19400507,-0.21756738,-0.23711056,-0.2501189,-0.2631272,-0.27858996,-0.2948504,-0.30460662,-0.3086871,-0.30623263,-0.30377823,-0.30215222,-0.30298054,-0.30377823,-0.30460662,-0.30623263,-0.30785865,-0.30377823,-0.29239595,-0.25987512,-0.19317675,-0.081746936,0.081746936,0.28914392,0.52175987,0.7348324,0.88206613,0.9333017,0.85847306,0.6486218,0.3411771,-0.01017046,-0.32737124,-0.53884864,-0.6275139,-0.61775756,-0.5575634,-0.48841065,-0.42987317,-0.38756537,-0.3623464,-0.34771204,-0.34120786,-0.33632976,-0.3314516,-0.32574517,-0.320867,-0.3159889,-0.3086871,-0.30377823,-0.3005262,-0.29890013,-0.29727405,-0.29239595,-0.28751785,-0.28263974,-0.27858996,-0.2745095,-0.2696314,-0.2606728,-0.25091654,-0.24116033,-0.23303008,-0.22732365,-0.22489995,-0.22244549,-0.2167697,-0.20701349,-0.19480282,-0.18421823,-0.17529029,-0.16878617,-0.16307962,-0.15332341,-0.13868904,-0.122428596,-0.106137514,-0.090705514,-0.07441443,-0.058982313,-0.04189354,-0.024007142,-0.0069183707,0.010968089,0.02805686,0.043519616,0.058951616,0.07358599,0.08987713,0.106137514,0.11914587,0.13052809,0.13948667,0.14761686,0.15329278,0.15329278,0.14761686,0.13540626,0.120771885,0.099633336,0.07278836,0.04269123,0.0077160597,-0.02805686,-0.06548649,-0.105339885,-0.14599091,-0.1850465,-0.21919346,-0.24929053,-0.27696395,-0.3005262,-0.3200693,-0.33470368,-0.34608603,-0.3558423,-0.3607204,-0.36154872,-0.35829663,-0.35341853,-0.35016644,-0.34854043,-0.34771204,-0.34445995,-0.34200555,-0.34120786,-0.34037948,-0.33958185,-0.33632976,-0.32982558,-0.32332146,-0.31681722,-0.3127368,-0.30948472,-0.30706102,-0.30460662,-0.30215222,-0.3005262,-0.29890013,-0.2997285,-0.30298054,-0.30785865,-0.3111108,-0.3103131,-0.3054043,-0.30135453,-0.2997285,-0.30215222,-0.30460662,-0.30706102,-0.3103131,-0.31193912,-0.31436288,-0.31436288,-0.3151912,-0.3176149,-0.3216954,-0.32332146,-0.3216954,-0.3176149,-0.3151912,-0.3159889,-0.3200693,-0.32249302,-0.3241191,-0.3241191,-0.3241191,-0.32494748,-0.3241191,-0.320867,-0.3184433,-0.3151912,-0.3127368,-0.3111108,-0.3103131,-0.3103131,-0.3111108,-0.3127368,-0.31436288,-0.31681722,-0.3200693,-0.32249302,-0.3216954,-0.3159889,-0.30948472,-0.30460662,-0.30460662,-0.30785865,-0.3086871,-0.30785865,-0.30706102,-0.3054043,-0.3054043,-0.3054043,-0.30623263,-0.3103131,-0.31436288,-0.3151912,-0.3103131,-0.30377823,-0.29810244,-0.29810244,-0.30135453,-0.30298054,-0.30215222,-0.30135453,-0.3005262,-0.29890013,-0.29402196,-0.28346807,-0.2696314,-0.2566231,-0.24603844,-0.24036264,-0.24116033,-0.24441242,-0.24361473,-0.23140407,-0.20618504,-0.17691636,-0.15820152,-0.15494949,-0.16390806,-0.17120993,-0.17446196,-0.17691636,-0.18747026,-0.21026552,-0.23628217,-0.2606728,-0.2793876,-0.2948504,-0.3111108,-0.32494748,-0.33387536,-0.33795583,-0.33795583,-0.33712745,-0.33470368,-0.33307767,-0.33062327,-0.32899725,-0.32819957,-0.32899725,-0.32737124,-0.3216954,-0.30623263,-0.26475328,-0.1850465,-0.05085212,0.13703239,0.37127423,0.61689866,0.81374156,0.9145868,0.8918222,0.7259048,0.43959868,0.09150314,-0.25499701,-0.5233859,-0.6673672,-0.6925555,-0.6413199,-0.56486523,-0.49816686,-0.44693124,-0.41115838,-0.38593936,-0.371305,-0.3655985,-0.3655985,-0.3655985,-0.35909432,-0.34854043,-0.33550137,-0.32574517,-0.319241,-0.3151912,-0.3135652,-0.3103131,-0.30623263,-0.30135453,-0.2948504,-0.28997225,-0.28672016,-0.28426576,-0.27858996,-0.2688337,-0.25742078,-0.24766451,-0.24198866,-0.23873657,-0.23465616,-0.22977805,-0.22327387,-0.2167697,-0.20781112,-0.19805491,-0.18667257,-0.17529029,-0.16145366,-0.14681923,-0.13055885,-0.11509609,-0.10125941,-0.088251114,-0.07199067,-0.053275883,-0.032934964,-0.0126248,0.0036662817,0.018300653,0.035358667,0.054073572,0.07358599,0.09150314,0.103683114,0.11181331,0.11669147,0.11914587,0.120771885,0.12239802,0.12239802,0.119974256,0.10938954,0.09230089,0.067910194,0.0394392,0.0077160597,-0.029682934,-0.070364594,-0.11264175,-0.15332341,-0.19155067,-0.22977805,-0.2655509,-0.2948504,-0.31436288,-0.3265735,-0.33550137,-0.34445995,-0.35421622,-0.35909432,-0.3599227,-0.35829663,-0.3574683,-0.3574683,-0.3574683,-0.35667062,-0.3558423,-0.3558423,-0.3558423,-0.35096413,-0.34363163,-0.33712745,-0.3314516,-0.32819957,-0.32737124,-0.3265735,-0.32574517,-0.32574517,-0.3265735,-0.3241191,-0.3200693,-0.31681722,-0.3127368,-0.3103131,-0.30706102,-0.30623263,-0.30785865,-0.3103131,-0.31193912,-0.3111108,-0.3086871,-0.30785865,-0.3103131,-0.31681722,-0.3216954,-0.32332146,-0.32249302,-0.319241,-0.3159889,-0.3127368,-0.3127368,-0.3135652,-0.3159889,-0.3159889,-0.3135652,-0.30948472,-0.30706102,-0.30706102,-0.3086871,-0.3086871,-0.3086871,-0.30785865,-0.3054043,-0.30460662,-0.30377823,-0.30298054,-0.30298054,-0.30215222,-0.30135453,-0.2997285,-0.29810244,-0.29727405,-0.29564804,-0.2948504,-0.29322433,-0.29322433,-0.29402196,-0.29564804,-0.29727405,-0.29810244,-0.29890013,-0.29890013,-0.29810244,-0.2948504,-0.28997225,-0.28751785,-0.28672016,-0.28997225,-0.29322433,-0.29322433,-0.29159826,-0.29159826,-0.29159826,-0.29076993,-0.28509414,-0.27613556,-0.2655509,-0.2566231,-0.24766451,-0.23953432,-0.23548454,-0.23628217,-0.23873657,-0.23385847,-0.21514362,-0.18829864,-0.16307962,-0.15086901,-0.1516974,-0.15740383,-0.16145366,-0.1647057,-0.17041224,-0.18179446,-0.19968092,-0.21919346,-0.23873657,-0.2566231,-0.27288347,-0.28751785,-0.29810244,-0.30377823,-0.30623263,-0.3054043,-0.3005262,-0.29727405,-0.29564804,-0.29727405,-0.29647642,-0.29322433,-0.28751785,-0.27776158,-0.267177,-0.24036264,-0.18259215,-0.07849485,0.082544565,0.29076993,0.52743566,0.73974144,0.87473345,0.90157866,0.80235934,0.5762476,0.26960075,-0.067112565,-0.36397243,-0.55836105,-0.6315636,-0.6095967,-0.541303,-0.47135252,-0.41683418,-0.3778091,-0.34933805,-0.32899725,-0.31681722,-0.3111108,-0.30706102,-0.30135453,-0.29402196,-0.28589183,-0.2793876,-0.27533787,-0.2696314,-0.2631272,-0.2557947,-0.25091654,-0.24849284,-0.24524075,-0.24036264,-0.23223245,-0.22327387,-0.21514362,-0.2086395,-0.20376134,-0.19888324,-0.19480282,-0.18829864,-0.18096614,-0.17283589,-0.16553402,-0.15820152,-0.14681923,-0.13135654,-0.11509609,-0.102087796,-0.09150314,-0.08257532,-0.07116228,-0.056527913,-0.03946978,-0.023178756,-0.0077466965,0.009342074,0.028854609,0.05164981,0.07604051,0.09800732,0.11669147,0.1313566,0.14353657,0.15491879,0.16633165,0.1768856,0.18501592,0.18989396,0.19234848,0.19560039,0.20047867,0.20130706,0.19560039,0.17771399,0.149243,0.11589372,0.08091855,0.044317245,0.006090045,-0.032934964,-0.07441443,-0.11509609,-0.15577775,-0.19155067,-0.21839571,-0.23628217,-0.251745,-0.267177,-0.28346807,-0.29727405,-0.30460662,-0.3086871,-0.3127368,-0.3176149,-0.3216954,-0.319241,-0.31193912,-0.30377823,-0.29890013,-0.29810244,-0.29727405,-0.29564804,-0.29322433,-0.28914386,-0.28589183,-0.28184205,-0.27858996,-0.27696395,-0.2745095,-0.27125746,-0.2663793,-0.2615012,-0.25987512,-0.2631272,-0.2663793,-0.2688337,-0.27045977,-0.27045977,-0.27125746,-0.27288347,-0.2737118,-0.2745095,-0.27533787,-0.2745095,-0.2737118,-0.27125746,-0.27045977,-0.2745095,-0.27858996,-0.28346807,-0.28509414,-0.28509414,-0.28672016,-0.28751785,-0.28589183,-0.28263974,-0.27858996,-0.27696395,-0.27858996,-0.28184205,-0.28263974,-0.28346807,-0.28426576,-0.28589183,-0.28672016,-0.28263974,-0.27696395,-0.2720858,-0.27045977,-0.2737118,-0.27613556,-0.27858996,-0.27858996,-0.27696395,-0.27613556,-0.27533787,-0.27613556,-0.27858996,-0.28021604,-0.27858996,-0.2745095,-0.27045977,-0.26800537,-0.2696314,-0.27125746,-0.27045977,-0.267177,-0.2655509,-0.267177,-0.27125746,-0.2745095,-0.27288347,-0.2688337,-0.2631272,-0.2582491,-0.2557947,-0.2557947,-0.2557947,-0.2582491,-0.25987512,-0.25987512,-0.25987512,-0.25987512,-0.2582491,-0.253371,-0.23873657,-0.22002178,-0.20455903,-0.19642884,-0.20130694,-0.21106327,-0.21514362,-0.20701349,-0.1858443,-0.15657544,-0.13135654,-0.11917657,-0.119974196,-0.1273067,-0.13298261,-0.13623464,-0.14356714,-0.16065598,-0.18421823,-0.2086395,-0.22732365,-0.24116033,-0.25499701,-0.27125746,-0.28346807,-0.28997225,-0.28997225,-0.28589183,-0.28263974,-0.2793876,-0.27533787,-0.2745095,-0.27533787,-0.28101367,-0.28346807,-0.27776158,-0.25742078,-0.21026552,-0.12810439,0.0028378963,0.18584418,0.40870392,0.6413199,0.8267499,0.9284234,0.9170413,0.77143383,0.5103775,0.18013775,-0.15577775,-0.4200862,-0.56731963,-0.60146654,-0.5616132,-0.49249107,-0.424995,-0.37210268,-0.33632976,-0.3176149,-0.31193912,-0.3111108,-0.3103131,-0.30623263,-0.29810244,-0.28997225,-0.28184205,-0.27613556,-0.27125746,-0.2655509,-0.2590468,-0.2501189,-0.24278641,-0.23548454,-0.23060638,-0.22569758,-0.21919346,-0.2135176,-0.20943719,-0.20781112,-0.20455903,-0.19968092,-0.19155067,-0.18179446,-0.1720382,-0.16390806,-0.15657544,-0.14924294,-0.14194119,-0.13543701,-0.12810439,-0.11834812,-0.106137514,-0.09395754,-0.08094925,-0.067910254,-0.052478194,-0.032934964,-0.011796415,0.009342074,0.028854609,0.046771646,0.064658165,0.08337295,0.1020571,0.12160027,0.13948667,0.15329278,0.16387737,0.1736337,0.18501592,0.19642878,0.20535672,0.20860887,0.2037307,0.19477212,0.1833899,0.1671294,0.14273882,0.10938954,0.07195997,0.033732653,-0.0020401478,-0.037843823,-0.07441443,-0.11184406,-0.14844531,-0.18259215,-0.21106327,-0.23548454,-0.25416863,-0.2688337,-0.27858996,-0.28589183,-0.29322433,-0.29890013,-0.30298054,-0.30377823,-0.3005262,-0.29727405,-0.29239595,-0.28997225,-0.28834617,-0.28426576,-0.28021604,-0.27533787,-0.27045977,-0.26800537,-0.26475328,-0.2606728,-0.25499701,-0.24929053,-0.24686676,-0.24686676,-0.24849284,-0.24766451,-0.24603844,-0.24278641,-0.24278641,-0.24524075,-0.24929053,-0.25091654,-0.2501189,-0.24686676,-0.24524075,-0.24524075,-0.24849284,-0.25254261,-0.25742078,-0.2615012,-0.26475328,-0.2663793,-0.2696314,-0.27288347,-0.27533787,-0.2745095,-0.27045977,-0.26475328,-0.26229888,-0.2655509,-0.27045977,-0.2737118,-0.2745095,-0.2737118,-0.27533787,-0.27776158,-0.2793876,-0.28021604,-0.27858996,-0.27776158,-0.27696395,-0.27613556,-0.27696395,-0.27858996,-0.28021604,-0.28021604,-0.27776158,-0.27533787,-0.27288347,-0.27288347,-0.2745095,-0.2745095,-0.2745095,-0.2737118,-0.2720858,-0.2696314,-0.26475328,-0.2615012,-0.2606728,-0.26229888,-0.2631272,-0.26229888,-0.2606728,-0.25987512,-0.26229888,-0.2655509,-0.2655509,-0.2631272,-0.25987512,-0.2582491,-0.2582491,-0.2582491,-0.25742078,-0.2557947,-0.2566231,-0.2566231,-0.25499701,-0.2501189,-0.24198866,-0.23385847,-0.22407156,-0.2135176,-0.20376134,-0.19805491,-0.19888324,-0.20130694,-0.19805491,-0.18342054,-0.15820152,-0.13135654,-0.11347014,-0.10776359,-0.11264175,-0.11834812,-0.12405467,-0.13381094,-0.15007132,-0.17283589,-0.19642884,-0.21756738,-0.23465616,-0.2501189,-0.267177,-0.28263974,-0.29402196,-0.2997285,-0.30135453,-0.3005262,-0.2997285,-0.3005262,-0.30215222,-0.30135453,-0.29890013,-0.29810244,-0.2948504,-0.28914386,-0.2696314,-0.21756738,-0.12485236,0.019098282,0.21186101,0.44285083,0.67546654,0.8544233,0.94063413,0.9064567,0.7315805,0.44447684,0.097178936,-0.24441242,-0.49899524,-0.6291399,-0.64457196,-0.5925386,-0.5217598,-0.45831352,-0.41032994,-0.3778091,-0.35909432,-0.35016644,-0.34691435,-0.34200555,-0.33307767,-0.32332146,-0.3151912,-0.30948472,-0.3054043,-0.30298054,-0.2997285,-0.29810244,-0.29322433,-0.28672016,-0.2793876,-0.27288347,-0.2696314,-0.267177,-0.2639249,-0.2590468,-0.25254261,-0.24524075,-0.23711056,-0.22652596,-0.2167697,-0.2086395,-0.20213532,-0.19725722,-0.18992472,-0.18016851,-0.16878617,-0.15657544,-0.14436483,-0.13055885,-0.11755049,-0.10451156,-0.09233159,-0.07849485,-0.061406016,-0.040267467,-0.017502964,0.004463911,0.023178697,0.041065097,0.058951616,0.076838136,0.09475529,0.11101568,0.1248523,0.13703239,0.14599085,0.15249515,0.1565448,0.16307962,0.16875541,0.17200756,0.16795778,0.15574718,0.13540626,0.10856128,0.07604051,0.04023683,0.0028378963,-0.034561038,-0.07199067,-0.11264175,-0.15494949,-0.19400507,-0.22489995,-0.2501189,-0.27125746,-0.29239595,-0.31193912,-0.32574517,-0.33307767,-0.33632976,-0.33712745,-0.33875346,-0.34037948,-0.34037948,-0.33632976,-0.33062327,-0.32332146,-0.3176149,-0.3151912,-0.3159889,-0.31681722,-0.31681722,-0.3127368,-0.30706102,-0.30298054,-0.30215222,-0.30215222,-0.30135453,-0.29890013,-0.29402196,-0.29076993,-0.28997225,-0.29159826,-0.29322433,-0.29322433,-0.29322433,-0.29159826,-0.29159826,-0.2948504,-0.29810244,-0.3005262,-0.30135453,-0.2997285,-0.29810244,-0.3005262,-0.30623263,-0.3135652,-0.31681722,-0.3159889,-0.31193912,-0.3086871,-0.3086871,-0.3111108,-0.3135652,-0.3151912,-0.3159889,-0.3176149,-0.319241,-0.320867,-0.32249302,-0.32332146,-0.3216954,-0.3184433,-0.3135652,-0.3111108,-0.31193912,-0.3127368,-0.3135652,-0.31436288,-0.3151912,-0.3176149,-0.3200693,-0.3200693,-0.31681722,-0.3135652,-0.3127368,-0.3127368,-0.3159889,-0.3184433,-0.319241,-0.3200693,-0.3184433,-0.3159889,-0.3135652,-0.3135652,-0.31436288,-0.3151912,-0.3135652,-0.3103131,-0.30623263,-0.3054043,-0.30377823,-0.30460662,-0.30377823,-0.2997285,-0.29402196,-0.28509414,-0.2745095,-0.2655509,-0.2590468,-0.2566231,-0.2566231,-0.2606728,-0.2590468,-0.24686676,-0.22327387,-0.19237912,-0.1647057,-0.1516974,-0.15332341,-0.16307962,-0.16958386,-0.1720382,-0.17771399,-0.19400507,-0.22081947,-0.25091654,-0.2745095,-0.29239595,-0.30785865,-0.32249302,-0.33470368,-0.34037948,-0.33958185,-0.33632976,-0.33387536,-0.33224934,-0.33062327,-0.32819957,-0.32737124,-0.33062327,-0.33224934,-0.32574517,-0.3111108,-0.2737118,-0.20376134,-0.08662504,0.08742273,0.3110801,0.555109,0.76901007,0.89752877,0.908911,0.7812208,0.51930547,0.17446196,-0.1850465,-0.4802804,-0.65270215,-0.69909036,-0.65840864,-0.5860345,-0.5185077,-0.46727204,-0.42904478,-0.40302813,-0.38514167,-0.37535477,-0.36967897,-0.36317474,-0.3574683,-0.35259014,-0.34691435,-0.34120786,-0.33470368,-0.32819957,-0.3216954,-0.3151912,-0.30948472,-0.30298054,-0.29890013,-0.29647642,-0.29564804,-0.29076993,-0.28509414,-0.27776158,-0.267177,-0.25742078,-0.24929053,-0.24361473,-0.24036264,-0.23790824,-0.23465616,-0.22489995,-0.21268928,-0.20213532,-0.19155067,-0.18179446,-0.16958386,-0.15494949,-0.13868904,-0.123226345,-0.10776359,-0.09150314,-0.07441443,-0.058153987,-0.042721927,-0.025633216,-0.004494667,0.015846252,0.035358667,0.05244744,0.06870794,0.0841707,0.099633336,0.11181331,0.120771885,0.12565005,0.12810445,0.12810445,0.12565005,0.120771885,0.11101568,0.097178936,0.07521212,0.04594338,0.01017046,-0.026430905,-0.063860536,-0.102087796,-0.1411128,-0.18179446,-0.22002178,-0.25416863,-0.28426576,-0.3111108,-0.33307767,-0.35016644,-0.3623464,-0.37210268,-0.38106126,-0.38919145,-0.39081746,-0.3867677,-0.38023287,-0.37455708,-0.371305,-0.3680529,-0.36317474,-0.35829663,-0.35504454,-0.35259014,-0.35259014,-0.35016644,-0.34608603,-0.34445995,-0.34037948,-0.33470368,-0.32819957,-0.32332146,-0.32249302,-0.3241191,-0.32574517,-0.3265735,-0.3265735,-0.32737124,-0.32819957,-0.32737124,-0.32737124,-0.32737124,-0.32737124,-0.3265735,-0.32494748,-0.3241191,-0.32494748,-0.32819957,-0.3314516,-0.33307767,-0.33387536,-0.33470368,-0.33632976,-0.33632976,-0.33875346,-0.34037948,-0.33958185,-0.33958185,-0.33795583,-0.33550137,-0.33224934,-0.3314516,-0.33224934,-0.33224934,-0.3314516,-0.32899725,-0.3265735,-0.32737124,-0.32899725,-0.32899725,-0.3241191,-0.3184433,-0.3135652,-0.31193912,-0.31193912,-0.3135652,-0.3151912,-0.3184433,-0.320867,-0.320867,-0.319241,-0.3151912,-0.3127368,-0.3127368,-0.3127368,-0.3103131,-0.30706102,-0.30460662,-0.30377823,-0.30377823,-0.30298054,-0.3005262,-0.29322433,-0.28426576,-0.27125746,-0.2590468,-0.25091654,-0.25091654,-0.2582491,-0.26475328,-0.2590468,-0.23953432,-0.2086395,-0.17854244,-0.1647057,-0.16553402,-0.17529029,-0.18421823,-0.18667257,-0.18909633,-0.19968092,-0.22081947,-0.24849284,-0.2720858,-0.28751785,-0.29810244,-0.30785865,-0.3200693,-0.33062327,-0.33632976,-0.33470368,-0.33224934,-0.32982558,-0.32819957,-0.32737124,-0.3265735,-0.32737124,-0.33062327,-0.32494748,-0.3111108,-0.27858996,-0.21919346,-0.12405467,0.021552682,0.21756732,0.4518094,0.6746689,0.8292042,0.8779856,0.8007333,0.59333634,0.29076993,-0.05085212,-0.36317474,-0.5762476,-0.66086304,-0.6437743,-0.5754499,-0.50224733,-0.44450754,-0.40302813,-0.37210268,-0.3517925,-0.34200555,-0.33875346,-0.33632976,-0.33062327,-0.3241191,-0.3151912,-0.3086871,-0.30298054,-0.2997285,-0.29727405,-0.29159826,-0.28263974,-0.27045977,-0.25987512,-0.253371,-0.24929053,-0.24524075,-0.23873657,-0.23385847,-0.23223245,-0.23060638,-0.22569758,-0.2167697,-0.20618504,-0.19642884,-0.18992472,-0.18342054,-0.17446196,-0.16390806,-0.15252572,-0.14194119,-0.13055885,-0.11834812,-0.10451156,-0.09233159,-0.0776971,-0.05978006,-0.03946978,-0.019129038,-0.0012425184,0.015048623,0.032935023,0.05164981,0.07033384,0.088250995,0.1045115,0.120771885,0.13540626,0.14841461,0.1565448,0.16225135,0.1671294,0.17200756,0.17446196,0.1736337,0.16633165,0.15249515,0.13298261,0.106137514,0.07195997,0.033732653,-0.0077466965,-0.049226046,-0.090705514,-0.13218492,-0.17041224,-0.20701349,-0.23873657,-0.2655509,-0.28509414,-0.29890013,-0.30785865,-0.3151912,-0.3216954,-0.32899725,-0.33387536,-0.33387536,-0.33062327,-0.32494748,-0.3200693,-0.3176149,-0.3176149,-0.3176149,-0.3176149,-0.3151912,-0.3086871,-0.30135453,-0.2948504,-0.29076993,-0.29076993,-0.29076993,-0.28914386,-0.28589183,-0.28263974,-0.28101367,-0.28021604,-0.28021604,-0.27858996,-0.27858996,-0.27696395,-0.2737118,-0.2696314,-0.2655509,-0.2631272,-0.26475328,-0.267177,-0.2688337,-0.2688337,-0.27125746,-0.27288347,-0.2745095,-0.2745095,-0.2720858,-0.27125746,-0.27288347,-0.27533787,-0.27696395,-0.2745095,-0.2696314,-0.26800537,-0.2688337,-0.27045977,-0.27288347,-0.27533787,-0.27776158,-0.28101367,-0.28184205,-0.28021604,-0.27776158,-0.27696395,-0.27696395,-0.27533787,-0.2696314,-0.2639249,-0.2615012,-0.26229888,-0.2655509,-0.2655509,-0.2639249,-0.2606728,-0.2582491,-0.25742078,-0.2566231,-0.2557947,-0.25742078,-0.25987512,-0.2639249,-0.2639249,-0.2606728,-0.2566231,-0.25254261,-0.25091654,-0.2501189,-0.24929053,-0.24849284,-0.24766451,-0.24686676,-0.24524075,-0.24441242,-0.24361473,-0.24036264,-0.23465616,-0.22244549,-0.20943719,-0.19968092,-0.19563115,-0.19805491,-0.20050925,-0.19317675,-0.17529029,-0.14844531,-0.12485236,-0.11101568,-0.11264175,-0.12160027,-0.13135654,-0.13706297,-0.14194119,-0.15252572,-0.17041224,-0.19237912,-0.2143153,-0.23385847,-0.25254261,-0.2696314,-0.28263974,-0.28914386,-0.28834617,-0.28509414,-0.28263974,-0.28101367,-0.28021604,-0.28021604,-0.28021604,-0.28426576,-0.28914386,-0.28589183,-0.27045977,-0.23303008,-0.16390806,-0.055730224,0.1020571,0.30620193,0.53964627,0.7543757,0.8991549,0.9430579,0.85767543,0.63886535,0.32899725,-0.013422489,-0.3200693,-0.5233859,-0.60717297,-0.59821445,-0.54047465,-0.4729786,-0.4144104,-0.37047666,-0.34120786,-0.32494748,-0.319241,-0.3176149,-0.3159889,-0.31193912,-0.30460662,-0.29402196,-0.28263974,-0.2720858,-0.2663793,-0.2631272,-0.2606728,-0.2566231,-0.25091654,-0.24524075,-0.23790824,-0.22977805,-0.22164786,-0.21268928,-0.20781112,-0.20538741,-0.20293301,-0.19563115,-0.1850465,-0.17366427,-0.16228199,-0.15332341,-0.14519322,-0.13786066,-0.13218492,-0.12485236,-0.11592448,-0.10371381,-0.090705514,-0.0776971,-0.06548649,-0.05410427,-0.037843823,-0.017502964,0.006090045,0.029682875,0.050821424,0.06870794,0.084999084,0.1020571,0.119974256,0.13623464,0.15004063,0.16145372,0.1695838,0.17771399,0.1833899,0.18909633,0.19072235,0.1915201,0.18989396,0.18421817,0.17283595,0.15166664,0.12160027,0.0866251,0.04919541,0.012594104,-0.026430905,-0.06873852,-0.11184406,-0.15332341,-0.18747026,-0.2167697,-0.24278641,-0.2663793,-0.28509414,-0.29647642,-0.30460662,-0.3086871,-0.3127368,-0.31681722,-0.31681722,-0.3159889,-0.3151912,-0.31436288,-0.3127368,-0.3086871,-0.30377823,-0.30135453,-0.3005262,-0.29810244,-0.29239595,-0.28426576,-0.27776158,-0.2745095,-0.2737118,-0.2720858,-0.27125746,-0.27045977,-0.27045977,-0.27045977,-0.26800537,-0.2655509,-0.2639249,-0.2631272,-0.2639249,-0.26475328,-0.2639249,-0.26475328,-0.2639249,-0.2639249,-0.2631272,-0.2631272,-0.26475328,-0.26800537,-0.27045977,-0.27125746,-0.27125746,-0.27125746,-0.2720858,-0.2745095,-0.27533787,-0.27533787,-0.27696395,-0.27533787,-0.27288347,-0.2688337,-0.2663793,-0.26800537,-0.27125746,-0.27533787,-0.27613556,-0.27696395,-0.27858996,-0.2793876,-0.27858996,-0.27613556,-0.2737118,-0.2745095,-0.27696395,-0.27858996,-0.27533787,-0.2696314,-0.2663793,-0.26475328,-0.2663793,-0.2663793,-0.2663793,-0.26475328,-0.2639249,-0.2639249,-0.2615012,-0.25987512,-0.25987512,-0.2615012,-0.26475328,-0.2663793,-0.2655509,-0.26229888,-0.2582491,-0.2557947,-0.253371,-0.25254261,-0.25416863,-0.25499701,-0.2557947,-0.25416863,-0.251745,-0.2501189,-0.2501189,-0.25091654,-0.2501189,-0.24929053,-0.24849284,-0.24603844,-0.23953432,-0.22489995,-0.2086395,-0.19563115,-0.18909633,-0.19317675,-0.19968092,-0.20130694,-0.19155067,-0.16878617,-0.13948673,-0.11592448,-0.105339885,-0.11021799,-0.12080264,-0.13055885,-0.13786066,-0.14924294,-0.1671601,-0.19155067,-0.2167697,-0.23711056,-0.25416863,-0.27125746,-0.28672016,-0.29727405,-0.2997285,-0.29810244,-0.29647642,-0.29727405,-0.29727405,-0.29402196,-0.28997225,-0.28834617,-0.29076993,-0.29239595,-0.28672016,-0.26475328,-0.21026552,-0.11755049,0.026430845,0.21999109,0.45018327,0.6803448,0.85767543,0.9463098,0.91216314,0.73891294,0.45260704,0.10693526,-0.22894973,-0.4778567,-0.60717297,-0.6258878,-0.5787019,-0.5095798,-0.44613355,-0.39732164,-0.3672245,-0.35016644,-0.34445995,-0.34120786,-0.33632976,-0.32982558,-0.3216954,-0.3135652,-0.30623263,-0.30135453,-0.29564804,-0.28997225,-0.28509414,-0.2793876,-0.2745095,-0.27125746,-0.26800537,-0.2631272,-0.2566231,-0.24849284,-0.23953432,-0.23140407,-0.22244549,-0.2143153,-0.20781112,-0.20213532,-0.19642884,-0.18992472,-0.18096614,-0.17120993,-0.16307962,-0.1541518,-0.14599091,-0.13218492,-0.11834812,-0.10451156,-0.08987707,-0.07686877,-0.061406016,-0.04514569,-0.028885245,-0.010998726,0.0069184303,0.026430845,0.046771646,0.064658165,0.081746936,0.099633336,0.11914587,0.13623464,0.15004063,0.15982759,0.1671294,0.17525959,0.18096614,0.18259227,0.18013775,0.17283595,0.16145372,0.14436483,0.11914587,0.0866251,0.05164981,0.018300653,-0.016674638,-0.05410427,-0.09395754,-0.13543701,-0.17283589,-0.20538741,-0.23303008,-0.2582491,-0.2793876,-0.29402196,-0.30460662,-0.31436288,-0.32249302,-0.33062327,-0.33470368,-0.33224934,-0.32819957,-0.3216954,-0.31681722,-0.3135652,-0.3127368,-0.31193912,-0.3103131,-0.30706102,-0.30215222,-0.29810244,-0.29727405,-0.29647642,-0.2948504,-0.28834617,-0.28021604,-0.2745095,-0.27125746,-0.2696314,-0.267177,-0.2696314,-0.2745095,-0.28101367,-0.28589183,-0.28426576,-0.28101367,-0.27858996,-0.28021604,-0.28101367,-0.27776158,-0.27288347,-0.27125746,-0.27288347,-0.27858996,-0.28263974,-0.28509414,-0.28589183,-0.28751785,-0.28914386,-0.28834617,-0.28914386,-0.29159826,-0.29402196,-0.29402196,-0.28997225,-0.28509414,-0.28184205,-0.28184205,-0.28426576,-0.28426576,-0.28426576,-0.28509414,-0.28509414,-0.28672016,-0.28672016,-0.28751785,-0.28672016,-0.28346807,-0.27858996,-0.2720858,-0.2696314,-0.27125746,-0.2745095,-0.27613556,-0.2745095,-0.2720858,-0.27125746,-0.27288347,-0.27613556,-0.2745095,-0.27045977,-0.26475328,-0.25987512,-0.2582491,-0.2582491,-0.2590468,-0.2606728,-0.26229888,-0.2631272,-0.26229888,-0.2631272,-0.2639249,-0.2655509,-0.2639249,-0.25987512,-0.25499701,-0.25254261,-0.25254261,-0.25416863,-0.25254261,-0.25091654,-0.25091654,-0.253371,-0.25742078,-0.2582491,-0.25254261,-0.24361473,-0.23140407,-0.21919346,-0.2086395,-0.20050925,-0.19642884,-0.19642884,-0.19968092,-0.19968092,-0.19075304,-0.17041224,-0.1411128,-0.11509609,-0.10046172,-0.10125941,-0.11021799,-0.11917657,-0.12893277,-0.14273888,-0.16307962,-0.18829864,-0.2143153,-0.23548454,-0.251745,-0.26800537,-0.28184205,-0.29159826,-0.29647642,-0.29564804,-0.29322433,-0.29239595,-0.29239595,-0.29239595,-0.28997225,-0.28914386,-0.29239595,-0.29322433,-0.28997225,-0.2639249,-0.20213532,-0.09720969,0.06057763,0.26229882,0.49896455,0.72915673,0.8983265,0.9699029,0.9080825,0.7039379,0.39081752,0.030480623,-0.3005262,-0.5290923,-0.6299376,-0.6283115,-0.5729954,-0.50632775,-0.44775957,-0.4021998,-0.3688506,-0.34854043,-0.34283394,-0.34283394,-0.34120786,-0.33470368,-0.3265735,-0.3176149,-0.3111108,-0.3054043,-0.2997285,-0.29402196,-0.28834617,-0.28263974,-0.27533787,-0.27045977,-0.26475328,-0.2582491,-0.25091654,-0.24198866,-0.23548454,-0.23060638,-0.22569758,-0.22164786,-0.21514362,-0.20943719,-0.20538741,-0.20130694,-0.19642884,-0.18747026,-0.17608804,-0.16390806,-0.15332341,-0.14356714,-0.13381094,-0.123226345,-0.11184406,-0.099633336,-0.08337301,-0.064658165,-0.042721927,-0.021552682,-0.003666222,0.012594104,0.029682875,0.047569394,0.0662843,0.08337295,0.09638131,0.10856128,0.120771885,0.13298261,0.14436483,0.15329278,0.1589992,0.1589992,0.15491879,0.14841461,0.13703239,0.11914587,0.09475529,0.064658165,0.030480623,-0.0052922964,-0.04189354,-0.081746936,-0.123226345,-0.16553402,-0.20455903,-0.23953432,-0.2696314,-0.29647642,-0.3151912,-0.32899725,-0.33875346,-0.34528828,-0.35259014,-0.35829663,-0.36154872,-0.36154872,-0.3607204,-0.3607204,-0.36154872,-0.35909432,-0.35096413,-0.34200555,-0.33470368,-0.3314516,-0.33224934,-0.33062327,-0.32819957,-0.32494748,-0.32249302,-0.32249302,-0.32332146,-0.32249302,-0.3184433,-0.31436288,-0.3103131,-0.3054043,-0.3054043,-0.30706102,-0.3103131,-0.31436288,-0.31436288,-0.3151912,-0.31681722,-0.3200693,-0.320867,-0.3184433,-0.3151912,-0.3111108,-0.30948472,-0.3111108,-0.3135652,-0.31681722,-0.32332146,-0.32899725,-0.33387536,-0.3314516,-0.32899725,-0.3265735,-0.32737124,-0.33062327,-0.33307767,-0.33307767,-0.33224934,-0.33470368,-0.33712745,-0.33958185,-0.34200555,-0.34037948,-0.33550137,-0.33062327,-0.32574517,-0.32332146,-0.32332146,-0.32574517,-0.32819957,-0.32819957,-0.32737124,-0.3265735,-0.32574517,-0.32494748,-0.3241191,-0.3241191,-0.32332146,-0.3216954,-0.320867,-0.3184433,-0.31681722,-0.3176149,-0.3184433,-0.3184433,-0.3176149,-0.3151912,-0.3135652,-0.3127368,-0.3103131,-0.30623263,-0.30215222,-0.30135453,-0.30377823,-0.30785865,-0.30785865,-0.3005262,-0.28997225,-0.27776158,-0.267177,-0.2566231,-0.25091654,-0.25254261,-0.2557947,-0.25254261,-0.23790824,-0.21026552,-0.18016851,-0.16065598,-0.15820152,-0.16553402,-0.17608804,-0.18421823,-0.19237912,-0.20293301,-0.21756738,-0.23711056,-0.2582491,-0.28101367,-0.30215222,-0.3184433,-0.32899725,-0.33387536,-0.33712745,-0.34037948,-0.33958185,-0.33712745,-0.33470368,-0.33307767,-0.33062327,-0.33062327,-0.33062327,-0.3241191,-0.3151912,-0.28751785,-0.22732365,-0.12080264,0.04514575,0.26309657,0.51117516,0.7356608,0.878814,0.9048306,0.79340065,0.54697883,0.21836507,-0.13543701,-0.44042706,-0.634018,-0.70234245,-0.669791,-0.5933363,-0.5168817,-0.45831352,-0.4209146,-0.39489794,-0.37943518,-0.371305,-0.3672245,-0.36317474,-0.3558423,-0.34854043,-0.33712745,-0.32899725,-0.320867,-0.3127368,-0.30785865,-0.3054043,-0.30298054,-0.29890013,-0.29239595,-0.28589183,-0.28021604,-0.27696395,-0.2745095,-0.267177,-0.2566231,-0.24603844,-0.23873657,-0.23548454,-0.23303008,-0.22815198,-0.21919346,-0.2086395,-0.19725722,-0.18747026,-0.17934006,-0.16958386,-0.1590299,-0.14681923,-0.13218492,-0.11672217,-0.10125941,-0.087453425,-0.07361674,-0.057356298,-0.037843823,-0.017502964,0.0036662817,0.023178697,0.04269123,0.06057763,0.076838136,0.088250995,0.09800732,0.106137514,0.11181331,0.11914587,0.12647843,0.13460863,0.14028442,0.14028442,0.12973046,0.11181331,0.088250995,0.06057763,0.02805686,-0.009372771,-0.050023735,-0.09233159,-0.13298261,-0.17366427,-0.21189159,-0.24524075,-0.2745095,-0.29810244,-0.3184433,-0.33712745,-0.3517925,-0.36154872,-0.3655985,-0.3664269,-0.3672245,-0.3680529,-0.3688506,-0.3664269,-0.36317474,-0.3599227,-0.3574683,-0.35421622,-0.34933805,-0.34528828,-0.34200555,-0.34200555,-0.34037948,-0.33712745,-0.33307767,-0.32899725,-0.32737124,-0.32574517,-0.32332146,-0.3216954,-0.3184433,-0.31681722,-0.3159889,-0.31436288,-0.31436288,-0.3159889,-0.31681722,-0.3151912,-0.31436288,-0.31436288,-0.3176149,-0.3241191,-0.32982558,-0.33224934,-0.33387536,-0.33470368,-0.33387536,-0.33224934,-0.32737124,-0.3241191,-0.32249302,-0.32332146,-0.3265735,-0.32737124,-0.32737124,-0.32819957,-0.32819957,-0.32737124,-0.32737124,-0.32819957,-0.32982558,-0.3314516,-0.33062327,-0.32574517,-0.3200693,-0.31681722,-0.31681722,-0.3184433,-0.3184433,-0.31681722,-0.31436288,-0.3127368,-0.3127368,-0.3111108,-0.3111108,-0.31193912,-0.3127368,-0.3103131,-0.30377823,-0.29647642,-0.29076993,-0.29076993,-0.29564804,-0.29647642,-0.29239595,-0.28426576,-0.27288347,-0.2606728,-0.2501189,-0.24603844,-0.24929053,-0.25499701,-0.25254261,-0.23711056,-0.21026552,-0.18259215,-0.16633171,-0.16307962,-0.16553402,-0.1671601,-0.16795778,-0.17529029,-0.18992472,-0.21268928,-0.23303008,-0.2501189,-0.2639249,-0.27696395,-0.29159826,-0.30377823,-0.31193912,-0.31436288,-0.31436288,-0.3135652,-0.3135652,-0.3151912,-0.31436288,-0.3111108,-0.30623263,-0.30215222,-0.2948504,-0.28672016,-0.267177,-0.22327387,-0.14681923,-0.022381067,0.14841461,0.35663998,0.56811726,0.72915673,0.8031571,0.76413214,0.5965885,0.328169,0.009342074,-0.29564804,-0.5168817,-0.6210097,-0.62180734,-0.5624415,-0.49249107,-0.43475127,-0.39327192,-0.36397243,-0.34037948,-0.32494748,-0.31681722,-0.3111108,-0.3054043,-0.29890013,-0.29159826,-0.28672016,-0.28184205,-0.27533787,-0.2696314,-0.26475328,-0.2631272,-0.2590468,-0.251745,-0.24116033,-0.23223245,-0.22652596,-0.22327387,-0.22002178,-0.21594137,-0.21189159,-0.2086395,-0.20618504,-0.20050925,-0.19237912,-0.18096614,-0.16795778,-0.1541518,-0.14031512,-0.12893277,-0.11917657,-0.11101568,-0.102087796,-0.08907944,-0.0752427,-0.05978006,-0.04514569,-0.03130889,-0.015876949,0.0012118816,0.022350311,0.044317245,0.067910194,0.09067476,0.11101568,0.12647843,0.13865829,0.14841461,0.15820158,0.16633165,0.17038155,0.17120993,0.17446196,0.17934012,0.18259227,0.18013775,0.16550338,0.14028442,0.11101568,0.07929242,0.043519616,0.004463911,-0.037015438,-0.0776971,-0.11592448,-0.15086901,-0.18421823,-0.21189159,-0.23303008,-0.2501189,-0.2655509,-0.28346807,-0.29890013,-0.30785865,-0.3103131,-0.3086871,-0.30785865,-0.30948472,-0.3127368,-0.3151912,-0.31193912,-0.30623263,-0.29890013,-0.29159826,-0.28751785,-0.28509414,-0.28346807,-0.28021604,-0.2745095,-0.2688337,-0.2639249,-0.2615012,-0.25987512,-0.2590468,-0.2557947,-0.25091654,-0.24524075,-0.23953432,-0.23628217,-0.23711056,-0.23873657,-0.24116033,-0.24278641,-0.24278641,-0.24198866,-0.24198866,-0.24361473,-0.24278641,-0.24116033,-0.24036264,-0.24036264,-0.24441242,-0.24929053,-0.25091654,-0.2501189,-0.24929053,-0.25091654,-0.25254261,-0.25254261,-0.25254261,-0.25254261,-0.251745,-0.2501189,-0.24686676,-0.24198866,-0.23873657,-0.24116033,-0.24603844,-0.2501189,-0.25254261,-0.25254261,-0.25091654,-0.24849284,-0.24686676,-0.24524075,-0.24441242,-0.24116033,-0.23711056,-0.23060638,-0.22652596,-0.22569758,-0.22815198,-0.23140407,-0.23140407,-0.22977805,-0.22569758,-0.22002178,-0.21189159,-0.19968092,-0.18829864,-0.18016851,-0.17771399,-0.17771399,-0.17691636,-0.17366427,-0.16553402,-0.15332341,-0.13786066,-0.122428596,-0.11264175,-0.11184406,-0.11917657,-0.12405467,-0.12568074,-0.12810439,-0.13706297,-0.15577775,-0.17691636,-0.19400507,-0.20781112,-0.22002178,-0.23711056,-0.25416863,-0.267177,-0.27045977,-0.267177,-0.26229888,-0.2582491,-0.25742078,-0.25742078,-0.2590468,-0.2615012,-0.2655509,-0.2655509,-0.25742078,-0.24116033,-0.20130694,-0.12810439,-0.008544385,0.16307962,0.37535477,0.6063447,0.8072374,0.9357561,0.96014667,0.8527665,0.6177268,0.3013239,-0.037015438,-0.32494748,-0.5054994,-0.5721978,-0.553483,-0.49249107,-0.424995,-0.3664269,-0.32574517,-0.3005262,-0.28834617,-0.28589183,-0.28672016,-0.28672016,-0.28101367,-0.27125746,-0.2606728,-0.25254261,-0.24929053,-0.24686676,-0.24278641,-0.23628217,-0.22894973,-0.22407156,-0.22002178,-0.21514362,-0.20781112,-0.19968092,-0.19317675,-0.18992472,-0.1850465,-0.17854244,-0.1720382,-0.1647057,-0.15982759,-0.1541518,-0.14599091,-0.13543701,-0.12405467,-0.11347014,-0.10371381,-0.09558362,-0.088251114,-0.08094925,-0.07116228,-0.055730224,-0.034561038,-0.011796415,0.01017046,0.028854609,0.04514575,0.06057763,0.07766652,0.09555304,0.11343944,0.13215423,0.14841461,0.16145372,0.17038155,0.17934012,0.1915201,0.2037307,0.2143153,0.21836507,0.21673894,0.21106327,0.20047867,0.18421817,0.15982759,0.12810445,0.09230089,0.056527972,0.019098282,-0.019129038,-0.057356298,-0.09558362,-0.13218492,-0.16633171,-0.19805491,-0.22407156,-0.24361473,-0.25742078,-0.267177,-0.2745095,-0.28101367,-0.28426576,-0.28672016,-0.28589183,-0.28509414,-0.28101367,-0.27533787,-0.2696314,-0.26475328,-0.2631272,-0.26229888,-0.2582491,-0.25416863,-0.24929053,-0.24524075,-0.24278641,-0.24036264,-0.23790824,-0.23711056,-0.23953432,-0.23873657,-0.23465616,-0.22732365,-0.21919346,-0.21594137,-0.21756738,-0.21919346,-0.21839571,-0.2167697,-0.21594137,-0.2167697,-0.21919346,-0.22164786,-0.22407156,-0.22732365,-0.22815198,-0.22652596,-0.22244549,-0.22081947,-0.22244549,-0.22407156,-0.22569758,-0.22569758,-0.22407156,-0.22569758,-0.22977805,-0.23303008,-0.23548454,-0.23465616,-0.23223245,-0.22569758,-0.22164786,-0.22002178,-0.22164786,-0.22652596,-0.22977805,-0.22977805,-0.22732365,-0.22569758,-0.22489995,-0.22489995,-0.22407156,-0.22327387,-0.22407156,-0.22732365,-0.22977805,-0.22894973,-0.22489995,-0.22081947,-0.21839571,-0.21756738,-0.21594137,-0.21268928,-0.20943719,-0.2086395,-0.2086395,-0.20943719,-0.20943719,-0.21106327,-0.21268928,-0.21189159,-0.20701349,-0.20050925,-0.19642884,-0.19968092,-0.20455903,-0.20781112,-0.20701349,-0.20538741,-0.20213532,-0.19725722,-0.18829864,-0.17366427,-0.15820152,-0.14844531,-0.14599091,-0.1516974,-0.15820152,-0.15494949,-0.13868904,-0.11021799,-0.0776971,-0.056527913,-0.05164981,-0.05978006,-0.06953633,-0.07607114,-0.08012086,-0.08907944,-0.108591914,-0.13381094,-0.1590299,-0.18016851,-0.19725722,-0.21268928,-0.22732365,-0.23790824,-0.24361473,-0.24524075,-0.24361473,-0.24036264,-0.23790824,-0.23548454,-0.23548454,-0.23711056,-0.24116033,-0.24278641,-0.23790824,-0.22327387,-0.18342054,-0.10696596,0.020724416,0.20047867,0.4208839,0.65675175,0.85767543,0.9821136,1.0,0.88206613,0.6323613,0.30052614,-0.05410427,-0.34854043,-0.5274663,-0.5844084,-0.55268526,-0.48273486,-0.41115838,-0.35504454,-0.3200693,-0.2997285,-0.28997225,-0.28589183,-0.28426576,-0.28184205,-0.27696395,-0.2688337,-0.2582491,-0.24929053,-0.24441242,-0.24198866,-0.24036264,-0.23628217,-0.23223245,-0.22732365,-0.22244549,-0.21756738,-0.2135176,-0.2086395,-0.20455903,-0.19888324,-0.19317675,-0.18667257,-0.18179446,-0.17771399,-0.17120993,-0.16307962,-0.1541518,-0.14599091,-0.13948673,-0.13135654,-0.119974196,-0.105339885,-0.08987707,-0.0776971,-0.06628418,-0.055730224,-0.041095853,-0.02480483,-0.009372771,0.0069184303,0.02480483,0.044317245,0.064658165,0.08091855,0.09475529,0.11018729,0.12727606,0.14436483,0.1589992,0.1695838,0.1768856,0.18421817,0.19072235,0.19314611,0.19314611,0.18826795,0.17851174,0.16550338,0.14599085,0.12160027,0.09150314,0.05732572,0.018300653,-0.024007142,-0.067112565,-0.1093896,-0.15007132,-0.18667257,-0.21919346,-0.24603844,-0.2639249,-0.2745095,-0.28184205,-0.28997225,-0.29890013,-0.30623263,-0.30948472,-0.30948472,-0.3086871,-0.30785865,-0.3086871,-0.30785865,-0.30460662,-0.29810244,-0.29076993,-0.28263974,-0.27776158,-0.27613556,-0.27696395,-0.27613556,-0.27125746,-0.2655509,-0.2615012,-0.2615012,-0.2655509,-0.2696314,-0.26800537,-0.2631272,-0.2582491,-0.25499701,-0.25416863,-0.2557947,-0.25742078,-0.2615012,-0.2639249,-0.2655509,-0.2663793,-0.267177,-0.267177,-0.26475328,-0.26229888,-0.2590468,-0.25987512,-0.2639249,-0.26800537,-0.2696314,-0.2688337,-0.267177,-0.26800537,-0.27125746,-0.27533787,-0.27533787,-0.27288347,-0.27045977,-0.2688337,-0.27045977,-0.2720858,-0.27288347,-0.2737118,-0.27288347,-0.2720858,-0.27125746,-0.2696314,-0.2696314,-0.2696314,-0.27045977,-0.2688337,-0.2663793,-0.2631272,-0.2606728,-0.2615012,-0.2631272,-0.26475328,-0.2663793,-0.2663793,-0.26475328,-0.26229888,-0.2615012,-0.26475328,-0.26800537,-0.26800537,-0.2631272,-0.2566231,-0.25091654,-0.24929053,-0.25091654,-0.253371,-0.253371,-0.253371,-0.25254261,-0.25254261,-0.253371,-0.253371,-0.25254261,-0.24929053,-0.24524075,-0.24278641,-0.24278641,-0.24441242,-0.24441242,-0.24441242,-0.24278641,-0.24278641,-0.24524075,-0.24441242,-0.23711056,-0.22489995,-0.21026552,-0.19968092,-0.19400507,-0.19237912,-0.19237912,-0.19400507,-0.19400507,-0.1858443,-0.1671601,-0.14273888,-0.119974196,-0.108591914,-0.108591914,-0.11264175,-0.11755049,-0.12405467,-0.13706297,-0.15740383,-0.18179446,-0.20293301,-0.22081947,-0.23711056,-0.25416863,-0.27288347,-0.28834617,-0.2948504,-0.29564804,-0.29239595,-0.28672016,-0.28184205,-0.27858996,-0.27776158,-0.27776158,-0.28184205,-0.28426576,-0.28184205,-0.2696314,-0.23385847,-0.16228199,-0.038641512,0.14028442,0.36314404,0.6063447,0.8169937,0.9487643,0.96827674,0.8454647,0.59088194,0.25416863,-0.102885485,-0.39977604,-0.581954,-0.6388961,-0.60554695,-0.53234446,-0.4599396,-0.40628016,-0.371305,-0.34933805,-0.33632976,-0.3314516,-0.33062327,-0.32737124,-0.3216954,-0.3135652,-0.30623263,-0.30215222,-0.29564804,-0.28834617,-0.2793876,-0.27045977,-0.2663793,-0.2655509,-0.2639249,-0.2590468,-0.25254261,-0.24766451,-0.24361473,-0.24116033,-0.23873657,-0.23223245,-0.22327387,-0.21189159,-0.20213532,-0.19237912,-0.1850465,-0.17934006,-0.1720382,-0.16307962,-0.1516974,-0.14194119,-0.13135654,-0.12160027,-0.10696596,-0.087453425,-0.067112565,-0.04839772,-0.032934964,-0.018300593,-0.00041419268,0.019098282,0.038610816,0.05732572,0.07604051,0.09392691,0.11018729,0.12402403,0.13623464,0.14761686,0.15820158,0.16875541,0.1736337,0.17525959,0.17525959,0.17283595,0.16633165,0.15329278,0.13215423,0.1045115,0.07358599,0.041065097,0.0069184303,-0.028885245,-0.067112565,-0.10776359,-0.14844531,-0.18829864,-0.22164786,-0.2501189,-0.2720858,-0.29159826,-0.30948472,-0.32494748,-0.33307767,-0.33470368,-0.33307767,-0.33062327,-0.33062327,-0.3314516,-0.32982558,-0.32737124,-0.3265735,-0.32574517,-0.3241191,-0.3200693,-0.3151912,-0.3111108,-0.3054043,-0.29810244,-0.28834617,-0.28101367,-0.27858996,-0.2793876,-0.28184205,-0.28101367,-0.27858996,-0.27858996,-0.28184205,-0.28751785,-0.29076993,-0.29159826,-0.28914386,-0.28672016,-0.28672016,-0.28834617,-0.28997225,-0.29239595,-0.29402196,-0.29564804,-0.29727405,-0.30135453,-0.3054043,-0.3086871,-0.3086871,-0.3054043,-0.30215222,-0.30135453,-0.30377823,-0.30623263,-0.30623263,-0.30623263,-0.3086871,-0.3103131,-0.3127368,-0.31436288,-0.3135652,-0.3127368,-0.3111108,-0.30785865,-0.30460662,-0.30460662,-0.3054043,-0.30623263,-0.30706102,-0.30706102,-0.3086871,-0.30785865,-0.30377823,-0.29810244,-0.29322433,-0.29239595,-0.29647642,-0.2997285,-0.30135453,-0.2997285,-0.29727405,-0.29647642,-0.29810244,-0.3005262,-0.3005262,-0.29727405,-0.29322433,-0.28997225,-0.28589183,-0.28263974,-0.28101367,-0.28021604,-0.28021604,-0.28184205,-0.28184205,-0.28101367,-0.28184205,-0.28509414,-0.28751785,-0.28426576,-0.27696395,-0.27045977,-0.2639249,-0.2590468,-0.253371,-0.24524075,-0.23628217,-0.22977805,-0.22815198,-0.22977805,-0.22977805,-0.22732365,-0.21189159,-0.18259215,-0.14924294,-0.12485236,-0.12080264,-0.13135654,-0.14519322,-0.15332341,-0.16145366,-0.17608804,-0.19725722,-0.22327387,-0.24603844,-0.267177,-0.28589183,-0.3005262,-0.3103131,-0.31436288,-0.3135652,-0.3135652,-0.3135652,-0.3135652,-0.3111108,-0.3103131,-0.3111108,-0.3151912,-0.320867,-0.3176149,-0.30623263,-0.27696395,-0.21756738,-0.119974196,0.03130889,0.23462546,0.477826,0.716946,0.8918222,0.9593184,0.8869442,0.66571057,0.3379252,-0.027259171,-0.3558423,-0.5779042,-0.6738714,-0.6657412,-0.60554695,-0.5339705,-0.4721502,-0.424995,-0.39081746,-0.3688506,-0.3574683,-0.3558423,-0.3558423,-0.35259014,-0.34528828,-0.33387536,-0.3241191,-0.3184433,-0.3159889,-0.3127368,-0.3054043,-0.29647642,-0.28997225,-0.28589183,-0.28509414,-0.28101367,-0.27288347,-0.26229888,-0.251745,-0.24441242,-0.24036264,-0.23873657,-0.23628217,-0.23140407,-0.22244549,-0.21268928,-0.20701349,-0.20293301,-0.19725722,-0.18667257,-0.1720382,-0.15577775,-0.14356714,-0.13381094,-0.12405467,-0.11021799,-0.09312922,-0.07607114,-0.05978006,-0.04514569,-0.02805686,-0.0077466965,0.012594104,0.032106638,0.05164981,0.071162224,0.088250995,0.1020571,0.11018729,0.11264169,0.115065455,0.119974256,0.12565005,0.1313566,0.13460863,0.13215423,0.123226404,0.10530925,0.07929242,0.04919541,0.015846252,-0.022381067,-0.064658165,-0.108591914,-0.14924294,-0.1850465,-0.21514362,-0.24524075,-0.27533787,-0.30298054,-0.32574517,-0.34363163,-0.3574683,-0.3664269,-0.37047666,-0.3680529,-0.36397243,-0.3607204,-0.36154872,-0.3623464,-0.35909432,-0.3558423,-0.3517925,-0.35016644,-0.34933805,-0.34691435,-0.34283394,-0.33550137,-0.32982558,-0.32494748,-0.3216954,-0.320867,-0.320867,-0.320867,-0.319241,-0.3184433,-0.319241,-0.3216954,-0.3265735,-0.32737124,-0.32249302,-0.3151912,-0.30785865,-0.30623263,-0.3103131,-0.3151912,-0.3184433,-0.3200693,-0.320867,-0.32249302,-0.32494748,-0.32819957,-0.32899725,-0.32899725,-0.32737124,-0.3241191,-0.32332146,-0.3265735,-0.33062327,-0.33470368,-0.33712745,-0.33795583,-0.33958185,-0.34120786,-0.34200555,-0.33958185,-0.33387536,-0.33062327,-0.3265735,-0.32574517,-0.32574517,-0.3265735,-0.32819957,-0.3265735,-0.32494748,-0.32249302,-0.320867,-0.320867,-0.320867,-0.3200693,-0.3176149,-0.3176149,-0.319241,-0.320867,-0.320867,-0.3184433,-0.3151912,-0.31436288,-0.3135652,-0.3103131,-0.29890013,-0.28672016,-0.2745095,-0.2655509,-0.2615012,-0.2606728,-0.2606728,-0.25987512,-0.25091654,-0.23548454,-0.2167697,-0.20213532,-0.19888324,-0.20213532,-0.20293301,-0.19725722,-0.19317675,-0.19968092,-0.21919346,-0.24686676,-0.2737118,-0.29322433,-0.30948472,-0.32494748,-0.34120786,-0.35016644,-0.35096413,-0.34691435,-0.34200555,-0.33958185,-0.33795583,-0.33958185,-0.34120786,-0.34445995,-0.34933805,-0.34771204,-0.33795583,-0.319241,-0.28263974,-0.21919346,-0.1142984,0.0418936,0.24116027,0.4656154,0.66571057,0.79502666,0.8186197,0.7128962,0.4819064,0.16875541,-0.1647057,-0.44775957,-0.6250595,-0.68605137,-0.66003466,-0.5965884,-0.5315161,-0.4778567,-0.43717498,-0.4070779,-0.38756537,-0.3786068,-0.3761831,-0.3737287,-0.3688506,-0.35909432,-0.34933805,-0.34200555,-0.33795583,-0.33224934,-0.32737124,-0.32332146,-0.3184433,-0.3135652,-0.30623263,-0.2948504,-0.28346807,-0.27533787,-0.27288347,-0.2720858,-0.2688337,-0.2631272,-0.2566231,-0.25091654,-0.24603844,-0.24036264,-0.23060638,-0.22002178,-0.21106327,-0.20293301,-0.19563115,-0.18829864,-0.17934006,-0.16958386,-0.15820152,-0.14436483,-0.12810439,-0.11021799,-0.09312922,-0.07361674,-0.052478194,-0.03130889,-0.010998726,0.006090045,0.021552682,0.035358667,0.04919541,0.06303215,0.07604051,0.08987713,0.10125935,0.10776365,0.11264169,0.11669147,0.118317485,0.11914587,0.11101568,0.09067476,0.061406016,0.027228594,-0.008544385,-0.045974016,-0.084998965,-0.123226345,-0.16145366,-0.19642884,-0.23140407,-0.2663793,-0.3005262,-0.32819957,-0.34771204,-0.36154872,-0.371305,-0.3786068,-0.38348496,-0.38348496,-0.38106126,-0.3786068,-0.3786068,-0.38106126,-0.38268727,-0.38268727,-0.38106126,-0.3778091,-0.37455708,-0.36967897,-0.36397243,-0.35829663,-0.35341853,-0.34933805,-0.34528828,-0.34363163,-0.34120786,-0.33875346,-0.33550137,-0.33307767,-0.33387536,-0.33550137,-0.33712745,-0.33550137,-0.32819957,-0.320867,-0.31681722,-0.3176149,-0.32249302,-0.3241191,-0.32332146,-0.32249302,-0.32332146,-0.32819957,-0.3314516,-0.33062327,-0.3265735,-0.320867,-0.319241,-0.3216954,-0.32737124,-0.33307767,-0.33712745,-0.33712745,-0.33387536,-0.33307767,-0.33307767,-0.33387536,-0.33470368,-0.3314516,-0.32737124,-0.3241191,-0.3216954,-0.3216954,-0.3216954,-0.32332146,-0.32574517,-0.32899725,-0.33062327,-0.32737124,-0.3216954,-0.31681722,-0.31193912,-0.30623263,-0.29727405,-0.28834617,-0.27858996,-0.27125746,-0.267177,-0.2615012,-0.25742078,-0.25254261,-0.24766451,-0.23953432,-0.22652596,-0.2143153,-0.20538741,-0.20455903,-0.20781112,-0.21106327,-0.2135176,-0.21756738,-0.22489995,-0.23628217,-0.24766451,-0.25987512,-0.2737118,-0.29076993,-0.31193912,-0.3314516,-0.34283394,-0.34528828,-0.34120786,-0.33632976,-0.33224934,-0.32819957,-0.3241191,-0.320867,-0.31681722,-0.31681722,-0.3200693,-0.3176149,-0.3086871,-0.2793876,-0.21594137,-0.11021799,0.04514575,0.240332,0.46319163,0.66979086,0.80966115,0.8535949,0.77143383,0.5616132,0.2663486,-0.064658165,-0.36317474,-0.5640676,-0.64702636,-0.6315636,-0.56731963,-0.49736923,-0.43962944,-0.39569557,-0.3623464,-0.34200555,-0.33224934,-0.33307767,-0.33387536,-0.32899725,-0.3216954,-0.31436288,-0.3086871,-0.30623263,-0.30215222,-0.29647642,-0.28834617,-0.2793876,-0.2720858,-0.2639249,-0.2590468,-0.2557947,-0.25254261,-0.2501189,-0.24441242,-0.23711056,-0.22977805,-0.22407156,-0.21919346,-0.2135176,-0.20455903,-0.19400507,-0.18179446,-0.17041224,-0.15982759,-0.15086901,-0.14194119,-0.13218492,-0.12160027,-0.10696596,-0.09312922,-0.07932317,-0.06303209,-0.04514569,-0.024007142,-0.0028685927,0.015048623,0.030480623,0.04594338,0.06382978,0.080090165,0.09638131,0.10938954,0.12239802,0.13623464,0.15004063,0.16062522,0.16633165,0.1671294,0.16633165,0.16387737,0.15574718,0.1411128,0.11589372,0.08337295,0.04514575,0.006090045,-0.032137334,-0.06873852,-0.10451156,-0.1411128,-0.17854244,-0.2135176,-0.24441242,-0.26800537,-0.28751785,-0.30298054,-0.3184433,-0.33062327,-0.33712745,-0.33712745,-0.33470368,-0.33062327,-0.32982558,-0.32982558,-0.33062327,-0.32982558,-0.32737124,-0.32494748,-0.3216954,-0.3216954,-0.3200693,-0.31681722,-0.31193912,-0.30377823,-0.29810244,-0.29564804,-0.29564804,-0.29564804,-0.29322433,-0.28997225,-0.28751785,-0.28834617,-0.28914386,-0.28509414,-0.28101367,-0.27696395,-0.27533787,-0.27696395,-0.2793876,-0.2793876,-0.2793876,-0.2793876,-0.28101367,-0.28101367,-0.28101367,-0.28184205,-0.28346807,-0.28509414,-0.28346807,-0.28263974,-0.28101367,-0.28101367,-0.28346807,-0.28509414,-0.28751785,-0.28914386,-0.29239595,-0.29647642,-0.29810244,-0.29890013,-0.2997285,-0.29810244,-0.2948504,-0.28834617,-0.28426576,-0.28346807,-0.28509414,-0.28672016,-0.28672016,-0.28672016,-0.28672016,-0.28751785,-0.28914386,-0.28751785,-0.28509414,-0.28101367,-0.27696395,-0.27288347,-0.2696314,-0.26800537,-0.267177,-0.267177,-0.26800537,-0.267177,-0.2655509,-0.26229888,-0.25742078,-0.24849284,-0.23465616,-0.21919346,-0.20781112,-0.20293301,-0.20293301,-0.20455903,-0.20050925,-0.19075304,-0.17608804,-0.16145366,-0.1516974,-0.14761686,-0.14924294,-0.15007132,-0.15007132,-0.15332341,-0.16390806,-0.18421823,-0.2086395,-0.23060638,-0.24686676,-0.2606728,-0.27533787,-0.29239595,-0.30785865,-0.3127368,-0.3103131,-0.30377823,-0.29727405,-0.29564804,-0.29647642,-0.2997285,-0.30135453,-0.30460662,-0.30948472,-0.3086871,-0.3005262,-0.2720858,-0.2086395,-0.102087796,0.056527972,0.25742078,0.48515856,0.70314014,0.86335135,0.9341301,0.88206613,0.69255555,0.39406967,0.04594338,-0.2793876,-0.5087515,-0.61530316,-0.6185553,-0.56486523,-0.49491477,-0.43475127,-0.39001977,-0.3599227,-0.34200555,-0.33387536,-0.3314516,-0.33224934,-0.3314516,-0.32737124,-0.31681722,-0.3054043,-0.29402196,-0.28751785,-0.28509414,-0.28263974,-0.28101367,-0.27696395,-0.27125746,-0.2655509,-0.2590468,-0.25499701,-0.251745,-0.24766451,-0.24116033,-0.23060638,-0.22164786,-0.2143153,-0.21026552,-0.20538741,-0.19725722,-0.18829864,-0.17854244,-0.1720382,-0.1647057,-0.15740383,-0.14519322,-0.12973046,-0.11264175,-0.09558362,-0.08012086,-0.06548649,-0.050023735,-0.032137334,-0.011796415,0.009342074,0.028854609,0.04594338,0.06057763,0.07521212,0.09392691,0.11101568,0.12647843,0.13703239,0.14353657,0.15166664,0.1589992,0.16550338,0.16875541,0.16550338,0.15820158,0.14516246,0.1248523,0.09880507,0.07033384,0.041065097,0.008544326,-0.02805686,-0.06873852,-0.11184406,-0.15086901,-0.1858443,-0.21594137,-0.24278641,-0.267177,-0.28672016,-0.30215222,-0.3127368,-0.319241,-0.32249302,-0.3241191,-0.32494748,-0.32574517,-0.3265735,-0.3241191,-0.319241,-0.3135652,-0.3086871,-0.3054043,-0.30377823,-0.30215222,-0.30135453,-0.29727405,-0.29159826,-0.28509414,-0.27776158,-0.27288347,-0.27045977,-0.27045977,-0.27125746,-0.27045977,-0.2696314,-0.2688337,-0.26800537,-0.2696314,-0.27045977,-0.27288347,-0.2745095,-0.27533787,-0.2745095,-0.27125746,-0.26800537,-0.2688337,-0.2720858,-0.27696395,-0.28021604,-0.28263974,-0.28184205,-0.28263974,-0.28426576,-0.28589183,-0.28672016,-0.28589183,-0.28509414,-0.28346807,-0.28021604,-0.28021604,-0.28021604,-0.28101367,-0.28346807,-0.28346807,-0.28346807,-0.28426576,-0.28509414,-0.28589183,-0.28426576,-0.28184205,-0.27858996,-0.27613556,-0.2745095,-0.2720858,-0.27045977,-0.2720858,-0.2745095,-0.27696395,-0.27613556,-0.2745095,-0.27288347,-0.2737118,-0.27533787,-0.2745095,-0.2720858,-0.26800537,-0.267177,-0.2688337,-0.2720858,-0.2737118,-0.2737118,-0.27045977,-0.2663793,-0.2606728,-0.2566231,-0.2557947,-0.2566231,-0.25987512,-0.2606728,-0.25987512,-0.2582491,-0.2557947,-0.24849284,-0.23628217,-0.22244549,-0.21026552,-0.20293301,-0.20130694,-0.20213532,-0.20213532,-0.19725722,-0.18421823,-0.15982759,-0.13135654,-0.11184406,-0.106137514,-0.11264175,-0.12160027,-0.123226345,-0.122428596,-0.13055885,-0.15007132,-0.17691636,-0.20213532,-0.22244549,-0.23953432,-0.25742078,-0.2745095,-0.28589183,-0.28997225,-0.28997225,-0.29076993,-0.29159826,-0.29076993,-0.28914386,-0.28672016,-0.28509414,-0.28914386,-0.29239595,-0.28914386,-0.27696395,-0.24116033,-0.16795778,-0.050023735,0.11914587,0.32979488,0.56403697,0.77714026,0.92191935,0.9633988,0.86743164,0.6307354,0.3013239,-0.057356298,-0.3664269,-0.5608155,-0.6315636,-0.60879904,-0.54292905,-0.4746046,-0.4184602,-0.3761831,-0.34608603,-0.32574517,-0.31681722,-0.3151912,-0.3151912,-0.31193912,-0.30377823,-0.29322433,-0.28509414,-0.2793876,-0.27613556,-0.2737118,-0.27125746,-0.267177,-0.26229888,-0.25499701,-0.24686676,-0.23790824,-0.23140407,-0.22732365,-0.22327387,-0.2167697,-0.20943719,-0.20293301,-0.19888324,-0.19642884,-0.19317675,-0.1858443,-0.17446196,-0.16307962,-0.15252572,-0.14273888,-0.13381094,-0.12405467,-0.11264175,-0.10125941,-0.087453425,-0.07361674,-0.058982313,-0.043519616,-0.027259171,-0.0077466965,0.0142201185,0.036187172,0.056527972,0.07521212,0.09067476,0.106137514,0.119974256,0.13215423,0.14273882,0.15249515,0.16062522,0.1671294,0.16875541,0.16795778,0.16795778,0.16470575,0.15737307,0.14028442,0.114267826,0.08091855,0.04269123,0.0036662817,-0.037843823,-0.07932317,-0.11834812,-0.15332341,-0.1858443,-0.21594137,-0.24278641,-0.26800537,-0.28997225,-0.30623263,-0.319241,-0.32737124,-0.32899725,-0.32899725,-0.32982558,-0.33224934,-0.33307767,-0.32899725,-0.3216954,-0.3151912,-0.3127368,-0.31193912,-0.3086871,-0.30298054,-0.29564804,-0.29159826,-0.28997225,-0.28834617,-0.28751785,-0.28672016,-0.28751785,-0.28672016,-0.28426576,-0.2793876,-0.27613556,-0.27696395,-0.27858996,-0.27776158,-0.27533787,-0.2720858,-0.2737118,-0.27613556,-0.2793876,-0.28346807,-0.28509414,-0.28672016,-0.28751785,-0.28589183,-0.28426576,-0.28426576,-0.28834617,-0.29239595,-0.29564804,-0.29727405,-0.29890013,-0.30135453,-0.30377823,-0.30215222,-0.29810244,-0.29322433,-0.29402196,-0.3005262,-0.3103131,-0.3159889,-0.3159889,-0.3127368,-0.30706102,-0.30298054,-0.30135453,-0.30135453,-0.3005262,-0.2997285,-0.29564804,-0.29322433,-0.29402196,-0.29810244,-0.3005262,-0.2997285,-0.29647642,-0.2948504,-0.29647642,-0.30215222,-0.30377823,-0.2997285,-0.29402196,-0.28997225,-0.28914386,-0.29159826,-0.2948504,-0.29727405,-0.29810244,-0.29727405,-0.2948504,-0.29159826,-0.29159826,-0.29402196,-0.2948504,-0.29239595,-0.28914386,-0.28509414,-0.28346807,-0.28346807,-0.28101367,-0.2745095,-0.2639249,-0.25416863,-0.24603844,-0.24036264,-0.23790824,-0.23873657,-0.23711056,-0.22569758,-0.20376134,-0.17446196,-0.14924294,-0.13786066,-0.14031512,-0.15007132,-0.15657544,-0.16065598,-0.17041224,-0.18992472,-0.21514362,-0.24036264,-0.2631272,-0.28101367,-0.2948504,-0.30785865,-0.3159889,-0.3216954,-0.3241191,-0.32574517,-0.3241191,-0.3216954,-0.320867,-0.3200693,-0.3184433,-0.3135652,-0.30623263,-0.29647642,-0.28672016,-0.2590468,-0.19968092,-0.08907944,0.07766652,0.29319358,0.53556573,0.7535473,0.89344823,0.91946507,0.80803514,0.5616132,0.2305758,-0.12405467,-0.424995,-0.61284876,-0.674669,-0.64214826,-0.5681173,-0.49654084,-0.44367915,-0.40465415,-0.3761831,-0.35421622,-0.34037948,-0.33307767,-0.32819957,-0.3241191,-0.3184433,-0.3127368,-0.30948472,-0.30460662,-0.2997285,-0.28997225,-0.2793876,-0.27125746,-0.2615012,-0.25499701,-0.25091654,-0.24766451,-0.24686676,-0.24361473,-0.23790824,-0.23140407,-0.22652596,-0.22327387,-0.21594137,-0.20781112,-0.19805491,-0.18909633,-0.1850465,-0.17854244,-0.16795778,-0.1541518,-0.14194119,-0.13298261,-0.12485236,-0.11592448,-0.10371381,-0.088251114,-0.07199067,-0.053275883,-0.035389423,-0.015876949,0.0036662817,0.019098282,0.032935023,0.046771646,0.061406016,0.07604051,0.08904874,0.10125935,0.114267826,0.12727606,0.13948667,0.14761686,0.15004063,0.14841461,0.14599085,0.1411128,0.12810445,0.10776365,0.08091855,0.050023675,0.013422489,-0.026430905,-0.06953633,-0.11264175,-0.15252572,-0.18667257,-0.21756738,-0.24686676,-0.27288347,-0.29647642,-0.31681722,-0.33387536,-0.34528828,-0.35259014,-0.3558423,-0.35829663,-0.3607204,-0.36317474,-0.3648008,-0.36317474,-0.36154872,-0.3607204,-0.35667062,-0.35016644,-0.34120786,-0.33307767,-0.32819957,-0.3265735,-0.32737124,-0.3265735,-0.32494748,-0.3241191,-0.320867,-0.3176149,-0.3159889,-0.3135652,-0.31436288,-0.3151912,-0.31681722,-0.3176149,-0.3176149,-0.3159889,-0.3127368,-0.31193912,-0.31436288,-0.3184433,-0.32574517,-0.33307767,-0.33224934,-0.32899725,-0.32574517,-0.32494748,-0.32737124,-0.33387536,-0.33795583,-0.34037948,-0.34037948,-0.33795583,-0.33387536,-0.3314516,-0.3314516,-0.33550137,-0.33875346,-0.34037948,-0.34037948,-0.33795583,-0.33470368,-0.3314516,-0.3265735,-0.3241191,-0.32332146,-0.32574517,-0.32737124,-0.32737124,-0.32494748,-0.3216954,-0.320867,-0.32249302,-0.32332146,-0.3241191,-0.32494748,-0.32249302,-0.3184433,-0.3127368,-0.3086871,-0.30785865,-0.3127368,-0.3184433,-0.32249302,-0.320867,-0.3151912,-0.30623263,-0.29564804,-0.28589183,-0.27613556,-0.2688337,-0.2615012,-0.25499701,-0.2501189,-0.24278641,-0.23465616,-0.22652596,-0.2143153,-0.20538741,-0.20050925,-0.19968092,-0.20050925,-0.20050925,-0.20050925,-0.20618504,-0.22081947,-0.24441242,-0.2688337,-0.28751785,-0.3005262,-0.3111108,-0.3216954,-0.32899725,-0.33224934,-0.3314516,-0.32982558,-0.32982558,-0.33062327,-0.3314516,-0.33062327,-0.32737124,-0.32332146,-0.31436288,-0.30215222,-0.28184205,-0.24278641,-0.17446196,-0.054901958,0.11589372,0.33062327,0.5534829,0.72670245,0.8129132,0.7868966,0.6348157,0.37452638,0.054073572,-0.2663793,-0.5128319,-0.63969386,-0.65353054,-0.5990428,-0.52421427,-0.46076792,-0.4152081,-0.38268727,-0.3607204,-0.34771204,-0.34037948,-0.33632976,-0.3314516,-0.3265735,-0.3200693,-0.3127368,-0.30623263,-0.2997285,-0.2948504,-0.28834617,-0.28263974,-0.27776158,-0.2745095,-0.27288347,-0.27125746,-0.2663793,-0.2582491,-0.25091654,-0.24441242,-0.23790824,-0.23385847,-0.22815198,-0.22164786,-0.21514362,-0.20781112,-0.20050925,-0.19237912,-0.18421823,-0.17446196,-0.16633171,-0.15657544,-0.14436483,-0.13055885,-0.11834812,-0.105339885,-0.090705514,-0.07199067,-0.050023735,-0.028885245,-0.01017046,0.006090045,0.023178697,0.04269123,0.06303215,0.080090165,0.09475529,0.106137514,0.11589372,0.12402403,0.13378024,0.14436483,0.15329278,0.1589992,0.15737307,0.149243,0.13540626,0.11589372,0.09230089,0.05978,0.023976445,-0.0150485635,-0.054901958,-0.09475529,-0.13543701,-0.1720382,-0.20455903,-0.23140407,-0.25499701,-0.27858996,-0.29810244,-0.31436288,-0.32819957,-0.33795583,-0.34528828,-0.34933805,-0.35016644,-0.34933805,-0.34933805,-0.34933805,-0.34771204,-0.34283394,-0.33550137,-0.32982558,-0.32574517,-0.32332146,-0.319241,-0.3135652,-0.3086871,-0.3086871,-0.3086871,-0.30623263,-0.30215222,-0.29564804,-0.29159826,-0.29076993,-0.29239595,-0.29239595,-0.29159826,-0.29076993,-0.28914386,-0.28997225,-0.29159826,-0.2948504,-0.29727405,-0.29727405,-0.29402196,-0.29159826,-0.29076993,-0.2948504,-0.29890013,-0.30135453,-0.30135453,-0.3005262,-0.30135453,-0.3054043,-0.3086871,-0.31193912,-0.3127368,-0.3135652,-0.3103131,-0.3054043,-0.2997285,-0.29647642,-0.29890013,-0.30460662,-0.3086871,-0.30948472,-0.30948472,-0.30948472,-0.31193912,-0.3111108,-0.30706102,-0.3005262,-0.2948504,-0.29159826,-0.29076993,-0.29239595,-0.2948504,-0.29810244,-0.2997285,-0.29810244,-0.29322433,-0.28914386,-0.28751785,-0.28834617,-0.28914386,-0.28346807,-0.27288347,-0.2606728,-0.2501189,-0.24198866,-0.23711056,-0.23385847,-0.22977805,-0.22652596,-0.22244549,-0.21756738,-0.20943719,-0.19968092,-0.18747026,-0.17854244,-0.17446196,-0.17529029,-0.17854244,-0.18259215,-0.19075304,-0.20213532,-0.2167697,-0.23385847,-0.24849284,-0.2615012,-0.27613556,-0.29239595,-0.30706102,-0.3159889,-0.3184433,-0.3159889,-0.3111108,-0.30706102,-0.30377823,-0.30135453,-0.2997285,-0.30215222,-0.3054043,-0.30460662,-0.29564804,-0.2566231,-0.18096614,-0.058982313,0.11101568,0.31924105,0.54697883,0.74624574,0.8723097,0.89507437,0.7852707,0.5510285,0.23462546,-0.10696596,-0.39732164,-0.5779042,-0.6372701,-0.6095967,-0.54292905,-0.47377628,-0.4200862,-0.38268727,-0.3574683,-0.34445995,-0.34120786,-0.34200555,-0.33958185,-0.33307767,-0.32574517,-0.3176149,-0.3111108,-0.30623263,-0.30460662,-0.30298054,-0.29890013,-0.29076993,-0.27858996,-0.26800537,-0.26229888,-0.2590468,-0.2557947,-0.251745,-0.24766451,-0.24441242,-0.23953432,-0.23303008,-0.22569758,-0.21756738,-0.21189159,-0.20701349,-0.19805491,-0.1858443,-0.17366427,-0.16228199,-0.1541518,-0.14681923,-0.13706297,-0.123226345,-0.1093896,-0.09233159,-0.0752427,-0.057356298,-0.03946978,-0.021552682,-0.0012425184,0.021552682,0.044317245,0.06382978,0.07929242,0.09067476,0.1020571,0.114267826,0.12727606,0.13865829,0.149243,0.15820158,0.16225135,0.16145372,0.15329278,0.13948667,0.120771885,0.09800732,0.06953621,0.036187172,-0.00041419268,-0.041095853,-0.08094925,-0.12160027,-0.16065598,-0.19725722,-0.22977805,-0.25742078,-0.28101367,-0.30298054,-0.3200693,-0.33307767,-0.34200555,-0.34771204,-0.3517925,-0.35421622,-0.35504454,-0.35341853,-0.34933805,-0.34528828,-0.34200555,-0.34037948,-0.33712745,-0.33387536,-0.33062327,-0.32574517,-0.32249302,-0.3200693,-0.3184433,-0.3176149,-0.31436288,-0.3111108,-0.30706102,-0.30706102,-0.30948472,-0.3103131,-0.30785865,-0.2997285,-0.29159826,-0.28914386,-0.29159826,-0.29564804,-0.29810244,-0.29890013,-0.2997285,-0.3005262,-0.3005262,-0.29890013,-0.29890013,-0.30135453,-0.3054043,-0.30948472,-0.30948472,-0.30623263,-0.30215222,-0.29890013,-0.29810244,-0.29810244,-0.3005262,-0.30460662,-0.30948472,-0.31193912,-0.3103131,-0.30706102,-0.30706102,-0.30706102,-0.3086871,-0.3086871,-0.3086871,-0.3086871,-0.30785865,-0.3054043,-0.2997285,-0.29564804,-0.2948504,-0.29564804,-0.29727405,-0.29647642,-0.29564804,-0.2948504,-0.29322433,-0.29076993,-0.28834617,-0.28751785,-0.28914386,-0.29159826,-0.29159826,-0.28834617,-0.28426576,-0.28263974,-0.28346807,-0.28589183,-0.28589183,-0.28426576,-0.28346807,-0.28426576,-0.28589183,-0.28509414,-0.28426576,-0.28346807,-0.28346807,-0.28346807,-0.28021604,-0.27533787,-0.2720858,-0.27125746,-0.27288347,-0.2737118,-0.2737118,-0.2696314,-0.2615012,-0.2501189,-0.23953432,-0.23060638,-0.22489995,-0.22081947,-0.21756738,-0.21189159,-0.20293301,-0.19155067,-0.17691636,-0.16145366,-0.14924294,-0.14519322,-0.14924294,-0.15332341,-0.15740383,-0.15982759,-0.16633171,-0.18096614,-0.20293301,-0.22652596,-0.24766451,-0.2663793,-0.28184205,-0.29564804,-0.30460662,-0.30785865,-0.30785865,-0.3086871,-0.3103131,-0.3111108,-0.3103131,-0.30948472,-0.30785865,-0.3086871,-0.3111108,-0.30706102,-0.29727405,-0.2663793,-0.19805491,-0.08420128,0.084999084,0.2956481,0.52826405,0.73891294,0.88123775,0.9259691,0.8373345,0.6152725,0.29890013,-0.05085212,-0.35667062,-0.5575634,-0.6413199,-0.6315636,-0.57462144,-0.50470173,-0.44288146,-0.39815003,-0.36967897,-0.3558423,-0.35096413,-0.35016644,-0.34854043,-0.34445995,-0.33712745,-0.32899725,-0.3216954,-0.31681722,-0.31193912,-0.30460662,-0.29564804,-0.28672016,-0.28101367,-0.27858996,-0.27696395,-0.2720858,-0.26475328,-0.2590468,-0.2557947,-0.253371,-0.24929053,-0.24198866,-0.23303008,-0.22244549,-0.2135176,-0.20538741,-0.19888324,-0.19317675,-0.18667257,-0.17854244,-0.16633171,-0.1541518,-0.14273888,-0.13218492,-0.12080264,-0.105339885,-0.08582735,-0.063860536,-0.04189354,-0.023178756,-0.0061207414,0.009342074,0.02560246,0.04269123,0.05978,0.076838136,0.08987713,0.1020571,0.114267826,0.12565005,0.13703239,0.14353657,0.1467886,0.14761686,0.14761686,0.14436483,0.13298261,0.11264169,0.082544565,0.047569394,0.015048623,-0.019129038,-0.053275883,-0.08987707,-0.1273067,-0.1647057,-0.19968092,-0.23223245,-0.26229888,-0.28914386,-0.30948472,-0.32737124,-0.34037948,-0.34691435,-0.34933805,-0.34608603,-0.34283394,-0.34363163,-0.34691435,-0.35016644,-0.34854043,-0.34363163,-0.33795583,-0.33307767,-0.32982558,-0.3265735,-0.3241191,-0.32249302,-0.319241,-0.31436288,-0.30785865,-0.30135453,-0.2997285,-0.2997285,-0.30215222,-0.30215222,-0.30215222,-0.3005262,-0.2997285,-0.29890013,-0.29727405,-0.29647642,-0.29890013,-0.30215222,-0.30298054,-0.30215222,-0.30215222,-0.30298054,-0.30623263,-0.31193912,-0.31436288,-0.31436288,-0.3151912,-0.3159889,-0.31681722,-0.3159889,-0.31681722,-0.319241,-0.32249302,-0.32494748,-0.32332146,-0.320867,-0.3200693,-0.3200693,-0.320867,-0.320867,-0.320867,-0.3216954,-0.3241191,-0.32819957,-0.32819957,-0.3265735,-0.32494748,-0.3241191,-0.32249302,-0.319241,-0.3159889,-0.31436288,-0.31436288,-0.3176149,-0.3184433,-0.3184433,-0.31681722,-0.3151912,-0.31436288,-0.3127368,-0.3135652,-0.31681722,-0.3200693,-0.320867,-0.31681722,-0.3111108,-0.30706102,-0.30623263,-0.30785865,-0.3103131,-0.31193912,-0.31436288,-0.3151912,-0.3159889,-0.3151912,-0.3159889,-0.3151912,-0.3127368,-0.30948472,-0.3054043,-0.30298054,-0.3054043,-0.3086871,-0.3111108,-0.30948472,-0.30623263,-0.3054043,-0.30623263,-0.30785865,-0.30298054,-0.29159826,-0.27696395,-0.26475328,-0.25742078,-0.25742078,-0.2615012,-0.2639249,-0.2606728,-0.24524075,-0.21919346,-0.19237912,-0.17446196,-0.17283589,-0.18342054,-0.19400507,-0.19888324,-0.20293301,-0.2135176,-0.23223245,-0.2557947,-0.2793876,-0.29810244,-0.31436288,-0.32982558,-0.34200555,-0.35096413,-0.35667062,-0.3607204,-0.36397243,-0.3623464,-0.3574683,-0.35341853,-0.3517925,-0.35504454,-0.35909432,-0.3574683,-0.34771204,-0.320867,-0.2639249,-0.16307962,-0.009372771,0.19234848,0.43309462,0.66571057,0.8348801,0.90157866,0.83162796,0.6152725,0.2956481,-0.064658165,-0.39164585,-0.61530316,-0.7120987,-0.70639217,-0.64457196,-0.5738238,-0.516084,-0.4721502,-0.438801,-0.4152081,-0.40302813,-0.40057373,-0.40140206,-0.40140206,-0.39406955,-0.38431334,-0.37455708,-0.3664269,-0.3607204,-0.3558423,-0.35259014,-0.34854043,-0.34283394,-0.33712745,-0.32819957,-0.3200693,-0.3151912,-0.3103131,-0.30623263,-0.30135453,-0.29647642,-0.29076993,-0.28672016,-0.28346807,-0.27858996,-0.27045977,-0.26229888,-0.25091654,-0.24036264,-0.22815198,-0.21919346,-0.21189159,-0.20455903,-0.19563115,-0.18016851,-0.16145366,-0.14356714,-0.12810439,-0.1142984,-0.09395754,-0.07199067,-0.04839772,-0.027259171,-0.0126248,0.0028378963,0.016674638,0.030480623,0.043519616,0.054901958,0.06708193,0.07766652,0.08337295,0.084999084,0.0841707,0.084999084,0.085796714,0.08091855,0.06953621,0.046771646,0.015846252,-0.019926667,-0.058153987,-0.09720969,-0.13543701,-0.17366427,-0.2135176,-0.253371,-0.29076993,-0.3216954,-0.34363163,-0.35829663,-0.37047666,-0.38268727,-0.39489794,-0.40382582,-0.4095323,-0.41115838,-0.41115838,-0.411956,-0.411956,-0.41032994,-0.40790623,-0.4021998,-0.39652395,-0.38919145,-0.38348496,-0.38106126,-0.37698078,-0.37210268,-0.3672245,-0.36154872,-0.3574683,-0.35504454,-0.3558423,-0.35909432,-0.3623464,-0.36317474,-0.36154872,-0.3574683,-0.35341853,-0.35259014,-0.35421622,-0.35667062,-0.3574683,-0.3558423,-0.3558423,-0.3558423,-0.3599227,-0.36397243,-0.3672245,-0.372931,-0.37698078,-0.3778091,-0.3761831,-0.371305,-0.3672245,-0.3672245,-0.37047666,-0.372931,-0.372931,-0.371305,-0.371305,-0.371305,-0.372931,-0.37047666,-0.3672245,-0.3655985,-0.3648008,-0.3664269,-0.3680529,-0.3680529,-0.3672245,-0.3664269,-0.3664269,-0.3655985,-0.3655985,-0.3655985,-0.3655985,-0.36317474,-0.35829663,-0.35259014,-0.35016644,-0.3517925,-0.35667062,-0.35909432,-0.35909432,-0.35829663,-0.35829663,-0.35909432,-0.3574683,-0.3558423,-0.35421622,-0.35421622,-0.35259014,-0.34771204,-0.34120786,-0.33550137,-0.33712745,-0.34200555,-0.34771204,-0.34854043,-0.34445995,-0.33958185,-0.33550137,-0.3314516,-0.32819957,-0.32332146,-0.31681722,-0.3054043,-0.29322433,-0.28263974,-0.27696395,-0.27696395,-0.2793876,-0.27533787,-0.2615012,-0.23953432,-0.21919346,-0.20701349,-0.20538741,-0.20943719,-0.2135176,-0.21756738,-0.22489995,-0.23953432,-0.25987512,-0.28184205,-0.30298054,-0.320867,-0.33712745,-0.3517925,-0.36317474,-0.3688506,-0.37210268,-0.372931,-0.371305,-0.3688506,-0.36397243,-0.35909432,-0.35504454,-0.35667062,-0.35667062,-0.3517925,-0.33875346,-0.30460662,-0.23953432,-0.12893277,0.032935023,0.24358404,0.48353255,0.6966052,0.8292042,0.8454647,0.7242787,0.47377622,0.14599085,-0.19968092,-0.48761296,-0.6632868,-0.7177745,-0.6844253,-0.61530316,-0.54535276,-0.49003667,-0.44693124,-0.4176625,-0.40140206,-0.39569557,-0.39489794,-0.39244348,-0.38919145,-0.38348496,-0.3778091,-0.3737287,-0.3672245,-0.36317474,-0.3574683,-0.34933805,-0.34120786,-0.33387536,-0.32982558,-0.32737124,-0.32574517,-0.320867,-0.31193912,-0.3054043,-0.29810244,-0.29239595,-0.28751785,-0.28021604,-0.2720858,-0.2655509,-0.2590468,-0.25416863,-0.24686676,-0.23873657,-0.23060638,-0.22164786,-0.21268928,-0.19888324,-0.18259215,-0.1671601,-0.15332341,-0.13948673,-0.123226345,-0.102885485,-0.081746936,-0.060608387,-0.042721927,-0.02480483,-0.0077466965,0.008544326,0.023976445,0.038610816,0.05164981,0.062203765,0.06953621,0.076838136,0.084999084,0.09230089,0.097178936,0.09475529,0.084999084,0.06953621,0.050821424,0.02480483,-0.0077466965,-0.04760009,-0.090705514,-0.13298261,-0.17366427,-0.21268928,-0.24849284,-0.28101367,-0.30948472,-0.33470368,-0.35829663,-0.38023287,-0.39732164,-0.40790623,-0.4127844,-0.4160365,-0.4200862,-0.42416668,-0.42416668,-0.4200862,-0.4160365,-0.41032994,-0.40628016,-0.40140206,-0.39815003,-0.39569557,-0.39489794,-0.39489794,-0.39406955,-0.39081746,-0.38431334,-0.37698078,-0.36967897,-0.36317474,-0.3623464,-0.36397243,-0.3664269,-0.3655985,-0.36397243,-0.36317474,-0.36317474,-0.3655985,-0.3688506,-0.36967897,-0.37047666,-0.3688506,-0.3680529,-0.3672245,-0.36397243,-0.36397243,-0.3655985,-0.3672245,-0.36967897,-0.3688506,-0.3680529,-0.3688506,-0.371305,-0.3737287,-0.37210268,-0.36967897,-0.3688506,-0.371305,-0.37455708,-0.37535477,-0.372931,-0.36967897,-0.3672245,-0.3655985,-0.3655985,-0.3664269,-0.3672245,-0.3680529,-0.3672245,-0.36397243,-0.36154872,-0.3599227,-0.35909432,-0.35829663,-0.3574683,-0.35667062,-0.35667062,-0.35667062,-0.35421622,-0.34854043,-0.34445995,-0.34363163,-0.34528828,-0.34691435,-0.34528828,-0.34283394,-0.34037948,-0.34037948,-0.33958185,-0.33795583,-0.33550137,-0.33387536,-0.33387536,-0.32982558,-0.32494748,-0.3200693,-0.3176149,-0.3184433,-0.3176149,-0.31193912,-0.30460662,-0.29564804,-0.28751785,-0.28021604,-0.27533787,-0.2737118,-0.2720858,-0.2639249,-0.24849284,-0.22732365,-0.20943719,-0.20213532,-0.20293301,-0.20618504,-0.20701349,-0.2086395,-0.21839571,-0.23628217,-0.2582491,-0.27776158,-0.29402196,-0.30948472,-0.32574517,-0.34200555,-0.3517925,-0.35421622,-0.35259014,-0.35016644,-0.35016644,-0.35016644,-0.35016644,-0.34933805,-0.35016644,-0.3517925,-0.34608603,-0.33712745,-0.31681722,-0.2737118,-0.19400507,-0.058982313,0.12727606,0.35663998,0.5876299,0.76413214,0.85034275,0.8178221,0.6510761,0.37372875,0.0394392,-0.28751785,-0.5331421,-0.66086304,-0.67874944,-0.6299376,-0.5608155,-0.49654084,-0.44775957,-0.4152081,-0.39406955,-0.38348496,-0.38106126,-0.37943518,-0.3761831,-0.37047666,-0.36154872,-0.3517925,-0.34363163,-0.33712745,-0.33224934,-0.3265735,-0.32249302,-0.319241,-0.3151912,-0.3086871,-0.2997285,-0.28997225,-0.28263974,-0.2793876,-0.27696395,-0.2720858,-0.2655509,-0.2582491,-0.25254261,-0.24849284,-0.24198866,-0.23628217,-0.22894973,-0.22164786,-0.21268928,-0.19725722,-0.18096614,-0.16390806,-0.1516974,-0.14273888,-0.13298261,-0.12160027,-0.106137514,-0.087453425,-0.06873852,-0.046771646,-0.025633216,-0.0069183707,0.009342074,0.023178697,0.0369848,0.05164981,0.06870794,0.084999084,0.099633336,0.11181331,0.118317485,0.123226404,0.1248523,0.1248523,0.12239802,0.114267826,0.09880507,0.07441437,0.044317245,0.008544326,-0.029682934,-0.07116228,-0.11509609,-0.15577775,-0.19155067,-0.22407156,-0.25416863,-0.28426576,-0.3135652,-0.33795583,-0.3574683,-0.37210268,-0.38348496,-0.39001977,-0.39406955,-0.39652395,-0.39732164,-0.39977604,-0.40057373,-0.39815003,-0.39327192,-0.38593936,-0.37943518,-0.37455708,-0.37047666,-0.3680529,-0.3664269,-0.3648008,-0.3623464,-0.35909432,-0.35504454,-0.3517925,-0.35259014,-0.35259014,-0.35016644,-0.34445995,-0.33712745,-0.33387536,-0.33470368,-0.33712745,-0.33958185,-0.33958185,-0.33958185,-0.34037948,-0.34120786,-0.34200555,-0.34363163,-0.34608603,-0.35016644,-0.35421622,-0.35341853,-0.3517925,-0.35016644,-0.34933805,-0.35016644,-0.35341853,-0.35667062,-0.3607204,-0.36317474,-0.36317474,-0.3623464,-0.36397243,-0.3672245,-0.37210268,-0.37535477,-0.372931,-0.3672245,-0.36154872,-0.35909432,-0.36154872,-0.36397243,-0.3655985,-0.36397243,-0.36154872,-0.35909432,-0.35829663,-0.35909432,-0.35909432,-0.3574683,-0.35829663,-0.3607204,-0.36317474,-0.3664269,-0.3664269,-0.3623464,-0.3574683,-0.35667062,-0.3574683,-0.35909432,-0.3599227,-0.3607204,-0.3607204,-0.36154872,-0.36154872,-0.3599227,-0.35829663,-0.35667062,-0.3599227,-0.3655985,-0.3688506,-0.3680529,-0.36317474,-0.3558423,-0.34691435,-0.33795583,-0.32982558,-0.3216954,-0.3159889,-0.3111108,-0.3054043,-0.3005262,-0.29402196,-0.28672016,-0.27613556,-0.2639249,-0.253371,-0.25091654,-0.25499701,-0.2590468,-0.2590468,-0.2590468,-0.2655509,-0.28263974,-0.30706102,-0.32899725,-0.34771204,-0.36397243,-0.38106126,-0.39894772,-0.4152081,-0.424995,-0.4282471,-0.42662108,-0.42416668,-0.42171228,-0.4200862,-0.4209146,-0.423369,-0.4282471,-0.43149918,-0.4282471,-0.4144104,-0.37535477,-0.2997285,-0.17691636,-0.0061207414,0.20293307,0.42904472,0.6250595,0.7551733,0.78609884,0.6868491,0.4599396,0.14353657,-0.20293301,-0.50062126,-0.6909295,-0.76333433,-0.74382186,-0.6811732,-0.61284876,-0.55836105,-0.52421427,-0.50632775,-0.49899524,-0.49491477,-0.48923898,-0.4819064,-0.4746046,-0.4697265,-0.4664744,-0.46322232,-0.4599396,-0.45506144,-0.44938564,-0.44288146,-0.43717498,-0.4339229,-0.43149918,-0.4282471,-0.42171228,-0.41358203,-0.40465415,-0.39894772,-0.39489794,-0.39244348,-0.38919145,-0.38593936,-0.3818589,-0.3761831,-0.37047666,-0.36317474,-0.3558423,-0.34691435,-0.33712745,-0.32574517,-0.3159889,-0.30706102,-0.29564804,-0.28101367,-0.2631272,-0.24441242,-0.22732365,-0.20943719,-0.18992472,-0.16878617,-0.14761686,-0.12893277,-0.11184406,-0.09638131,-0.081746936,-0.067112565,-0.055730224,-0.045974016,-0.034561038,-0.024007142,-0.0142508745,-0.008544385,-0.008544385,-0.013422489,-0.021552682,-0.03376335,-0.05164981,-0.07686877,-0.10696596,-0.14194119,-0.18096614,-0.22327387,-0.2663793,-0.3054043,-0.34120786,-0.37210268,-0.40302813,-0.43149918,-0.45668745,-0.4778567,-0.49328876,-0.50795376,-0.5185077,-0.5233859,-0.5250119,-0.52421427,-0.52258813,-0.5209621,-0.51771003,-0.51445794,-0.51200354,-0.5128319,-0.5128319,-0.5087515,-0.50144964,-0.49491477,-0.49166274,-0.49003667,-0.48761296,-0.48436087,-0.4802804,-0.4794827,-0.47865438,-0.4770283,-0.47623062,-0.4746046,-0.47623062,-0.47865438,-0.4778567,-0.4770283,-0.47623062,-0.47865438,-0.4819064,-0.48436087,-0.4835325,-0.48110878,-0.48110878,-0.48273486,-0.48515856,-0.48761296,-0.48923898,-0.49328876,-0.49654084,-0.49816686,-0.49491477,-0.49003667,-0.4859869,-0.4835325,-0.48515856,-0.48678458,-0.48923898,-0.49166274,-0.49249107,-0.49249107,-0.49166274,-0.49166274,-0.49491477,-0.49899524,-0.49982357,-0.49654084,-0.490865,-0.48761296,-0.4859869,-0.4859869,-0.4859869,-0.48436087,-0.48515856,-0.4859869,-0.48761296,-0.48841065,-0.48761296,-0.48761296,-0.48841065,-0.48761296,-0.48678458,-0.48273486,-0.4794827,-0.4778567,-0.4770283,-0.4770283,-0.4778567,-0.47865438,-0.47865438,-0.4778567,-0.47623062,-0.4754023,-0.4770283,-0.4778567,-0.47865438,-0.4794827,-0.47623062,-0.4721502,-0.4648484,-0.45343536,-0.44042706,-0.43149918,-0.4257927,-0.4209146,-0.4152081,-0.40790623,-0.40057373,-0.39652395,-0.39164585,-0.38514167,-0.3737287,-0.36154872,-0.35421622,-0.35341853,-0.3558423,-0.3558423,-0.35504454,-0.3599227,-0.372931,-0.39406955,-0.4176625,-0.43800336,-0.45588982,-0.4721502,-0.48678458,-0.50062126,-0.5112059,-0.5193361,-0.5209621,-0.51771003,-0.51200354,-0.5054994,-0.50387335,-0.5054994,-0.50795376,-0.5112059,-0.50632775,-0.49491477,-0.46402,-0.39815003,-0.28751785,-0.12568074,0.07929242,0.3135345,0.5323137,0.69010127,0.74949765,0.6746689,0.4599396,0.14273882,-0.21514362,-0.53722256,-0.75357807,-0.8446671,-0.8340825,-0.77066684,-0.69909036,-0.6413199,-0.5998405,-0.5705718,-0.55023086,-0.53722256,-0.5315161,-0.5290923,-0.5258403,-0.5201338,-0.5128319,-0.50632775,-0.49982357,-0.49249107,-0.48436087,-0.47865438,-0.47623062,-0.4729786,-0.46564603,-0.4542638,-0.44288146,-0.43475127,-0.43229687,-0.43149918,-0.42741877,-0.4209146,-0.4152081,-0.41032994,-0.40465415,-0.39732164,-0.38919145,-0.38348496,-0.3761831,-0.3648008,-0.34854043,-0.33307767,-0.3200693,-0.30948472,-0.2997285,-0.28589183,-0.27045977,-0.25499701,-0.24036264,-0.22569758,-0.2086395,-0.19075304,-0.1720382,-0.14924294,-0.123226345,-0.09800738,-0.07607114,-0.06223446,-0.05085212,-0.040267467,-0.028885245,-0.018300593,-0.0126248,-0.01017046,-0.009372771,-0.01017046,-0.011796415,-0.019129038,-0.03376335,-0.055730224,-0.08337301,-0.11672217,-0.15494949,-0.19480282,-0.23465616,-0.2720858,-0.30948472,-0.34771204,-0.38348496,-0.4176625,-0.44450754,-0.46159625,-0.47377628,-0.4819064,-0.48923898,-0.49654084,-0.50224733,-0.50470173,-0.50307566,-0.49816686,-0.49328876,-0.48841065,-0.48761296,-0.48761296,-0.48436087,-0.4770283,-0.4681005,-0.4599396,-0.45506144,-0.45343536,-0.45180935,-0.44855726,-0.44530523,-0.44288146,-0.44288146,-0.44288146,-0.44288146,-0.44205314,-0.438801,-0.43475127,-0.43229687,-0.43149918,-0.4339229,-0.4363773,-0.43717498,-0.43717498,-0.43717498,-0.43962944,-0.44205314,-0.44367915,-0.44205314,-0.44205314,-0.44288146,-0.44367915,-0.44530523,-0.44450754,-0.44288146,-0.44450754,-0.44693124,-0.44775957,-0.44693124,-0.44450754,-0.44367915,-0.44288146,-0.44205314,-0.44125545,-0.43800336,-0.4339229,-0.43067086,-0.42741877,-0.42416668,-0.42171228,-0.4209146,-0.4200862,-0.4200862,-0.4184602,-0.4176625,-0.4176625,-0.4176625,-0.4176625,-0.4144104,-0.40870392,-0.40382582,-0.39977604,-0.39732164,-0.39489794,-0.39569557,-0.39652395,-0.39652395,-0.39489794,-0.39164585,-0.38756537,-0.38593936,-0.38514167,-0.38593936,-0.38431334,-0.3786068,-0.37210268,-0.3648008,-0.35667062,-0.34933805,-0.34200555,-0.33632976,-0.32982558,-0.3241191,-0.31681722,-0.30948472,-0.30377823,-0.29810244,-0.29159826,-0.28101367,-0.2696314,-0.2582491,-0.2501189,-0.24766451,-0.24686676,-0.24849284,-0.25499701,-0.26800537,-0.28751785,-0.3103131,-0.33307767,-0.35341853,-0.371305,-0.38756537,-0.40302813,-0.4160365,-0.424995,-0.4257927,-0.4225406,-0.41683418,-0.41358203,-0.4176625,-0.423369,-0.42987317,-0.4339229,-0.42987317,-0.41928852,-0.39001977,-0.32819957,-0.22489995,-0.070364594,0.12810445,0.36151803,0.59088194,0.76088,0.8308302,0.7681817,0.55998707,0.24521005,-0.11592448,-0.45018333,-0.68605137,-0.7950575,-0.7950575,-0.73323727,-0.65761095,-0.5941647,-0.54697883,-0.5152557,-0.49491477,-0.4859869,-0.4859869,-0.48841065,-0.48678458,-0.4778567,-0.46564603,-0.45668745,-0.44938564,-0.44530523,-0.44042706,-0.43554896,-0.43149918,-0.42741877,-0.423369,-0.41683418,-0.4127844,-0.4095323,-0.40465415,-0.39815003,-0.38756537,-0.37943518,-0.37535477,-0.372931,-0.371305,-0.3664269,-0.35909432,-0.3517925,-0.34528828,-0.33795583,-0.32982558,-0.3216954,-0.3127368,-0.3005262,-0.28589183,-0.26800537,-0.25091654,-0.23548454,-0.22164786,-0.20943719,-0.19317675,-0.17608804,-0.1590299,-0.13948673,-0.11917657,-0.099633336,-0.08094925,-0.06548649,-0.053275883,-0.044348,-0.034561038,-0.02480483,-0.0150485635,-0.0061207414,0.00038349628,0.002009511,-0.003666222,-0.016674638,-0.03621775,-0.05978006,-0.08662504,-0.11917657,-0.15657544,-0.19642884,-0.23628217,-0.27613556,-0.3159889,-0.35504454,-0.38919145,-0.4176625,-0.4363773,-0.45343536,-0.46889812,-0.48273486,-0.49328876,-0.49654084,-0.49654084,-0.49491477,-0.49491477,-0.49574316,-0.49411708,-0.49249107,-0.49003667,-0.48678458,-0.48273486,-0.4770283,-0.4697265,-0.46402,-0.4599396,-0.45751584,-0.45506144,-0.45180935,-0.45018333,-0.44938564,-0.44855726,-0.44693124,-0.44450754,-0.44530523,-0.44775957,-0.44855726,-0.44613355,-0.44367915,-0.44288146,-0.44530523,-0.45018333,-0.45343536,-0.45343536,-0.45263773,-0.45263773,-0.4542638,-0.45668745,-0.46159625,-0.4664744,-0.4705242,-0.47135252,-0.4664744,-0.46239394,-0.46076792,-0.46159625,-0.46402,-0.46402,-0.46402,-0.46727204,-0.47135252,-0.4770283,-0.47865438,-0.4778567,-0.47865438,-0.4819064,-0.4859869,-0.48436087,-0.4794827,-0.4754023,-0.47377628,-0.47623062,-0.4802804,-0.48273486,-0.48436087,-0.48273486,-0.48110878,-0.4778567,-0.4770283,-0.4794827,-0.48110878,-0.4802804,-0.4754023,-0.4729786,-0.4729786,-0.4754023,-0.47865438,-0.4778567,-0.4754023,-0.47377628,-0.4729786,-0.4729786,-0.4721502,-0.4705242,-0.46564603,-0.4591419,-0.45101166,-0.44205314,-0.43554896,-0.43067086,-0.424995,-0.4200862,-0.4144104,-0.41032994,-0.40628016,-0.39977604,-0.39164585,-0.38348496,-0.37943518,-0.3778091,-0.3761831,-0.37698078,-0.3818589,-0.39732164,-0.42171228,-0.44938564,-0.47377628,-0.49003667,-0.5054994,-0.5185077,-0.5274663,-0.53234446,-0.5315161,-0.5290923,-0.5290923,-0.52826405,-0.5274663,-0.52258813,-0.5193361,-0.516084,-0.5112059,-0.50062126,-0.4721502,-0.411956,-0.30785865,-0.14924294,0.058153987,0.2956481,0.5087515,0.6469958,0.67546654,0.57216716,0.3395512,0.017472267,-0.33387536,-0.6388961,-0.8340825,-0.9007808,-0.8731381,-0.80481374,-0.7364893,-0.6827992,-0.6405222,-0.6095967,-0.59008425,-0.580328,-0.5779042,-0.5721978,-0.5664913,-0.55998707,-0.555109,-0.55023086,-0.5437267,-0.53802025,-0.5331421,-0.5290923,-0.52421427,-0.5168817,-0.5103775,-0.50795376,-0.50632775,-0.50712544,-0.50307566,-0.49654084,-0.48841065,-0.48110878,-0.47623062,-0.4705242,-0.4648484,-0.45831352,-0.45101166,-0.44288146,-0.4331252,-0.4225406,-0.41115838,-0.40057373,-0.38919145,-0.3778091,-0.3672245,-0.3574683,-0.34771204,-0.33307767,-0.31436288,-0.29402196,-0.2745095,-0.25742078,-0.24198866,-0.22489995,-0.2086395,-0.19237912,-0.17691636,-0.16390806,-0.15007132,-0.13786066,-0.12973046,-0.1273067,-0.12647843,-0.12160027,-0.11592448,-0.11184406,-0.11509609,-0.12893277,-0.14844531,-0.17608804,-0.20618504,-0.23953432,-0.27696395,-0.3159889,-0.3574683,-0.39977604,-0.44042706,-0.4778567,-0.5095798,-0.5339705,-0.55268526,-0.56731963,-0.5779042,-0.5860345,-0.59496236,-0.60309255,-0.61122274,-0.61530316,-0.6144749,-0.61122274,-0.6095967,-0.60879904,-0.60879904,-0.60717297,-0.60309255,-0.59496236,-0.58683217,-0.5787019,-0.5713694,-0.5681173,-0.56731963,-0.56731963,-0.5656936,-0.55998707,-0.553483,-0.54860485,-0.54697883,-0.54943323,-0.55185694,-0.553483,-0.55105925,-0.54697883,-0.54210067,-0.53722256,-0.53722256,-0.54047465,-0.54535276,-0.55023086,-0.55023086,-0.55105925,-0.55185694,-0.553483,-0.555109,-0.5543113,-0.55268526,-0.553483,-0.5559374,-0.5575634,-0.555109,-0.55105925,-0.54618114,-0.54455507,-0.54780716,-0.55023086,-0.553483,-0.5559374,-0.5575634,-0.55998707,-0.55998707,-0.55836105,-0.5575634,-0.5543113,-0.55185694,-0.54780716,-0.54618114,-0.54697883,-0.54860485,-0.55023086,-0.54860485,-0.54535276,-0.54292905,-0.53884864,-0.5339705,-0.5258403,-0.51771003,-0.5095798,-0.50307566,-0.49654084,-0.4859869,-0.4778567,-0.47377628,-0.47377628,-0.4746046,-0.46889812,-0.45751584,-0.44367915,-0.43149918,-0.42416668,-0.4209146,-0.42171228,-0.42662108,-0.43800336,-0.45506144,-0.4729786,-0.48841065,-0.50144964,-0.516084,-0.5307184,-0.54535276,-0.5559374,-0.5632392,-0.5640676,-0.5640676,-0.5616132,-0.55918944,-0.5575634,-0.55673504,-0.55673504,-0.55836105,-0.553483,-0.5437267,-0.51771003,-0.46159625,-0.3672245,-0.22327387,-0.03376335,0.19234848,0.41683412,0.58683217,0.6608323,0.61122286,0.4249643,0.13540626,-0.19888324,-0.516084,-0.7454479,-0.8576754,-0.8658056,-0.80969185,-0.7373177,-0.6738714,-0.6266855,-0.59496236,-0.5738238,-0.5616132,-0.5559374,-0.55185694,-0.54697883,-0.53884864,-0.52826405,-0.5168817,-0.5054994,-0.49328876,-0.48436087,-0.47865438,-0.4778567,-0.4778567,-0.4754023,-0.4681005,-0.4599396,-0.45018333,-0.44367915,-0.44042706,-0.438801,-0.43554896,-0.4282471,-0.41683418,-0.4021998,-0.38756537,-0.3778091,-0.37210268,-0.3672245,-0.3599227,-0.35016644,-0.33875346,-0.32819957,-0.3184433,-0.3086871,-0.2948504,-0.28101367,-0.2655509,-0.24766451,-0.22732365,-0.20538741,-0.18259215,-0.16390806,-0.14681923,-0.13055885,-0.11264175,-0.09558362,-0.08012086,-0.067910254,-0.057356298,-0.045974016,-0.035389423,-0.02805686,-0.02480483,-0.025633216,-0.025633216,-0.02805686,-0.035389423,-0.05164981,-0.0776971,-0.11021799,-0.14761686,-0.18667257,-0.22652596,-0.267177,-0.30460662,-0.34037948,-0.3737287,-0.40465415,-0.43229687,-0.4542638,-0.46889812,-0.47865438,-0.4859869,-0.49166274,-0.49574316,-0.50062126,-0.50307566,-0.50387335,-0.50144964,-0.49736923,-0.49411708,-0.49249107,-0.490865,-0.48678458,-0.4794827,-0.4705242,-0.46402,-0.46076792,-0.45831352,-0.45343536,-0.44855726,-0.44450754,-0.44288146,-0.44205314,-0.44125545,-0.43962944,-0.43475127,-0.42987317,-0.42416668,-0.41928852,-0.4176625,-0.4184602,-0.4209146,-0.42171228,-0.4209146,-0.4176625,-0.41358203,-0.41032994,-0.40870392,-0.40790623,-0.40790623,-0.4095323,-0.411956,-0.4144104,-0.41032994,-0.4070779,-0.40382582,-0.40302813,-0.4070779,-0.4095323,-0.40870392,-0.40545183,-0.4021998,-0.39977604,-0.39732164,-0.39652395,-0.39569557,-0.39732164,-0.39894772,-0.39732164,-0.39569557,-0.39406955,-0.39406955,-0.39327192,-0.38919145,-0.38348496,-0.3786068,-0.37698078,-0.37698078,-0.37535477,-0.37455708,-0.37535477,-0.3786068,-0.38023287,-0.3786068,-0.37455708,-0.36967897,-0.36967897,-0.37210268,-0.37455708,-0.3761831,-0.37455708,-0.3680529,-0.35667062,-0.34445995,-0.33470368,-0.32899725,-0.3265735,-0.32249302,-0.3135652,-0.30377823,-0.29727405,-0.29322433,-0.28914386,-0.28101367,-0.27045977,-0.26475328,-0.26475328,-0.2688337,-0.27125746,-0.2745095,-0.28184205,-0.2948504,-0.31436288,-0.33224934,-0.34854043,-0.3664269,-0.3867677,-0.40545183,-0.41928852,-0.424995,-0.424995,-0.424995,-0.42416668,-0.423369,-0.4209146,-0.4200862,-0.4200862,-0.42662108,-0.43229687,-0.42987317,-0.4176625,-0.38431334,-0.31681722,-0.20618504,-0.04189354,0.16795778,0.40624952,0.6266856,0.7795948,0.8292042,0.7470434,0.52826405,0.21268928,-0.1411128,-0.4591419,-0.6738714,-0.76575804,-0.75762784,-0.6942122,-0.61938363,-0.555109,-0.5103775,-0.48273486,-0.4681005,-0.46159625,-0.45831352,-0.45506144,-0.44938564,-0.44288146,-0.4363773,-0.43067086,-0.42662108,-0.423369,-0.41928852,-0.41358203,-0.40465415,-0.39569557,-0.3867677,-0.3786068,-0.372931,-0.3680529,-0.36317474,-0.35829663,-0.3517925,-0.34445995,-0.33958185,-0.33550137,-0.33307767,-0.32982558,-0.3241191,-0.31436288,-0.30298054,-0.29076993,-0.2793876,-0.2696314,-0.2615012,-0.25416863,-0.24278641,-0.22732365,-0.21106327,-0.19480282,-0.18096614,-0.16795778,-0.15252572,-0.13135654,-0.10696596,-0.08420128,-0.063860536,-0.045974016,-0.03130889,-0.019129038,-0.0069183707,0.0069184303,0.020724416,0.032106638,0.04023683,0.0418936,0.041065097,0.0394392,0.035358667,0.023976445,0.004463911,-0.022381067,-0.052478194,-0.08582735,-0.122428596,-0.16307962,-0.20455903,-0.24361473,-0.2793876,-0.31193912,-0.34445995,-0.37455708,-0.39732164,-0.41358203,-0.423369,-0.43229687,-0.44205314,-0.45180935,-0.45751584,-0.4591419,-0.45831352,-0.45506144,-0.45018333,-0.44367915,-0.43717498,-0.4331252,-0.42987317,-0.42741877,-0.423369,-0.41928852,-0.4152081,-0.41115838,-0.40790623,-0.40545183,-0.40465415,-0.40382582,-0.40057373,-0.39489794,-0.38919145,-0.38593936,-0.3867677,-0.38919145,-0.39081746,-0.39001977,-0.38919145,-0.39001977,-0.39001977,-0.39001977,-0.39001977,-0.39001977,-0.39244348,-0.39489794,-0.39652395,-0.39732164,-0.39732164,-0.39732164,-0.39732164,-0.39732164,-0.39815003,-0.39894772,-0.39977604,-0.39894772,-0.39652395,-0.39489794,-0.39406955,-0.39569557,-0.39652395,-0.39569557,-0.39489794,-0.39489794,-0.39732164,-0.39894772,-0.39815003,-0.39732164,-0.39569557,-0.39489794,-0.39244348,-0.38919145,-0.38514167,-0.38348496,-0.38514167,-0.38839376,-0.39001977,-0.39081746,-0.38919145,-0.3867677,-0.38348496,-0.3786068,-0.37455708,-0.37455708,-0.3778091,-0.3818589,-0.38268727,-0.38023287,-0.3778091,-0.37698078,-0.37698078,-0.3778091,-0.3786068,-0.3786068,-0.3778091,-0.37047666,-0.3574683,-0.34283394,-0.33062327,-0.32494748,-0.3216954,-0.3159889,-0.30623263,-0.29647642,-0.28834617,-0.28184205,-0.27288347,-0.2606728,-0.2501189,-0.24686676,-0.25091654,-0.2557947,-0.2590468,-0.2606728,-0.2663793,-0.2793876,-0.29647642,-0.3151912,-0.33387536,-0.35259014,-0.37210268,-0.38919145,-0.4021998,-0.40870392,-0.40870392,-0.40545183,-0.40302813,-0.40140206,-0.4021998,-0.40382582,-0.40140206,-0.39815003,-0.39569557,-0.39001977,-0.3818589,-0.35421622,-0.28997225,-0.17934006,-0.0142508745,0.19314611,0.43067086,0.6543282,0.81374156,0.8739358,0.79990494,0.58358,0.26555097,-0.09558362,-0.4225406,-0.6454003,-0.7397413,-0.7283591,-0.6632868,-0.5884582,-0.5274663,-0.4859869,-0.45588982,-0.43717498,-0.42741877,-0.4257927,-0.4257927,-0.424995,-0.41928852,-0.41115838,-0.40302813,-0.39569557,-0.38839376,-0.3818589,-0.37535477,-0.3688506,-0.3623464,-0.3558423,-0.34933805,-0.34445995,-0.34120786,-0.33795583,-0.33307767,-0.32574517,-0.31681722,-0.3103131,-0.3054043,-0.30298054,-0.30135453,-0.29564804,-0.28751785,-0.27533787,-0.2615012,-0.24929053,-0.23953432,-0.23140407,-0.22164786,-0.20943719,-0.19563115,-0.17934006,-0.16390806,-0.14681923,-0.1273067,-0.106137514,-0.08420128,-0.06628418,-0.050023735,-0.034561038,-0.016674638,0.002009511,0.019098282,0.032935023,0.044317245,0.054073572,0.061406016,0.06708193,0.07033384,0.07278836,0.07441437,0.07358599,0.064658165,0.04839778,0.023178697,-0.008544385,-0.045974016,-0.087453425,-0.12647843,-0.16390806,-0.19968092,-0.23465616,-0.2720858,-0.3086871,-0.33958185,-0.36317474,-0.38106126,-0.39569557,-0.4070779,-0.4152081,-0.4200862,-0.42171228,-0.423369,-0.42416668,-0.424995,-0.424995,-0.41928852,-0.411956,-0.40302813,-0.39406955,-0.38919145,-0.38839376,-0.39001977,-0.38919145,-0.3867677,-0.38106126,-0.37698078,-0.3737287,-0.371305,-0.36967897,-0.3680529,-0.3672245,-0.3688506,-0.371305,-0.3688506,-0.36397243,-0.35829663,-0.35909432,-0.36317474,-0.36967897,-0.3737287,-0.37455708,-0.3737287,-0.371305,-0.37047666,-0.37047666,-0.3737287,-0.3786068,-0.38023287,-0.3786068,-0.3737287,-0.37047666,-0.37047666,-0.37535477,-0.3778091,-0.3786068,-0.3778091,-0.3786068,-0.37943518,-0.37943518,-0.38023287,-0.37943518,-0.38106126,-0.3818589,-0.38023287,-0.37698078,-0.37210268,-0.37210268,-0.37455708,-0.37535477,-0.3761831,-0.3761831,-0.37698078,-0.3778091,-0.37698078,-0.3737287,-0.371305,-0.36967897,-0.36967897,-0.371305,-0.36967897,-0.3672245,-0.36397243,-0.3607204,-0.35909432,-0.3599227,-0.3623464,-0.36397243,-0.3648008,-0.3623464,-0.35909432,-0.3558423,-0.35341853,-0.34771204,-0.33712745,-0.3241191,-0.3127368,-0.30623263,-0.30215222,-0.29727405,-0.29159826,-0.28263974,-0.27288347,-0.2631272,-0.25091654,-0.23953432,-0.23465616,-0.23628217,-0.23953432,-0.24278641,-0.24441242,-0.251745,-0.26800537,-0.28751785,-0.30948472,-0.32819957,-0.34363163,-0.36154872,-0.38023287,-0.39327192,-0.39894772,-0.4021998,-0.39894772,-0.39406955,-0.38839376,-0.38348496,-0.38106126,-0.38348496,-0.38839376,-0.39244348,-0.38756537,-0.37698078,-0.35096413,-0.29727405,-0.20293301,-0.053275883,0.15249515,0.39732158,0.6364416,0.806409,0.86660326,0.789351,0.570541,0.2500882,-0.108591914,-0.43554896,-0.66086304,-0.75925386,-0.75195205,-0.6852536,-0.60634464,-0.54047465,-0.49328876,-0.46239394,-0.44288146,-0.43229687,-0.42741877,-0.424995,-0.4225406,-0.41683418,-0.40870392,-0.40057373,-0.39406955,-0.38839376,-0.38023287,-0.37047666,-0.35909432,-0.35096413,-0.34608603,-0.34283394,-0.34037948,-0.33712745,-0.33470368,-0.33224934,-0.32737124,-0.319241,-0.3111108,-0.30298054,-0.29810244,-0.29322433,-0.28672016,-0.27776158,-0.27045977,-0.26229888,-0.253371,-0.23873657,-0.22244549,-0.20701349,-0.19400507,-0.1850465,-0.17608804,-0.16390806,-0.15007132,-0.13381094,-0.11672217,-0.10046172,-0.08257532,-0.063860536,-0.042721927,-0.021552682,-0.0028685927,0.008544326,0.016674638,0.023976445,0.03130889,0.041065097,0.04839778,0.050023675,0.05164981,0.053275824,0.05244744,0.04514575,0.026430845,-0.0020401478,-0.038641512,-0.07607114,-0.11184406,-0.14844531,-0.18747026,-0.22894973,-0.27125746,-0.30948472,-0.34200555,-0.3664269,-0.38514167,-0.40302813,-0.41928852,-0.4339229,-0.44367915,-0.44855726,-0.44855726,-0.44613355,-0.44288146,-0.43800336,-0.43229687,-0.4282471,-0.424995,-0.42416668,-0.42416668,-0.4200862,-0.41683418,-0.4152081,-0.4160365,-0.41683418,-0.4152081,-0.40870392,-0.40140206,-0.39489794,-0.39001977,-0.3867677,-0.38593936,-0.38756537,-0.39001977,-0.39164585,-0.39081746,-0.38919145,-0.38839376,-0.39164585,-0.39164585,-0.39001977,-0.38756537,-0.38593936,-0.39001977,-0.39406955,-0.39815003,-0.39815003,-0.39569557,-0.39569557,-0.39894772,-0.40302813,-0.40465415,-0.40302813,-0.39815003,-0.39327192,-0.39081746,-0.39081746,-0.39406955,-0.39815003,-0.40140206,-0.4021998,-0.4021998,-0.40302813,-0.40465415,-0.40465415,-0.4021998,-0.39652395,-0.39164585,-0.38919145,-0.39001977,-0.39164585,-0.39244348,-0.39327192,-0.39569557,-0.39815003,-0.39894772,-0.39569557,-0.39081746,-0.3867677,-0.38431334,-0.38431334,-0.38431334,-0.38514167,-0.3867677,-0.38593936,-0.38106126,-0.37210268,-0.36154872,-0.35259014,-0.34363163,-0.33550137,-0.32737124,-0.320867,-0.3184433,-0.3184433,-0.3159889,-0.3111108,-0.30377823,-0.29647642,-0.28834617,-0.28101367,-0.2745095,-0.26800537,-0.2639249,-0.2655509,-0.27613556,-0.29159826,-0.3127368,-0.33470368,-0.35421622,-0.371305,-0.3867677,-0.39977604,-0.4070779,-0.4095323,-0.40628016,-0.39977604,-0.39569557,-0.39489794,-0.39569557,-0.39569557,-0.39489794,-0.39652395,-0.39406955,-0.3867677,-0.35909432,-0.29890013,-0.19805491,-0.04760009,0.14436483,0.36722457,0.58192337,0.7340348,0.78609884,0.71452224,0.51117516,0.21511292,-0.12080264,-0.4282471,-0.6364417,-0.7259047,-0.7120987,-0.6454003,-0.5738238,-0.51771003,-0.47865438,-0.4542638,-0.43962944,-0.4331252,-0.42904478,-0.4257927,-0.4184602,-0.40790623,-0.39815003,-0.38756537,-0.37943518,-0.3737287,-0.36967897,-0.3680529,-0.36317474,-0.35667062,-0.34608603,-0.33632976,-0.32982558,-0.3265735,-0.3241191,-0.3200693,-0.3151912,-0.3103131,-0.30706102,-0.30377823,-0.29890013,-0.29159826,-0.28184205,-0.2696314,-0.2582491,-0.24603844,-0.23548454,-0.22569758,-0.2143153,-0.20130694,-0.18667257,-0.17041224,-0.15494949,-0.14031512,-0.12485236,-0.108591914,-0.09233159,-0.0752427,-0.05410427,-0.032137334,-0.009372771,0.012594104,0.02805686,0.04023683,0.05164981,0.06545591,0.076838136,0.084999084,0.08987713,0.09150314,0.09475529,0.09392691,0.088250995,0.07441437,0.05164981,0.02560246,-0.003666222,-0.037843823,-0.07441443,-0.11592448,-0.15740383,-0.19888324,-0.23953432,-0.27613556,-0.3086871,-0.33470368,-0.35504454,-0.372931,-0.3867677,-0.39732164,-0.40465415,-0.4095323,-0.4152081,-0.41928852,-0.4176625,-0.41115838,-0.4021998,-0.39489794,-0.39244348,-0.39164585,-0.39001977,-0.38756537,-0.38593936,-0.38348496,-0.38023287,-0.3737287,-0.3664269,-0.3607204,-0.35667062,-0.3558423,-0.35421622,-0.35341853,-0.35016644,-0.34608603,-0.34037948,-0.33387536,-0.32982558,-0.33062327,-0.33307767,-0.33470368,-0.33387536,-0.3314516,-0.3314516,-0.33224934,-0.33307767,-0.33224934,-0.33224934,-0.33470368,-0.34037948,-0.34528828,-0.34528828,-0.34363163,-0.34120786,-0.33795583,-0.33875346,-0.33958185,-0.34200555,-0.34445995,-0.34691435,-0.34691435,-0.34445995,-0.34200555,-0.34037948,-0.33958185,-0.33875346,-0.33958185,-0.33958185,-0.33958185,-0.33875346,-0.33550137,-0.33062327,-0.32819957,-0.32819957,-0.32982558,-0.3314516,-0.33062327,-0.32899725,-0.32899725,-0.32899725,-0.32982558,-0.32899725,-0.32819957,-0.32737124,-0.3265735,-0.32249302,-0.3184433,-0.3159889,-0.3176149,-0.320867,-0.32249302,-0.319241,-0.3135652,-0.3086871,-0.30460662,-0.29890013,-0.28997225,-0.28101367,-0.27288347,-0.2663793,-0.25987512,-0.25091654,-0.24441242,-0.24036264,-0.23873657,-0.23385847,-0.22164786,-0.20618504,-0.19563115,-0.19155067,-0.19480282,-0.19968092,-0.20618504,-0.21839571,-0.23548454,-0.2566231,-0.27613556,-0.29159826,-0.3054043,-0.3200693,-0.33550137,-0.34691435,-0.35341853,-0.35667062,-0.35667062,-0.35667062,-0.35259014,-0.34691435,-0.34283394,-0.34120786,-0.34445995,-0.34528828,-0.33958185,-0.3200693,-0.2688337,-0.18096614,-0.044348,0.13786066,0.35584235,0.58192337,0.76575816,0.8714813,0.8609276,0.71044195,0.44042706,0.1020571,-0.23790824,-0.50144964,-0.64782405,-0.6827992,-0.6429459,-0.5754499,-0.5095798,-0.4591419,-0.4257927,-0.40790623,-0.39894772,-0.39652395,-0.39489794,-0.39164585,-0.38514167,-0.3761831,-0.3664269,-0.3607204,-0.3574683,-0.3558423,-0.34933805,-0.33958185,-0.33062327,-0.3241191,-0.3216954,-0.319241,-0.31681722,-0.3127368,-0.30706102,-0.30215222,-0.29564804,-0.28834617,-0.28101367,-0.27288347,-0.2655509,-0.25742078,-0.2501189,-0.24603844,-0.24116033,-0.23548454,-0.22244549,-0.20781112,-0.19317675,-0.17854244,-0.16633171,-0.1541518,-0.14031512,-0.12568074,-0.11021799,-0.09312922,-0.07278836,-0.052478194,-0.032934964,-0.0150485635,0.002009511,0.019098282,0.035358667,0.050821424,0.064658165,0.076838136,0.088250995,0.09638131,0.099633336,0.099633336,0.09555304,0.08904874,0.07846415,0.062203765,0.0394392,0.011796474,-0.019926667,-0.055730224,-0.09558362,-0.13786066,-0.17934006,-0.21919346,-0.2557947,-0.29159826,-0.32332146,-0.34771204,-0.3648008,-0.3761831,-0.3867677,-0.39732164,-0.4070779,-0.411956,-0.41358203,-0.41358203,-0.4127844,-0.41115838,-0.4070779,-0.40302813,-0.39894772,-0.39652395,-0.39815003,-0.39732164,-0.39406955,-0.38756537,-0.38023287,-0.3737287,-0.36967897,-0.3680529,-0.3672245,-0.3655985,-0.36317474,-0.3599227,-0.3574683,-0.35829663,-0.3607204,-0.36317474,-0.36317474,-0.3623464,-0.3623464,-0.36397243,-0.36317474,-0.3574683,-0.35341853,-0.3517925,-0.35341853,-0.35829663,-0.35909432,-0.3574683,-0.3574683,-0.35909432,-0.36154872,-0.3623464,-0.3648008,-0.3664269,-0.36967897,-0.372931,-0.372931,-0.37455708,-0.3778091,-0.37943518,-0.38023287,-0.3778091,-0.372931,-0.3688506,-0.36967897,-0.371305,-0.3737287,-0.37535477,-0.3761831,-0.3786068,-0.38023287,-0.38106126,-0.38106126,-0.38106126,-0.38023287,-0.38106126,-0.38106126,-0.3818589,-0.38268727,-0.38106126,-0.3778091,-0.371305,-0.3680529,-0.36967897,-0.3737287,-0.37698078,-0.3778091,-0.3778091,-0.3778091,-0.38023287,-0.38268727,-0.38348496,-0.3818589,-0.38023287,-0.38023287,-0.37943518,-0.37943518,-0.38023287,-0.38023287,-0.37943518,-0.3786068,-0.37535477,-0.37210268,-0.371305,-0.36967897,-0.3655985,-0.3558423,-0.34200555,-0.32899725,-0.319241,-0.3151912,-0.31436288,-0.31436288,-0.3127368,-0.30460662,-0.28751785,-0.2663793,-0.2501189,-0.24278641,-0.24766451,-0.25499701,-0.25742078,-0.2590468,-0.2663793,-0.28346807,-0.30623263,-0.32899725,-0.34933805,-0.3655985,-0.38268727,-0.39815003,-0.40870392,-0.41358203,-0.4160365,-0.41683418,-0.4176625,-0.4176625,-0.41928852,-0.4209146,-0.423369,-0.42416668,-0.423369,-0.41683418,-0.40465415,-0.37455708,-0.31193912,-0.20376134,-0.042721927,0.16470575,0.40382588,0.62993777,0.7917745,0.85034275,0.7698078,0.5453527,0.21836507,-0.14681923,-0.47377628,-0.68850577,-0.775545,-0.76008224,-0.6917578,-0.6185553,-0.5616132,-0.52258813,-0.49654084,-0.4802804,-0.4721502,-0.46727204,-0.46402,-0.4591419,-0.45263773,-0.44693124,-0.44205314,-0.43800336,-0.4331252,-0.42741877,-0.4200862,-0.4127844,-0.40790623,-0.40382582,-0.40140206,-0.39977604,-0.39652395,-0.39001977,-0.3818589,-0.37210268,-0.36317474,-0.35829663,-0.35504454,-0.35259014,-0.34854043,-0.34200555,-0.33632976,-0.33062327,-0.32332146,-0.3135652,-0.30298054,-0.28997225,-0.27533787,-0.2590468,-0.24198866,-0.22732365,-0.21514362,-0.20293301,-0.18829864,-0.16878617,-0.14924294,-0.13135654,-0.11347014,-0.09395754,-0.07116228,-0.050023735,-0.032137334,-0.021552682,-0.013422489,-0.003666222,0.008544326,0.019098282,0.02560246,0.02480483,0.021552682,0.0142201185,0.0036662817,-0.013422489,-0.037015438,-0.067112565,-0.102885485,-0.14031512,-0.17934006,-0.21919346,-0.2566231,-0.29564804,-0.33550137,-0.372931,-0.40465415,-0.4282471,-0.44530523,-0.45751584,-0.4697265,-0.48110878,-0.48923898,-0.49411708,-0.49491477,-0.49411708,-0.490865,-0.4859869,-0.4819064,-0.4802804,-0.4802804,-0.4794827,-0.47623062,-0.47135252,-0.46402,-0.45751584,-0.45101166,-0.44613355,-0.44367915,-0.44367915,-0.44693124,-0.44938564,-0.44775957,-0.44530523,-0.44205314,-0.44288146,-0.44530523,-0.44693124,-0.44693124,-0.44693124,-0.44693124,-0.44530523,-0.44288146,-0.43962944,-0.43717498,-0.438801,-0.44205314,-0.44530523,-0.44855726,-0.45101166,-0.45343536,-0.4542638,-0.45343536,-0.45263773,-0.45343536,-0.45506144,-0.45751584,-0.45751584,-0.45751584,-0.45751584,-0.45588982,-0.45180935,-0.44367915,-0.438801,-0.4363773,-0.43800336,-0.44367915,-0.44613355,-0.44775957,-0.44938564,-0.44938564,-0.44938564,-0.44530523,-0.44205314,-0.44042706,-0.44125545,-0.44288146,-0.44450754,-0.44613355,-0.44775957,-0.44613355,-0.44288146,-0.43717498,-0.4339229,-0.4339229,-0.43554896,-0.4363773,-0.4331252,-0.43067086,-0.42904478,-0.4282471,-0.42741877,-0.42662108,-0.4257927,-0.42904478,-0.42904478,-0.42662108,-0.4144104,-0.40140206,-0.39001977,-0.38268727,-0.3778091,-0.37047666,-0.36397243,-0.35829663,-0.3517925,-0.34445995,-0.33307767,-0.319241,-0.3086871,-0.3054043,-0.30785865,-0.3103131,-0.31193912,-0.3135652,-0.3176149,-0.32899725,-0.34528828,-0.3664269,-0.38919145,-0.411956,-0.43149918,-0.44205314,-0.44938564,-0.45180935,-0.45180935,-0.45263773,-0.45180935,-0.45101166,-0.45180935,-0.45018333,-0.44693124,-0.44042706,-0.43149918,-0.4209146,-0.40465415,-0.3664269,-0.29239595,-0.16553402,0.012594104,0.23707986,0.4705242,0.6592063,0.75274956,0.7226527,0.55428064,0.27450955,-0.058982313,-0.38514167,-0.6331897,-0.76496035,-0.7844728,-0.73161113,-0.6567826,-0.59171027,-0.54292905,-0.5087515,-0.48273486,-0.46564603,-0.45831352,-0.45831352,-0.4591419,-0.45751584,-0.44938564,-0.4363773,-0.424995,-0.4152081,-0.40790623,-0.40465415,-0.4021998,-0.39977604,-0.39815003,-0.39244348,-0.38593936,-0.37943518,-0.3737287,-0.3688506,-0.3623464,-0.35421622,-0.34691435,-0.34120786,-0.33550137,-0.32737124,-0.3176149,-0.30948472,-0.30460662,-0.2997285,-0.29159826,-0.28021604,-0.26800537,-0.2566231,-0.24766451,-0.23548454,-0.22164786,-0.20538741,-0.18747026,-0.1720382,-0.15332341,-0.13298261,-0.11101568,-0.08907944,-0.06873852,-0.052478194,-0.038641512,-0.026430905,-0.0150485635,-0.003666222,0.0077160597,0.017472267,0.023178697,0.02560246,0.027228594,0.029682875,0.028854609,0.022350311,0.0052922964,-0.022381067,-0.055730224,-0.09233159,-0.1273067,-0.16390806,-0.20050925,-0.23711056,-0.27613556,-0.3151912,-0.3517925,-0.38268727,-0.40382582,-0.4184602,-0.42904478,-0.44042706,-0.45180935,-0.46322232,-0.47135252,-0.47377628,-0.47377628,-0.47135252,-0.46727204,-0.46402,-0.46239394,-0.46159625,-0.4599396,-0.45668745,-0.45101166,-0.44367915,-0.43717498,-0.42904478,-0.423369,-0.42171228,-0.42171228,-0.42416668,-0.42416668,-0.41928852,-0.4127844,-0.40870392,-0.40870392,-0.41032994,-0.41115838,-0.411956,-0.4127844,-0.4144104,-0.4144104,-0.4127844,-0.4095323,-0.4070779,-0.40870392,-0.41032994,-0.4127844,-0.4127844,-0.41115838,-0.41032994,-0.4095323,-0.41032994,-0.4144104,-0.41928852,-0.42416668,-0.4257927,-0.42416668,-0.4200862,-0.4160365,-0.4152081,-0.4160365,-0.4160365,-0.41683418,-0.4160365,-0.4152081,-0.4152081,-0.4144104,-0.41358203,-0.41358203,-0.4144104,-0.4144104,-0.411956,-0.4070779,-0.4021998,-0.40057373,-0.40140206,-0.40140206,-0.40140206,-0.39977604,-0.39977604,-0.39894772,-0.39652395,-0.39164585,-0.38756537,-0.38593936,-0.38514167,-0.3786068,-0.3688506,-0.3607204,-0.35504454,-0.35259014,-0.35259014,-0.35096413,-0.34691435,-0.33958185,-0.32982558,-0.31681722,-0.30706102,-0.2997285,-0.2948504,-0.28914386,-0.28426576,-0.28509414,-0.29647642,-0.3184433,-0.34120786,-0.3599227,-0.37535477,-0.3867677,-0.39977604,-0.4095323,-0.4127844,-0.411956,-0.40870392,-0.40545183,-0.40302813,-0.39977604,-0.39815003,-0.40057373,-0.40790623,-0.40790623,-0.39894772,-0.37455708,-0.3241191,-0.24361473,-0.11672217,0.055699587,0.2663486,0.48028052,0.644572,0.7226527,0.6909294,0.5331421,0.27205515,-0.044348,-0.3558423,-0.59008425,-0.70801824,-0.7202289,-0.669791,-0.60146654,-0.53967696,-0.49166274,