0.5325072,0.122862816,-0.35529512,-0.7364279,-0.911837,-0.89224863,-0.76671195,-0.6269042,-0.5173805,-0.44345802,-0.40605372,-0.397161,-0.39181322,-0.36953562,-0.33570677,-0.31969374,-0.3232386,-0.33035886,-0.31969374,-0.29387134,-0.27871406,-0.2822895,-0.2902959,-0.28140324,-0.25823945,-0.24311268,-0.24754375,-0.2528916,-0.2404235,-0.2146011,-0.19589889,-0.19501275,-0.19501275,-0.17811358,-0.14694327,-0.12466574,-0.12112087,-0.116659224,-0.09618467,-0.059666634,-0.027610064,-0.01336956,-1.5258789e-05,0.028496385,0.06944549,0.103274465,0.121976614,0.13624763,0.16026711,0.18966496,0.2074809,0.20390546,0.19501281,0.19589901,0.20213306,0.19232368,0.16207004,0.12732446,0.10061586,0.07656574,0.03827524,-0.023148537,-0.08460277,-0.12824118,-0.15760839,-0.19412649,-0.2404235,-0.2876373,-0.31700456,-0.33035886,-0.349061,-0.37668645,-0.39804727,-0.40159208,-0.39447182,-0.40250885,-0.42833126,-0.44880587,-0.44703346,-0.42921752,-0.42121106,-0.43456537,-0.44969207,-0.44880587,-0.42833126,-0.41852182,-0.42475587,-0.4336486,-0.43010372,-0.41228777,-0.40159208,-0.40605372,-0.4096291,-0.397161,-0.37222487,-0.3570981,-0.36064297,-0.36330158,-0.35086405,-0.3348205,-0.33035886,-0.3481748,-0.3624153,-0.35440886,-0.3348205,-0.32858646,-0.34371322,-0.3588705,-0.35352266,-0.33124506,-0.3214662,-0.3339343,-0.34994727,-0.35352266,-0.34194076,-0.34016836,-0.35529512,-0.36599076,-0.3579843,-0.33928216,-0.3330481,-0.34994727,-0.36953562,-0.36953562,-0.34994727,-0.3365929,-0.34371322,-0.35440886,-0.35529512,-0.34463,-0.34105456,-0.35440886,-0.36510456,-0.3597567,-0.34105456,-0.3348205,-0.34371322,-0.34994727,-0.3348205,-0.30187786,-0.27960032,-0.28317565,-0.29206836,-0.28317565,-0.2528916,-0.21906269,-0.19770193,-0.18165845,-0.16118383,-0.14159548,-0.14871573,-0.17899972,-0.20925331,-0.21906269,-0.20301926,-0.19412649,-0.20836705,-0.23865104,-0.26804894,-0.29387134,-0.3330481,-0.38111752,-0.41674936,-0.41940802,-0.3953886,-0.37845892,-0.38111752,-0.39004076,-0.3855791,-0.36687696,-0.3579843,-0.36953562,-0.39092696,-0.40782613,-0.39447182,-0.33124506,-0.19324028,0.048084736,0.3579538,0.66785336,0.8619646,0.85395825,0.61620855,0.19320977,-0.2867511,-0.69278955,-0.9162986,-0.92341894,-0.78807276,-0.62421495,-0.51557744,-0.4719391,-0.45592612,-0.43098992,-0.39181322,-0.36421835,-0.3624153,-0.36599076,-0.35618126,-0.3330481,-0.31700456,-0.31969374,-0.32504165,-0.31611836,-0.29206836,-0.2769416,-0.27871406,-0.28317565,-0.274283,-0.2528916,-0.2404235,-0.24311268,-0.24577141,-0.23241699,-0.20393598,-0.18434763,-0.18165845,-0.17899972,-0.15849465,-0.122893274,-0.09260929,-0.07748252,-0.06590068,-0.03830582,0.0017876625,0.032041192,0.045395613,0.059666634,0.090806365,0.13001359,0.15583599,0.15938091,0.15760851,0.17184901,0.19855773,0.21013951,0.19855773,0.17631066,0.16384256,0.15849471,0.13533092,0.08814776,0.032927513,-0.01336956,-0.048084676,-0.09349543,-0.15406358,-0.2119425,-0.24846059,-0.26535976,-0.2894097,-0.32681406,-0.3624153,-0.38200366,-0.38200366,-0.3855791,-0.40339506,-0.42029423,-0.4220972,-0.41140157,-0.41140157,-0.42921752,-0.44880587,-0.45235068,-0.43988264,-0.4336486,-0.44345802,-0.45503992,-0.45057827,-0.43187618,-0.42029423,-0.42298347,-0.42833126,-0.41940802,-0.3953886,-0.38111752,-0.3838067,-0.38735157,-0.38200366,-0.36421835,-0.35618126,-0.36510456,-0.3713386,-0.36064297,-0.33839595,-0.32947266,-0.34194076,-0.35618126,-0.3517502,-0.32947266,-0.31611836,-0.3241248,-0.33928216,-0.34282696,-0.3330481,-0.33216184,-0.34463,-0.3570981,-0.35618126,-0.34016836,-0.3339343,-0.34551615,-0.3579843,-0.35529512,-0.34105456,-0.3374791,-0.35352266,-0.36864942,-0.36330158,-0.34463,-0.33570677,-0.349061,-0.36599076,-0.36510456,-0.349061,-0.33839595,-0.34551615,-0.3597567,-0.3588705,-0.34371322,-0.3330481,-0.33216184,-0.32681406,-0.30453646,-0.26982135,-0.24934673,-0.25469464,-0.2608981,-0.24399894,-0.20036054,-0.16206998,-0.14605707,-0.14871573,-0.15229112,-0.15048814,-0.15494978,-0.17187953,-0.1887787,-0.1887787,-0.1771968,-0.17811358,-0.20393598,-0.24399894,-0.27960032,-0.30899805,-0.3472886,-0.38915455,-0.414977,-0.41140157,-0.3855791,-0.36776322,-0.3713386,-0.37934506,-0.3739972,-0.35618126,-0.349061,-0.36776322,-0.39447182,-0.40339506,-0.3597567,-0.24754375,-0.052546263,0.22529685,0.5414001,0.81566775,0.9269638,0.80674434,0.4470029,-0.05077386,-0.5226977,-0.843293,-0.9483551,-0.86465377,-0.6981374,-0.54852015,-0.46928042,-0.44345802,-0.43010372,-0.40070587,-0.3624153,-0.34194076,-0.349061,-0.3579843,-0.34282696,-0.3107705,-0.2894097,-0.29206836,-0.302764,-0.3001054,-0.28051704,-0.26535976,-0.26713216,-0.2715938,-0.26001185,-0.23330325,-0.21640408,-0.21548724,-0.21640408,-0.2012468,-0.17187953,-0.15137434,-0.15137434,-0.15229112,-0.13713384,-0.10241878,-0.07124847,-0.05609119,-0.041850626,-0.012483299,0.030268788,0.064983964,0.08279979,0.098843336,0.13001359,0.16738737,0.19320977,0.19501281,0.18877876,0.19678521,0.21637356,0.22438002,0.20925331,0.18520331,0.16650116,0.15226066,0.121976614,0.06944549,0.012452841,-0.03207177,-0.06324196,-0.10241878,-0.15583605,-0.20570838,-0.24130976,-0.2608981,-0.28852355,-0.33124506,-0.36687696,-0.37845892,-0.373111,-0.37576967,-0.39981967,-0.42298347,-0.42833126,-0.41674936,-0.41317397,-0.42921752,-0.44791967,-0.44880587,-0.42744505,-0.41586316,-0.42475587,-0.43811017,-0.4354515,-0.414977,-0.39981967,-0.40339506,-0.41317397,-0.4087429,-0.38646537,-0.3713386,-0.37488347,-0.3838067,-0.38111752,-0.3624153,-0.3517502,-0.3579843,-0.36510456,-0.36064297,-0.34371322,-0.33124506,-0.33839595,-0.349061,-0.3481748,-0.3348205,-0.3330481,-0.34551615,-0.3588705,-0.35529512,-0.33839595,-0.33124506,-0.34194076,-0.3579843,-0.36064297,-0.3464024,-0.34016836,-0.34994727,-0.3597567,-0.3517502,-0.3339343,-0.32858646,-0.34371322,-0.36152917,-0.36064297,-0.34194076,-0.3330481,-0.34463,-0.3624153,-0.36599076,-0.3517502,-0.34463,-0.3570981,-0.36953562,-0.36152917,-0.33570677,-0.3134597,-0.30722564,-0.30453646,-0.29206836,-0.26893508,-0.25735325,-0.2644735,-0.26982135,-0.24665755,-0.19501275,-0.15048814,-0.13713384,-0.14336789,-0.15317732,-0.15760839,-0.16564542,-0.18254459,-0.19770193,-0.19589889,-0.17988598,-0.17811358,-0.20393598,-0.24399894,-0.28317565,-0.31434596,-0.34551615,-0.37757266,-0.397161,-0.39004076,-0.36776322,-0.35618126,-0.36064297,-0.36864942,-0.3624153,-0.34371322,-0.3365929,-0.35352266,-0.37668645,-0.37576967,-0.31969374,-0.19858819,-1.5258789e-05,0.26447356,0.5592159,0.7987379,0.875319,0.7114613,0.3223524,-0.16919035,-0.601968,-0.8619646,-0.91272324,-0.80231327,-0.6375693,-0.50133693,-0.43276232,-0.41586316,-0.41051537,-0.38735157,-0.3464024,-0.31880754,-0.31611836,-0.3214662,-0.3116567,-0.2894097,-0.274283,-0.27871406,-0.2849481,-0.274283,-0.24846059,-0.23064464,-0.23507571,-0.24399894,-0.23418945,-0.20570838,-0.18434763,-0.18165845,-0.18523377,-0.17453814,-0.14871573,-0.13001353,-0.12735492,-0.123779535,-0.09972948,-0.05700791,-0.023148537,-0.0115971565,-0.002673924,0.021376133,0.06409764,0.09972954,0.11931789,0.13355851,0.16026711,0.20036066,0.22529685,0.22706926,0.22172141,0.22884178,0.24843001,0.25466406,0.23596191,0.2074809,0.18966496,0.18165839,0.15583599,0.105077386,0.041850686,-0.008907974,-0.042736888,-0.08194417,-0.13713384,-0.1887787,-0.22352433,-0.23865104,-0.25823945,-0.29295462,-0.32770026,-0.34371322,-0.33928216,-0.34194076,-0.36152917,-0.3838067,-0.38823777,-0.37576967,-0.36864942,-0.38111752,-0.397161,-0.3962748,-0.3829205,-0.37576967,-0.38735157,-0.40070587,-0.3953886,-0.3713386,-0.35352266,-0.3579843,-0.36864942,-0.36421835,-0.34371322,-0.3241248,-0.3223524,-0.32504165,-0.31700456,-0.29652995,-0.28583425,-0.29564375,-0.3081119,-0.30722564,-0.2902959,-0.27782786,-0.28317565,-0.29387134,-0.29118216,-0.27247995,-0.2644735,-0.2769416,-0.29387134,-0.2947576,-0.28140324,-0.27247995,-0.28317565,-0.30187786,-0.30099165,-0.28140324,-0.27070755,-0.2822895,-0.30099165,-0.30453646,-0.2894097,-0.27782786,-0.28317565,-0.29652995,-0.29918867,-0.2876373,-0.2849481,-0.2974162,-0.3134597,-0.30899805,-0.2894097,-0.27782786,-0.2849481,-0.30099165,-0.29918867,-0.27516913,-0.25646704,-0.25469464,-0.25823945,-0.250233,-0.23330325,-0.22172135,-0.21906269,-0.20836705,-0.17365193,-0.123779535,-0.09618467,-0.10596353,-0.13358897,-0.149602,-0.14514035,-0.14070922,-0.15048814,-0.16295624,-0.16118383,-0.15137434,-0.1647287,-0.2119425,-0.27516913,-0.32057995,-0.33839595,-0.34463,-0.35440886,-0.3624153,-0.35263646,-0.32770026,-0.31434596,-0.3241248,-0.34016836,-0.34105456,-0.3259278,-0.31611836,-0.3348205,-0.349061,-0.29918867,-0.15048814,0.08903384,0.36776316,0.6349106,0.8263328,0.8637371,0.67674613,0.26801848,-0.23064464,-0.64380336,-0.8486103,-0.84237623,-0.7230736,-0.5903861,-0.48975503,-0.42029423,-0.37845892,-0.3588705,-0.34371322,-0.31969374,-0.29387134,-0.28317565,-0.29206836,-0.3001054,-0.2902959,-0.26270103,-0.24311268,-0.24488515,-0.25200546,-0.24311268,-0.21906269,-0.19678515,-0.19235414,-0.19589889,-0.1887787,-0.16741788,-0.15583605,-0.15941137,-0.16206998,-0.14871573,-0.11843169,-0.091723025,-0.08283031,-0.07659626,-0.054318726,-0.01780063,0.015142083,0.029382586,0.040964484,0.07033169,0.11665928,0.15583599,0.17273521,0.18165839,0.19944382,0.22884178,0.25020254,0.25111926,0.24577141,0.25111926,0.26535988,0.26624596,0.24219596,0.20390546,0.17542434,0.15403306,0.11665928,0.054318786,-0.014255762,-0.06767303,-0.10061574,-0.13536143,-0.18434763,-0.23330325,-0.2635873,-0.27070755,-0.27960032,-0.30633944,-0.3348205,-0.3472886,-0.34282696,-0.34551615,-0.36330158,-0.3829205,-0.38646537,-0.373111,-0.36510456,-0.37845892,-0.39981967,-0.40516746,-0.39358562,-0.3855791,-0.39181322,-0.40070587,-0.39269936,-0.3704524,-0.3579843,-0.36330158,-0.373111,-0.36510456,-0.33839595,-0.32057995,-0.3232386,-0.33570677,-0.3339343,-0.31611836,-0.30187786,-0.3081119,-0.31880754,-0.31523216,-0.29652995,-0.28583425,-0.29387134,-0.30722564,-0.30453646,-0.28583425,-0.27871406,-0.29206836,-0.3125735,-0.31611836,-0.30099165,-0.2876373,-0.29387134,-0.3116567,-0.31969374,-0.3116567,-0.30722564,-0.3134597,-0.3214662,-0.31969374,-0.30365026,-0.2947576,-0.302764,-0.31789076,-0.31969374,-0.30722564,-0.302764,-0.3125735,-0.32947266,-0.33124506,-0.31523216,-0.30633944,-0.3125735,-0.32504165,-0.3214662,-0.3001054,-0.28583425,-0.29206836,-0.3098843,-0.31434596,-0.30099165,-0.28583425,-0.27871406,-0.2715938,-0.25200546,-0.22618294,-0.21817654,-0.2270692,-0.2279554,-0.19678515,-0.14159548,-0.10241878,-0.10241878,-0.12466574,-0.13982302,-0.13802004,-0.13358897,-0.14425409,-0.16206998,-0.16295624,-0.149602,-0.15137434,-0.18966484,-0.24488515,-0.29206836,-0.31700456,-0.33035886,-0.34463,-0.3570981,-0.35352266,-0.3348205,-0.32504165,-0.33124506,-0.34105456,-0.3348205,-0.31700456,-0.31523216,-0.34194076,-0.36330158,-0.31880754,-0.16564542,0.08637524,0.38200378,0.67228436,0.89402115,0.95724785,0.7871561,0.37399733,-0.15137434,-0.5975063,-0.8325973,-0.84149003,-0.71683955,-0.5761455,-0.47640073,-0.41406018,-0.38200366,-0.3713386,-0.3588705,-0.33124506,-0.30099165,-0.28583425,-0.28852355,-0.29918867,-0.29118216,-0.26893508,-0.2528916,-0.2537778,-0.2608981,-0.24934673,-0.21729028,-0.19501275,-0.19324028,-0.20301926,-0.19947433,-0.17365193,-0.149602,-0.14694327,-0.15229112,-0.14782953,-0.12466574,-0.10061574,-0.08371657,-0.07571006,-0.05609119,-0.022262275,0.0080218315,0.024034739,0.040078282,0.07033169,0.111311436,0.143368,0.1567223,0.16650116,0.18877876,0.22795546,0.2608981,0.27248,0.26979077,0.2733662,0.2849481,0.28406203,0.26267064,0.23330331,0.21013951,0.19232368,0.1567223,0.091723084,0.016914487,-0.037419558,-0.066786826,-0.091723025,-0.13358897,-0.18343079,-0.22263813,-0.24399894,-0.2635873,-0.29295462,-0.32057995,-0.32947266,-0.3232386,-0.32057995,-0.3374791,-0.3588705,-0.36599076,-0.35618126,-0.3517502,-0.36421835,-0.38111752,-0.38200366,-0.36687696,-0.3588705,-0.36687696,-0.38023132,-0.37668645,-0.35352266,-0.3330481,-0.3339343,-0.34371322,-0.34105456,-0.31789076,-0.29918867,-0.2983024,-0.30633944,-0.30453646,-0.2876373,-0.2760554,-0.2822895,-0.29206836,-0.2894097,-0.26893508,-0.25558078,-0.26181483,-0.27871406,-0.28140324,-0.2644735,-0.2537778,-0.26001185,-0.2715938,-0.26982135,-0.25823945,-0.25469464,-0.26804894,-0.2902959,-0.2947576,-0.27782786,-0.2644735,-0.26804894,-0.28140324,-0.28406185,-0.27247995,-0.26893508,-0.28051704,-0.2974162,-0.3001054,-0.28852355,-0.27871406,-0.28140324,-0.29387134,-0.29564375,-0.2849481,-0.27960032,-0.28852355,-0.29918867,-0.29564375,-0.27782786,-0.26982135,-0.27782786,-0.2902959,-0.2876373,-0.2662459,-0.25469464,-0.26893508,-0.2867511,-0.28406185,-0.2528916,-0.21994895,-0.21017003,-0.21817654,-0.21906269,-0.19858819,-0.17187953,-0.14694327,-0.12466574,-0.09618467,-0.06501442,-0.06501442,-0.09707087,-0.13267225,-0.14336789,-0.12200713,-0.10953897,-0.12112087,-0.15672219,-0.17988598,-0.18077219,-0.19770193,-0.25558078,-0.3232386,-0.37222487,-0.37934506,-0.3588705,-0.34463,-0.34463,-0.34105456,-0.3241248,-0.3125735,-0.3125735,-0.32057995,-0.3241248,-0.33035886,-0.3339343,-0.30453646,-0.19235414,0.045395613,0.36507404,0.6829802,0.8913624,0.9162986,0.724846,0.3330176,-0.16564542,-0.6206701,-0.88959,-0.9198435,-0.77826333,-0.6037404,-0.49155802,-0.44434422,-0.41674936,-0.3829205,-0.35352266,-0.34105456,-0.34282696,-0.3374791,-0.31523216,-0.29118216,-0.28406185,-0.2894097,-0.2822895,-0.26001185,-0.24311268,-0.24311268,-0.2537778,-0.250233,-0.2244106,-0.20301926,-0.20482212,-0.21906269,-0.21906269,-0.19324028,-0.16295624,-0.14782953,-0.14694327,-0.13802004,-0.11400062,-0.08814764,-0.07390708,-0.06324196,-0.040964425,-0.00090146065,0.035616636,0.052546382,0.06409764,0.091723084,0.13624763,0.17273521,0.18877876,0.18877876,0.19320977,0.21282876,0.22529685,0.21725976,0.20390546,0.20213306,0.21371496,0.21191192,0.17719686,0.12020409,0.07033169,0.034730315,-0.0044463277,-0.059666634,-0.122893274,-0.16741788,-0.1887787,-0.21282864,-0.2528916,-0.2983024,-0.32770026,-0.3348205,-0.34371322,-0.36776322,-0.39447182,-0.40159208,-0.38823777,-0.37757266,-0.39092696,-0.41406018,-0.42386967,-0.41228777,-0.40428132,-0.41228777,-0.42833126,-0.4354515,-0.42029423,-0.40339506,-0.40339506,-0.41051537,-0.40516746,-0.3829205,-0.36599076,-0.36510456,-0.37222487,-0.36599076,-0.34371322,-0.32858646,-0.33035886,-0.34551615,-0.3464024,-0.32947266,-0.31523216,-0.31880754,-0.33124506,-0.33216184,-0.3125735,-0.3001054,-0.30899805,-0.32858646,-0.33928216,-0.32858646,-0.31523216,-0.3134597,-0.3214662,-0.31969374,-0.3081119,-0.30365026,-0.31523216,-0.3330481,-0.33570677,-0.3214662,-0.3125735,-0.3214662,-0.3348205,-0.33570677,-0.32057995,-0.31523216,-0.33035886,-0.35529512,-0.36152917,-0.34551615,-0.32858646,-0.32681406,-0.33570677,-0.3330481,-0.31880754,-0.3107705,-0.3214662,-0.33839595,-0.3339343,-0.3107705,-0.2902959,-0.2894097,-0.2974162,-0.2876373,-0.2591257,-0.24130976,-0.24934673,-0.26804894,-0.26270103,-0.21729028,-0.16206998,-0.13358897,-0.13267225,-0.14425409,-0.149602,-0.15229112,-0.16295624,-0.1771968,-0.1754244,-0.16029763,-0.15317732,-0.17365193,-0.21729028,-0.26001185,-0.29118216,-0.32057995,-0.35618126,-0.3846929,-0.38735157,-0.36599076,-0.34551615,-0.34371322,-0.35263646,-0.35440886,-0.3365929,-0.3223524,-0.33216184,-0.36064297,-0.37668645,-0.34994727,-0.26270103,-0.10061574,0.13624763,0.41583264,0.6812078,0.83079433,0.7853837,0.51557755,0.08460283,-0.373111,-0.7275047,-0.8958241,-0.8717741,-0.7266184,-0.56633604,-0.46393263,-0.42386967,-0.41228777,-0.39269936,-0.35263646,-0.32057995,-0.31700456,-0.32681406,-0.3241248,-0.2983024,-0.27070755,-0.26713216,-0.27960032,-0.28583425,-0.274283,-0.25823945,-0.2511192,-0.2511192,-0.23865104,-0.21548724,-0.19947433,-0.20393598,-0.21282864,-0.20482212,-0.1754244,-0.14336789,-0.13089979,-0.13001353,-0.11577308,-0.08371657,-0.05166012,-0.035616577,-0.026723862,-0.008021772,0.026693344,0.061439037,0.079255104,0.091723084,0.11931789,0.16207004,0.19767141,0.21102571,0.20836711,0.21548736,0.23418951,0.2448852,0.23418951,0.20836711,0.19143736,0.18789256,0.17273521,0.12732446,0.06321144,0.005332589,-0.033844113,-0.06947601,-0.11488682,-0.17096275,-0.2137149,-0.23418945,-0.2537778,-0.28583425,-0.3223524,-0.34371322,-0.34551615,-0.3464024,-0.3624153,-0.38735157,-0.3989334,-0.39092696,-0.3838067,-0.39004076,-0.4096291,-0.41852182,-0.41228777,-0.40782613,-0.41586316,-0.42652828,-0.42029423,-0.39447182,-0.37222487,-0.37222487,-0.38735157,-0.38823777,-0.3713386,-0.35440886,-0.3472886,-0.35263646,-0.3472886,-0.32858646,-0.31434596,-0.32057995,-0.33570677,-0.33570677,-0.31789076,-0.302764,-0.30633944,-0.3232386,-0.32770026,-0.3107705,-0.29564375,-0.29652995,-0.3107705,-0.31523216,-0.30099165,-0.29118216,-0.302764,-0.3259278,-0.3374791,-0.32947266,-0.31789076,-0.3223524,-0.3374791,-0.34371322,-0.33216184,-0.31969374,-0.3223524,-0.3374791,-0.34016836,-0.3259278,-0.3134597,-0.3223524,-0.34016836,-0.3472886,-0.33570677,-0.3232386,-0.32770026,-0.34194076,-0.34463,-0.32858646,-0.31611836,-0.3214662,-0.3374791,-0.34463,-0.32947266,-0.31789076,-0.3223524,-0.33216184,-0.32858646,-0.30187786,-0.2733662,-0.26270103,-0.26982135,-0.26982135,-0.2511192,-0.2279554,-0.21017003,-0.19235414,-0.16564542,-0.13624758,-0.12555194,-0.14425409,-0.1771968,-0.19235414,-0.18343079,-0.17187953,-0.17988598,-0.20036054,-0.2146011,-0.2244106,-0.24754375,-0.29652995,-0.35263646,-0.3838067,-0.37757266,-0.36421835,-0.36330158,-0.37488347,-0.37845892,-0.3624153,-0.349061,-0.34994727,-0.36064297,-0.36421835,-0.3588705,-0.35263646,-0.3241248,-0.2279554,-0.021376073,0.26801848,0.55741286,0.76579523,0.81566775,0.6820941,0.35529506,-0.09707087,-0.54139984,-0.8361422,-0.8993689,-0.78006625,-0.6135498,-0.50133693,-0.45592612,-0.43010372,-0.39358562,-0.35618126,-0.3365929,-0.33928216,-0.33928216,-0.3223524,-0.30187786,-0.29564375,-0.30099165,-0.3001054,-0.28140324,-0.26270103,-0.26535976,-0.28051704,-0.28406185,-0.26535976,-0.23865104,-0.22263813,-0.22083515,-0.21548724,-0.19947433,-0.18077219,-0.17276567,-0.17096275,-0.15583605,-0.123779535,-0.09707087,-0.09083682,-0.08995062,-0.07390708,-0.037419558,0.005332589,0.03115499,0.045395613,0.071218014,0.11308384,0.15137446,0.16919029,0.17184901,0.18254471,0.21191192,0.23865116,0.24308217,0.22795546,0.21637356,0.21725976,0.21548736,0.18700635,0.13624763,0.08726144,0.048970938,0.010680437,-0.040078163,-0.10153252,-0.149602,-0.17899972,-0.20482212,-0.24399894,-0.2902959,-0.31969374,-0.32681406,-0.32947266,-0.3481748,-0.37757266,-0.3953886,-0.39004076,-0.37934506,-0.3846929,-0.40159208,-0.41228777,-0.40605372,-0.3962748,-0.40070587,-0.41586316,-0.42029423,-0.40782613,-0.3953886,-0.3953886,-0.40428132,-0.40250885,-0.3838067,-0.36510456,-0.36330158,-0.37222487,-0.36864942,-0.34551615,-0.32770026,-0.32858646,-0.34463,-0.35086405,-0.3365929,-0.31789076,-0.31523216,-0.32681406,-0.32947266,-0.31434596,-0.29564375,-0.29564375,-0.30365026,-0.30542266,-0.29387134,-0.28140324,-0.2867511,-0.30365026,-0.3107705,-0.30099165,-0.29295462,-0.30187786,-0.3214662,-0.32681406,-0.3098843,-0.29564375,-0.29918867,-0.31789076,-0.32770026,-0.31611836,-0.302764,-0.30722564,-0.3223524,-0.3241248,-0.3081119,-0.29387134,-0.3001054,-0.3241248,-0.33928216,-0.33124506,-0.31969374,-0.31880754,-0.32770026,-0.32858646,-0.31611836,-0.30542266,-0.3125735,-0.32770026,-0.32858646,-0.3107705,-0.29564375,-0.2974162,-0.30633944,-0.30099165,-0.2715938,-0.24222648,-0.23599243,-0.24665755,-0.250233,-0.2279554,-0.19146788,-0.15849465,-0.13802004,-0.122893274,-0.111311436,-0.11400062,-0.13624758,-0.16118383,-0.16919035,-0.15760839,-0.14871573,-0.15583605,-0.18165845,-0.20659459,-0.22884166,-0.2635873,-0.31611836,-0.36864942,-0.39092696,-0.37845892,-0.3588705,-0.35529512,-0.36510456,-0.36687696,-0.3472886,-0.3259278,-0.3232386,-0.34282696,-0.36421835,-0.36599076,-0.32858646,-0.23330325,-0.047198474,0.22618306,0.5342797,0.79073155,0.8895596,0.77914965,0.45500946,-0.0017877221,-0.45769858,-0.7844973,-0.90025514,-0.8201293,-0.6456063,-0.49956447,-0.43187618,-0.41051537,-0.39092696,-0.3570981,-0.31880754,-0.29652995,-0.2983024,-0.30099165,-0.2876373,-0.27516913,-0.2894097,-0.30453646,-0.30099165,-0.2867511,-0.25823945,-0.24665755,-0.24311268,-0.23241699,-0.21548724,-0.20748085,-0.2146011,-0.2252968,-0.21282864,-0.17631054,-0.14248163,-0.13982302,-0.15406358,-0.15494978,-0.12555194,-0.085489035,-0.05789417,-0.040078163,-0.01960361,0.016028285,0.052546382,0.077451944,0.08903384,0.110425234,0.14691281,0.18343091,0.20213306,0.2065947,0.21725976,0.23865116,0.2573533,0.2573533,0.23684812,0.219949,0.21102571,0.20124686,0.17184901,0.12109041,0.07479334,0.045395613,0.01868689,-0.02583772,-0.08283031,-0.13536143,-0.17187953,-0.20036054,-0.2395373,-0.28051704,-0.30633944,-0.3107705,-0.3125735,-0.3330481,-0.36510456,-0.38111752,-0.37668645,-0.36864942,-0.37576967,-0.3953886,-0.397161,-0.38111752,-0.36330158,-0.3704524,-0.397161,-0.42029423,-0.41852182,-0.40339506,-0.39981967,-0.40339506,-0.3953886,-0.3739972,-0.35263646,-0.3481748,-0.3597567,-0.36152917,-0.3464024,-0.3259278,-0.31789076,-0.3232386,-0.32057995,-0.30187786,-0.2876373,-0.29206836,-0.30722564,-0.30899805,-0.29295462,-0.2769416,-0.28051704,-0.29387134,-0.30542266,-0.2974162,-0.28852355,-0.3001054,-0.3232386,-0.3259278,-0.3081119,-0.2876373,-0.2902959,-0.31523216,-0.33124506,-0.3259278,-0.3116567,-0.3081119,-0.32057995,-0.32770026,-0.31789076,-0.30633944,-0.3116567,-0.32947266,-0.3330481,-0.31611836,-0.29206836,-0.2876373,-0.30542266,-0.31523216,-0.30899805,-0.30099165,-0.30633944,-0.3259278,-0.33839595,-0.3330481,-0.32057995,-0.31789076,-0.3241248,-0.32057995,-0.3001054,-0.27871406,-0.26982135,-0.26804894,-0.25735325,-0.23418945,-0.21906269,-0.2244106,-0.23153085,-0.21017003,-0.16029763,-0.11400062,-0.10330492,-0.12912732,-0.15494978,-0.16029763,-0.15048814,-0.15048814,-0.16741788,-0.17899972,-0.17631054,-0.17453814,-0.19678515,-0.24311268,-0.2876373,-0.31611836,-0.33570677,-0.3579843,-0.3838067,-0.39181322,-0.37576967,-0.35440886,-0.35086405,-0.36330158,-0.36776322,-0.35352266,-0.34105456,-0.3517502,-0.36421835,-0.31969374,-0.17365193,0.07390714,0.35975683,0.62956285,0.811206,0.835256,0.6411141,0.22438002,-0.2876373,-0.70703006,-0.91452616,-0.8984827,-0.7631365,-0.6206701,-0.51646364,-0.44611663,-0.39981967,-0.38111752,-0.37845892,-0.36510456,-0.34016836,-0.31969374,-0.31700456,-0.32947266,-0.32947266,-0.30722564,-0.28051704,-0.2715938,-0.28140324,-0.28406185,-0.26982135,-0.25200546,-0.24577141,-0.25558078,-0.25646704,-0.23330325,-0.20748085,-0.19589889,-0.19858819,-0.19324028,-0.16653168,-0.13624758,-0.12112087,-0.122893274,-0.117545485,-0.08906436,-0.049887657,-0.020489812,-0.0071355104,0.013339043,0.047198534,0.083685994,0.104191184,0.10773611,0.11931789,0.15048826,0.18520331,0.20479167,0.2074809,0.2065947,0.20836711,0.20390546,0.17808294,0.14067876,0.11485636,0.104191184,0.085489035,0.040078282,-0.02583772,-0.08906436,-0.13001353,-0.16564542,-0.20925331,-0.2591257,-0.29564375,-0.3107705,-0.3223524,-0.3472886,-0.3829205,-0.40516746,-0.40516746,-0.39981967,-0.4087429,-0.4336486,-0.45057827,-0.44969207,-0.44257182,-0.44791967,-0.46662182,-0.47551447,-0.46393263,-0.44434422,-0.43722397,-0.44168556,-0.44257182,-0.43098992,-0.41586316,-0.41317397,-0.42121106,-0.41586316,-0.3962748,-0.37845892,-0.37934506,-0.3953886,-0.3953886,-0.37488347,-0.35618126,-0.35263646,-0.36776322,-0.37845892,-0.36421835,-0.3464024,-0.3464024,-0.3624153,-0.3704524,-0.36064297,-0.3464024,-0.3472886,-0.36064297,-0.36864942,-0.3570981,-0.34551615,-0.3517502,-0.3739972,-0.3855791,-0.3739972,-0.36064297,-0.3624153,-0.37845892,-0.38646537,-0.3713386,-0.34994727,-0.3517502,-0.37222487,-0.3829205,-0.3713386,-0.35352266,-0.35086405,-0.36599076,-0.37934506,-0.37576967,-0.36599076,-0.36864942,-0.38111752,-0.38200366,-0.36421835,-0.34016836,-0.33216184,-0.33928216,-0.33216184,-0.30899805,-0.28583425,-0.2849481,-0.29564375,-0.2902959,-0.2537778,-0.20659459,-0.17988598,-0.18434763,-0.19770193,-0.19858819,-0.19678515,-0.20301926,-0.22083515,-0.22884166,-0.21729028,-0.20836705,-0.22975838,-0.27871406,-0.32858646,-0.3597567,-0.3713386,-0.38200366,-0.40605372,-0.41852182,-0.41228777,-0.39804727,-0.39358562,-0.40159208,-0.40339506,-0.39004076,-0.37757266,-0.3829205,-0.40516746,-0.39804727,-0.32057995,-0.15849465,0.06767309,0.31254292,0.5485202,0.7141504,0.7363975,0.5458616,0.15137446,-0.31523216,-0.696365,-0.88959,-0.883356,-0.7595611,-0.61443603,-0.50045073,-0.43722397,-0.414977,-0.41228777,-0.3989334,-0.36687696,-0.33570677,-0.32681406,-0.3365929,-0.33839595,-0.3214662,-0.29918867,-0.2902959,-0.2902959,-0.28583425,-0.26270103,-0.24222648,-0.24130976,-0.25646704,-0.26270103,-0.24311268,-0.21640408,-0.20393598,-0.20393598,-0.202133,-0.17988598,-0.15229112,-0.13624758,-0.13001353,-0.11400062,-0.08014113,-0.042736888,-0.024951458,-0.021376073,-0.0053631067,0.027610183,0.071218014,0.098843336,0.110425234,0.12466586,0.15760851,0.19055116,0.2074809,0.20567787,0.20479167,0.21637356,0.22438002,0.2190628,0.19320977,0.16830409,0.15314686,0.13267219,0.089920044,0.021376133,-0.037419558,-0.08371657,-0.11843169,-0.16295624,-0.21548724,-0.26001185,-0.28406185,-0.2974162,-0.32681406,-0.36510456,-0.38735157,-0.38735157,-0.37757266,-0.38111752,-0.40250885,-0.41940802,-0.414977,-0.40250885,-0.40516746,-0.4220972,-0.4336486,-0.42833126,-0.41228777,-0.41228777,-0.42652828,-0.43633777,-0.42833126,-0.41051537,-0.40159208,-0.40428132,-0.40428132,-0.38646537,-0.36330158,-0.3570981,-0.36510456,-0.36599076,-0.3481748,-0.3241248,-0.31611836,-0.32770026,-0.3365929,-0.32681406,-0.3134597,-0.3125735,-0.32858646,-0.33839595,-0.32681406,-0.30633944,-0.30365026,-0.31789076,-0.32947266,-0.3232386,-0.3098843,-0.3107705,-0.32947266,-0.34194076,-0.3374791,-0.3214662,-0.32057995,-0.3348205,-0.34282696,-0.3339343,-0.3214662,-0.3232386,-0.34105456,-0.35529512,-0.349061,-0.3339343,-0.33216184,-0.3464024,-0.35263646,-0.34016836,-0.32504165,-0.3214662,-0.33839595,-0.34994727,-0.34194076,-0.32504165,-0.3214662,-0.3339343,-0.34371322,-0.33570677,-0.31523216,-0.3001054,-0.29206836,-0.27871406,-0.25823945,-0.2404235,-0.23865104,-0.24130976,-0.21994895,-0.17453814,-0.13178599,-0.122893274,-0.14782953,-0.1754244,-0.17988598,-0.16919035,-0.17007649,-0.18612003,-0.19947433,-0.19947433,-0.19858819,-0.22172135,-0.274283,-0.32681406,-0.3597567,-0.3739972,-0.3838067,-0.3962748,-0.39804727,-0.38200366,-0.36152917,-0.3570981,-0.36864942,-0.37222487,-0.36330158,-0.35529512,-0.36864942,-0.37845892,-0.3214662,-0.15317732,0.11843181,0.41583264,0.67228436,0.8236742,0.8138647,0.59393096,0.17273521,-0.32504165,-0.724846,-0.90471673,-0.8664262,-0.7266184,-0.59662014,-0.5111464,-0.45235068,-0.40516746,-0.37845892,-0.3704524,-0.3624153,-0.34463,-0.3232386,-0.31434596,-0.31969374,-0.31969374,-0.30453646,-0.2849481,-0.27782786,-0.28583425,-0.2849481,-0.26535976,-0.2404235,-0.23330325,-0.24399894,-0.24846059,-0.23241699,-0.20570838,-0.19146788,-0.19324028,-0.18966484,-0.16830409,-0.13802004,-0.12020409,-0.117545485,-0.10776657,-0.07659626,-0.036502838,-0.0115971565,-0.0044463277,0.008908033,0.041850686,0.08460283,0.11308384,0.123779535,0.13624763,0.16561496,0.20036066,0.21725976,0.21102571,0.20301926,0.2065947,0.21548736,0.2065947,0.17719686,0.14514029,0.121976614,0.096154094,0.048970938,-0.01960361,-0.08371657,-0.12555194,-0.15494978,-0.19324028,-0.24311268,-0.28140324,-0.2983024,-0.30365026,-0.3214662,-0.3570981,-0.3855791,-0.39004076,-0.3838067,-0.3855791,-0.40605372,-0.42298347,-0.42298347,-0.41051537,-0.41051537,-0.42475587,-0.43633777,-0.43010372,-0.41317397,-0.4087429,-0.41940802,-0.42652828,-0.41763562,-0.39981967,-0.39181322,-0.3989334,-0.39981967,-0.3829205,-0.36152917,-0.35529512,-0.36864942,-0.37757266,-0.36599076,-0.34463,-0.33570677,-0.34463,-0.35086405,-0.33928216,-0.31969374,-0.3125735,-0.3241248,-0.3365929,-0.3339343,-0.3214662,-0.3214662,-0.3348205,-0.34282696,-0.3339343,-0.31700456,-0.31523216,-0.33124506,-0.34551615,-0.34105456,-0.32770026,-0.32770026,-0.34551615,-0.3597567,-0.35529512,-0.33839595,-0.3330481,-0.3472886,-0.3579843,-0.35086405,-0.3330481,-0.32770026,-0.33928216,-0.35086405,-0.3464024,-0.33124506,-0.32947266,-0.3464024,-0.3588705,-0.35352266,-0.3365929,-0.33216184,-0.34551615,-0.35352266,-0.34282696,-0.31700456,-0.2983024,-0.29295462,-0.2867511,-0.26982135,-0.25200546,-0.24754375,-0.2511192,-0.23418945,-0.1887787,-0.14159548,-0.123779535,-0.14514035,-0.1771968,-0.1905511,-0.18434763,-0.18343079,-0.19501275,-0.20482212,-0.20393598,-0.2012468,-0.2244106,-0.274283,-0.33035886,-0.36687696,-0.38111752,-0.39092696,-0.40339506,-0.40605372,-0.39269936,-0.37222487,-0.36599076,-0.37757266,-0.3838067,-0.37488347,-0.36330158,-0.3739972,-0.39181322,-0.3579843,-0.21906269,0.033844233,0.3348205,0.61709464,0.8129784,0.85395825,0.6820941,0.28225887,-0.23330325,-0.68209386,-0.92341894,-0.92607754,-0.7907314,-0.64468956,-0.54139984,-0.47640073,-0.42921752,-0.40070587,-0.39004076,-0.37934506,-0.3597567,-0.3365929,-0.32858646,-0.3365929,-0.34105456,-0.3259278,-0.2983024,-0.28317565,-0.2876373,-0.29206836,-0.27960032,-0.25558078,-0.24311268,-0.24846059,-0.2511192,-0.23687863,-0.21282864,-0.20036054,-0.202133,-0.19858819,-0.17453814,-0.13802004,-0.11577308,-0.1130839,-0.10776657,-0.08102739,-0.042736888,-0.016028166,-0.006249249,0.007104993,0.03738904,0.08102739,0.11397016,0.12732446,0.13979256,0.16738737,0.20301926,0.219949,0.21460116,0.2065947,0.21102571,0.22438002,0.22172141,0.19501281,0.15849471,0.1308999,0.10684979,0.064983964,0.005332589,-0.049887657,-0.08814764,-0.11400062,-0.15048814,-0.20301926,-0.2511192,-0.28051704,-0.2947576,-0.31611836,-0.34994727,-0.37668645,-0.3838067,-0.37845892,-0.38111752,-0.3989334,-0.41317397,-0.41317397,-0.40428132,-0.40605372,-0.42121106,-0.43098992,-0.42121106,-0.40070587,-0.39358562,-0.40516746,-0.41406018,-0.40693992,-0.38735157,-0.37845892,-0.3846929,-0.38823777,-0.37488347,-0.35086405,-0.34105456,-0.34994727,-0.3579843,-0.349061,-0.32858646,-0.3214662,-0.33124506,-0.34016836,-0.3339343,-0.31611836,-0.3107705,-0.32504165,-0.3365929,-0.33124506,-0.31434596,-0.30899805,-0.3223524,-0.3374791,-0.3348205,-0.32057995,-0.31789076,-0.33124506,-0.34551615,-0.3464024,-0.33570677,-0.3330481,-0.34463,-0.3517502,-0.34282696,-0.32504165,-0.3223524,-0.33928216,-0.35440886,-0.3517502,-0.33839595,-0.3348205,-0.3472886,-0.3588705,-0.3517502,-0.3339343,-0.33124506,-0.3464024,-0.3570981,-0.3481748,-0.32504165,-0.30899805,-0.30899805,-0.30633944,-0.28852355,-0.26535976,-0.25646704,-0.26001185,-0.250233,-0.21282864,-0.16295624,-0.13713384,-0.14782953,-0.17096275,-0.17988598,-0.17276567,-0.17365193,-0.19235414,-0.2119425,-0.21729028,-0.2137149,-0.23064464,-0.27516913,-0.32947266,-0.36599076,-0.38111752,-0.39004076,-0.40159208,-0.40605372,-0.39181322,-0.36599076,-0.35440886,-0.3624153,-0.37222487,-0.36687696,-0.35263646,-0.35529512,-0.3739972,-0.3624153,-0.27070755,-0.07571006,0.18608963,0.45681238,0.6785184,0.7898452,0.7194983,0.41940808,-0.048084676,-0.5236145,-0.8450654,-0.93677324,-0.85041326,-0.70259905,-0.5743426,-0.48532397,-0.42386967,-0.39004076,-0.38023132,-0.3704524,-0.34994727,-0.3241248,-0.3125735,-0.31789076,-0.3241248,-0.31434596,-0.29118216,-0.27782786,-0.27960032,-0.2822895,-0.26804894,-0.24222648,-0.22884166,-0.23330325,-0.23687863,-0.2244106,-0.20036054,-0.1878925,-0.19235414,-0.19412649,-0.1754244,-0.13982302,-0.1130839,-0.10596353,-0.10153252,-0.08014113,-0.04453987,-0.016914427,-0.0053631067,0.008908033,0.040964484,0.08726144,0.121976614,0.13444471,0.14156497,0.16207004,0.19589901,0.2190628,0.22260773,0.21814597,0.22172141,0.23061407,0.22349381,0.19589901,0.16115332,0.13713396,0.11931789,0.085489035,0.029382586,-0.031185508,-0.07571006,-0.10596353,-0.14425409,-0.19678515,-0.24577141,-0.2733662,-0.2822895,-0.2983024,-0.33035886,-0.3624153,-0.37488347,-0.37222487,-0.37576967,-0.39269936,-0.40782613,-0.40693992,-0.39447182,-0.397161,-0.41763562,-0.43722397,-0.4336486,-0.41228777,-0.39981967,-0.40428132,-0.41051537,-0.40339506,-0.38111752,-0.36953562,-0.37488347,-0.38023132,-0.36864942,-0.34551615,-0.33570677,-0.34371322,-0.35440886,-0.3464024,-0.3232386,-0.3116567,-0.32057995,-0.3339343,-0.3330481,-0.31880754,-0.3116567,-0.3223524,-0.3348205,-0.33216184,-0.31523216,-0.30722564,-0.31880754,-0.33216184,-0.3339343,-0.3214662,-0.31611836,-0.32770026,-0.34016836,-0.33839595,-0.32504165,-0.32057995,-0.33216184,-0.34463,-0.34194076,-0.3241248,-0.31700456,-0.32770026,-0.34194076,-0.34105456,-0.32681406,-0.32057995,-0.33124506,-0.33928216,-0.32947266,-0.30542266,-0.2902959,-0.29295462,-0.29564375,-0.28317565,-0.26001185,-0.24488515,-0.24665755,-0.24130976,-0.21105623,-0.16741788,-0.13982302,-0.14159548,-0.15406358,-0.15760839,-0.149602,-0.15229112,-0.17276567,-0.19324028,-0.19412649,-0.18077219,-0.1905511,-0.23418945,-0.29295462,-0.33839595,-0.3597567,-0.36953562,-0.38200366,-0.38735157,-0.37488347,-0.34994727,-0.3374791,-0.3464024,-0.3579843,-0.35263646,-0.33570677,-0.3339343,-0.35440886,-0.3579843,-0.28852355,-0.11577308,0.13355851,0.40070605,0.64022803,0.79073155,0.7853837,0.5609883,0.13802016,-0.34551615,-0.72127056,-0.8842422,-0.85041326,-0.72038436,-0.5859245,-0.48709637,-0.42029423,-0.3855791,-0.3739972,-0.36510456,-0.34551615,-0.32057995,-0.3081119,-0.3125735,-0.31434596,-0.2974162,-0.26804894,-0.25200546,-0.25735325,-0.26804894,-0.26270103,-0.2404235,-0.22618294,-0.2279554,-0.23418945,-0.2270692,-0.20659459,-0.19235414,-0.1905511,-0.18700624,-0.16564542,-0.13001353,-0.10684979,-0.10330492,-0.10241878,-0.08371657,-0.048084676,-0.01780063,-0.0044463277,0.007104993,0.034730315,0.07836878,0.11397016,0.13178611,0.14514029,0.17096281,0.20836711,0.23061407,0.22972786,0.22083521,0.22260773,0.23684812,0.23773444,0.21548736,0.18254471,0.15760851,0.13890624,0.103274465,0.04362309,-0.023148537,-0.073020875,-0.10330492,-0.13713384,-0.18523377,-0.23418945,-0.2662459,-0.27782786,-0.29295462,-0.3214662,-0.3517502,-0.36510456,-0.36330158,-0.36599076,-0.38200366,-0.3989334,-0.39981967,-0.38646537,-0.3846929,-0.40070587,-0.41940802,-0.41852182,-0.397161,-0.3846929,-0.39004076,-0.40159208,-0.39981967,-0.38111752,-0.36687696,-0.36953562,-0.37576967,-0.36864942,-0.3481748,-0.3365929,-0.34105456,-0.349061,-0.34016836,-0.31789076,-0.30722564,-0.31434596,-0.32681406,-0.3232386,-0.302764,-0.29118216,-0.2983024,-0.30899805,-0.3081119,-0.2947576,-0.2894097,-0.30099165,-0.31434596,-0.3116567,-0.29652995,-0.29206836,-0.30899805,-0.32947266,-0.3348205,-0.32057995,-0.3107705,-0.31969374,-0.33124506,-0.32858646,-0.3116567,-0.302764,-0.3107705,-0.32681406,-0.32858646,-0.31434596,-0.30722564,-0.31700456,-0.33216184,-0.33216184,-0.31789076,-0.3107705,-0.3214662,-0.33216184,-0.32504165,-0.2983024,-0.2760554,-0.27070755,-0.2733662,-0.26804894,-0.24846059,-0.23153085,-0.22172135,-0.202133,-0.16653168,-0.1264382,-0.111311436,-0.12824118,-0.15583605,-0.16741788,-0.15849465,-0.15317732,-0.1647287,-0.18165845,-0.1878925,-0.1887787,-0.21105623,-0.26535976,-0.32681406,-0.36599076,-0.36953562,-0.36330158,-0.36599076,-0.3713386,-0.36152917,-0.33928216,-0.32770026,-0.33570677,-0.349061,-0.3517502,-0.34463,-0.3481748,-0.349061,-0.29295462,-0.12555194,0.15226066,0.4612435,0.7257323,0.86908495,0.8388009,0.5966202,0.15938091,-0.34463,-0.74443436,-0.9154124,-0.8601922,-0.7016822,-0.56544983,-0.48975503,-0.44434422,-0.40339506,-0.37222487,-0.3588705,-0.35529512,-0.34551615,-0.3223524,-0.30453646,-0.30187786,-0.30453646,-0.29206836,-0.26535976,-0.24934673,-0.25469464,-0.26893508,-0.26713216,-0.24577141,-0.2270692,-0.2244106,-0.22975838,-0.21906269,-0.19324028,-0.17187953,-0.17007649,-0.17365193,-0.16029763,-0.13001353,-0.10330492,-0.09349543,-0.08814764,-0.066786826,-0.027610064,0.0044463873,0.01868689,0.029382586,0.05697739,0.104191184,0.14248168,0.15760851,0.16295624,0.17985547,0.21371496,0.24042356,0.24219596,0.23150039,0.22884178,0.23684812,0.23507583,0.2074809,0.16295624,0.12466586,0.097957134,0.06409764,0.011566639,-0.04897082,-0.09529841,-0.122893274,-0.15494978,-0.20301926,-0.2537778,-0.28406185,-0.29295462,-0.30187786,-0.3259278,-0.35618126,-0.36953562,-0.36599076,-0.36687696,-0.3855791,-0.41140157,-0.41852182,-0.40339506,-0.39181322,-0.40070587,-0.41940802,-0.42298347,-0.40605372,-0.39181322,-0.39358562,-0.40159208,-0.40070587,-0.38200366,-0.36953562,-0.373111,-0.3838067,-0.37757266,-0.35352266,-0.3339343,-0.3348205,-0.34371322,-0.34194076,-0.3241248,-0.3107705,-0.31434596,-0.3259278,-0.32504165,-0.30633944,-0.2947576,-0.30453646,-0.3223524,-0.32504165,-0.30722564,-0.29564375,-0.30453646,-0.3232386,-0.33216184,-0.3232386,-0.3134597,-0.3214662,-0.33570677,-0.33570677,-0.31969374,-0.3107705,-0.3223524,-0.34105456,-0.3464024,-0.33124506,-0.31969374,-0.32681406,-0.34194076,-0.34551615,-0.33216184,-0.3232386,-0.33216184,-0.3472886,-0.34994727,-0.33570677,-0.32504165,-0.33124506,-0.34371322,-0.3365929,-0.30722564,-0.28051704,-0.2733662,-0.27871406,-0.2769416,-0.25823945,-0.2395373,-0.2270692,-0.21017003,-0.1771968,-0.13447523,-0.1130839,-0.12824118,-0.16206998,-0.18254459,-0.17988598,-0.17631054,-0.18612003,-0.20393598,-0.2137149,-0.21817654,-0.24130976,-0.29295462,-0.35529512,-0.39447182,-0.3989334,-0.39004076,-0.39092696,-0.39804727,-0.39269936,-0.37576967,-0.36421835,-0.3704524,-0.3829205,-0.3855791,-0.37576967,-0.37845892,-0.3829205,-0.33570677,-0.18165845,0.09349549,0.41140163,0.6909865,0.8486103,0.82990825,0.60105133,0.17184901,-0.3374791,-0.7604779,-0.96259564,-0.9269943,-0.7738322,-0.632252,-0.54852015,-0.49956447,-0.4532675,-0.41140157,-0.3846929,-0.3713386,-0.35440886,-0.32947266,-0.31611836,-0.32057995,-0.33124506,-0.32681406,-0.3001054,-0.27960032,-0.28140324,-0.29206836,-0.29206836,-0.2733662,-0.2537778,-0.24934673,-0.250233,-0.2395373,-0.21017003,-0.18612003,-0.17899972,-0.18434763,-0.17899972,-0.15317732,-0.12824118,-0.117545485,-0.10776657,-0.08460277,-0.04453987,-0.008907974,0.008908033,0.021376133,0.051629663,0.09972954,0.13979256,0.15137446,0.14514029,0.15048826,0.17808294,0.2065947,0.21460116,0.20567787,0.20213306,0.20925331,0.2065947,0.18165839,0.14067876,0.105077386,0.08014119,0.046312332,-0.006249249,-0.07124847,-0.12020409,-0.14694327,-0.17631054,-0.22083515,-0.26804894,-0.3001054,-0.3098843,-0.31969374,-0.3464024,-0.37845892,-0.39358562,-0.38915455,-0.3829205,-0.3953886,-0.42029423,-0.4336486,-0.42921752,-0.42475587,-0.43276232,-0.44611663,-0.44434422,-0.42652828,-0.41140157,-0.41228777,-0.42475587,-0.42564213,-0.40516746,-0.3855791,-0.38111752,-0.3829205,-0.37576967,-0.3579843,-0.3481748,-0.35529512,-0.3713386,-0.36953562,-0.3464024,-0.32681406,-0.33035886,-0.34371322,-0.34551615,-0.33216184,-0.32057995,-0.32770026,-0.3481748,-0.35529512,-0.34194076,-0.32770026,-0.33216184,-0.349061,-0.35618126,-0.3464024,-0.3348205,-0.33570677,-0.349061,-0.3579843,-0.35352266,-0.34994727,-0.35618126,-0.36510456,-0.36064297,-0.3464024,-0.33839595,-0.35263646,-0.3713386,-0.3713386,-0.35352266,-0.34105456,-0.35263646,-0.37576967,-0.3846929,-0.3704524,-0.3517502,-0.3472886,-0.3517502,-0.34463,-0.3214662,-0.3001054,-0.2947576,-0.30453646,-0.30187786,-0.27960032,-0.25646704,-0.2395373,-0.2252968,-0.19947433,-0.16206998,-0.14159548,-0.15317732,-0.18612003,-0.20748085,-0.20393598,-0.19501275,-0.202133,-0.22083515,-0.23687863,-0.24846059,-0.2733662,-0.3223524,-0.38023132,-0.41317397,-0.41140157,-0.3962748,-0.39181322,-0.39804727,-0.39447182,-0.37488347,-0.3588705,-0.36421835,-0.38111752,-0.39004076,-0.38646537,-0.3838067,-0.3713386,-0.31611836,-0.16295624,0.09349549,0.3846625,0.6259875,0.7462069,0.6981069,0.44969225,0.033844233,-0.43633777,-0.8076611,-0.9608232,-0.8940211,-0.7266184,-0.5788042,-0.49867827,-0.45415372,-0.41586316,-0.3829205,-0.36599076,-0.36776322,-0.36776322,-0.3570981,-0.34371322,-0.3374791,-0.3365929,-0.3223524,-0.29564375,-0.2769416,-0.27960032,-0.29206836,-0.29118216,-0.26893508,-0.24754375,-0.24488515,-0.2528916,-0.24754375,-0.22352433,-0.19770193,-0.18612003,-0.1878925,-0.17988598,-0.15317732,-0.12735492,-0.11488682,-0.10953897,-0.09083682,-0.054318726,-0.016028166,0.005332589,0.014255881,0.032041192,0.06590068,0.10150206,0.12109041,0.12821066,0.14425421,0.17184901,0.19678521,0.20124686,0.18877876,0.18165839,0.18700635,0.18520331,0.16207004,0.123779535,0.08726144,0.06321144,0.030268788,-0.024951458,-0.091723025,-0.14605707,-0.17453814,-0.19770193,-0.23153085,-0.27782786,-0.31611836,-0.3339343,-0.3464024,-0.36776322,-0.39358562,-0.40782613,-0.40605372,-0.40605372,-0.42029423,-0.44257182,-0.45057827,-0.43899637,-0.42475587,-0.42744505,-0.44523048,-0.4532675,-0.44079942,-0.42298347,-0.41674936,-0.42029423,-0.41586316,-0.397161,-0.38023132,-0.38111752,-0.39181322,-0.39181322,-0.3713386,-0.35086405,-0.349061,-0.36064297,-0.36152917,-0.34371322,-0.32504165,-0.3259278,-0.34282696,-0.35086405,-0.3365929,-0.3214662,-0.3232386,-0.34016836,-0.35086405,-0.34194076,-0.32770026,-0.32947266,-0.34282696,-0.349061,-0.33839595,-0.32858646,-0.3348205,-0.35440886,-0.3624153,-0.35086405,-0.33570677,-0.3365929,-0.3517502,-0.3579843,-0.3481748,-0.3348205,-0.33570677,-0.349061,-0.35529512,-0.3472886,-0.34282696,-0.35086405,-0.36953562,-0.36864942,-0.34463,-0.31789076,-0.30722564,-0.3098843,-0.30722564,-0.29206836,-0.2760554,-0.27247995,-0.26804894,-0.24222648,-0.19678515,-0.15760839,-0.15048814,-0.17187953,-0.18966484,-0.1887787,-0.18434763,-0.1905511,-0.20836705,-0.21906269,-0.21817654,-0.22975838,-0.26893508,-0.32858646,-0.37668645,-0.39358562,-0.39181322,-0.39004076,-0.39447182,-0.38915455,-0.36953562,-0.35352266,-0.3579843,-0.3739972,-0.37668645,-0.36152917,-0.3517502,-0.36421835,-0.36953562,-0.30633944,-0.13536143,0.123779535,0.39893353,0.62775993,0.75598574,0.72927713,0.49241388,0.06590068,-0.41586316,-0.7818387,-0.9225327,-0.8575336,-0.70791626,-0.5796904,-0.49779207,-0.44168556,-0.40159208,-0.38023132,-0.37222487,-0.36152917,-0.33928216,-0.31880754,-0.31611836,-0.32504165,-0.32681406,-0.3107705,-0.2894097,-0.28317565,-0.29118216,-0.2894097,-0.26893508,-0.24577141,-0.23865104,-0.24665755,-0.24934673,-0.23241699,-0.21017003,-0.19947433,-0.19947433,-0.18966484,-0.16206998,-0.13267225,-0.12020409,-0.12020409,-0.10865271,-0.07390708,-0.03830582,-0.01780063,-0.0115971565,0.006218791,0.04985714,0.098843336,0.12909687,0.13802016,0.14960194,0.17542434,0.20213306,0.21102571,0.20567787,0.20390546,0.21637356,0.22795546,0.21102571,0.16738737,0.122862816,0.09260929,0.06321144,0.01868689,-0.041850626,-0.097957075,-0.13447523,-0.16295624,-0.2012468,-0.24846059,-0.28583425,-0.30365026,-0.31434596,-0.3374791,-0.3704524,-0.39092696,-0.39004076,-0.38200366,-0.38915455,-0.4096291,-0.4220972,-0.41674936,-0.40782613,-0.41317397,-0.43276232,-0.44079942,-0.42921752,-0.41228777,-0.41051537,-0.42386967,-0.42652828,-0.41051537,-0.39004076,-0.3846929,-0.3953886,-0.3962748,-0.37668645,-0.349061,-0.33928216,-0.349061,-0.35529512,-0.3481748,-0.3365929,-0.3365929,-0.349061,-0.349061,-0.33216184,-0.3125735,-0.3098843,-0.32681406,-0.33928216,-0.33035886,-0.31611836,-0.31700456,-0.33124506,-0.33839595,-0.32947266,-0.31700456,-0.31523216,-0.32858646,-0.33928216,-0.3339343,-0.32770026,-0.3339343,-0.349061,-0.35263646,-0.33928216,-0.32504165,-0.33124506,-0.35352266,-0.36510456,-0.35263646,-0.3339343,-0.32947266,-0.34371322,-0.35440886,-0.3464024,-0.33124506,-0.33035886,-0.34463,-0.35086405,-0.33839595,-0.31611836,-0.30542266,-0.30542266,-0.29918867,-0.27960032,-0.25735325,-0.2511192,-0.25646704,-0.24577141,-0.20570838,-0.16029763,-0.14425409,-0.15672219,-0.17365193,-0.17631054,-0.16741788,-0.16741788,-0.18434763,-0.19412649,-0.18700624,-0.18254459,-0.20748085,-0.26181483,-0.31969374,-0.3579843,-0.37576967,-0.38915455,-0.40428132,-0.40516746,-0.38823777,-0.36776322,-0.36421835,-0.37668645,-0.38111752,-0.36776322,-0.35618126,-0.3704524,-0.40250885,-0.3962748,-0.29918867,-0.09260929,0.18608963,0.46747756,0.71592283,0.8503828,0.7987379,0.5128882,0.042736888,-0.44703346,-0.7934206,-0.91452616,-0.8494965,-0.7088025,-0.5761455,-0.48174858,-0.42475587,-0.39981967,-0.39358562,-0.38111752,-0.35352266,-0.32858646,-0.32057995,-0.32858646,-0.33035886,-0.31523216,-0.29564375,-0.2894097,-0.2974162,-0.29652995,-0.2769416,-0.2511192,-0.24130976,-0.24754375,-0.24665755,-0.22618294,-0.2012468,-0.19235414,-0.19858819,-0.19770193,-0.17811358,-0.15048814,-0.13624758,-0.13536143,-0.122893274,-0.08906436,-0.04453987,-0.018717349,-0.012483299,-0.00090146065,0.029382586,0.071218014,0.10238814,0.115742564,0.13178611,0.16115332,0.19320977,0.21102571,0.21102571,0.21282876,0.22884178,0.24130988,0.23330331,0.20301926,0.17362142,0.15583599,0.13890624,0.103274465,0.04362309,-0.01336956,-0.05609119,-0.091723025,-0.13713384,-0.19146788,-0.23418945,-0.2528916,-0.2644735,-0.2902959,-0.33216184,-0.36510456,-0.3739972,-0.36864942,-0.37488347,-0.39447182,-0.40693992,-0.3989334,-0.38823777,-0.39358562,-0.41763562,-0.43633777,-0.43098992,-0.414977,-0.4096291,-0.41940802,-0.42475587,-0.41140157,-0.39181322,-0.3846929,-0.39181322,-0.39181322,-0.37576967,-0.35440886,-0.349061,-0.3597567,-0.36421835,-0.34994727,-0.32947266,-0.3259278,-0.34105456,-0.35263646,-0.34371322,-0.3259278,-0.31969374,-0.33035886,-0.33839595,-0.32947266,-0.31523216,-0.3107705,-0.32504165,-0.33570677,-0.33216184,-0.3223524,-0.3241248,-0.3374791,-0.34194076,-0.33124506,-0.31969374,-0.32504165,-0.3481748,-0.36064297,-0.3481748,-0.3259278,-0.32057995,-0.3365929,-0.35086405,-0.3481748,-0.3348205,-0.3330481,-0.3472886,-0.35529512,-0.3464024,-0.32858646,-0.32504165,-0.3374791,-0.3481748,-0.3464024,-0.33570677,-0.3365929,-0.34551615,-0.34016836,-0.31434596,-0.28140324,-0.2662459,-0.274283,-0.27960032,-0.2644735,-0.23599243,-0.20393598,-0.18254459,-0.16295624,-0.1389063,-0.1264382,-0.14248163,-0.17453814,-0.19235414,-0.18254459,-0.16653168,-0.1647287,-0.1887787,-0.21729028,-0.23865104,-0.26181483,-0.30453646,-0.36152917,-0.40159208,-0.40250885,-0.3846929,-0.37668645,-0.3846929,-0.39181322,-0.38111752,-0.3588705,-0.349061,-0.35529512,-0.36330158,-0.36864942,-0.36510456,-0.34016836,-0.25823945,-0.06590068,0.22260773,0.53962755,0.7862698,0.86997116,0.7524409,0.42741466,-0.03830582,-0.5102296,-0.8468379,-0.95189995,-0.85395813,-0.6758598,-0.5369688,-0.47551447,-0.44880587,-0.42029423,-0.38646537,-0.36510456,-0.36330158,-0.36330158,-0.3464024,-0.31969374,-0.30722564,-0.31434596,-0.31789076,-0.30365026,-0.28051704,-0.27247995,-0.27871406,-0.27960032,-0.2591257,-0.23064464,-0.21906269,-0.22884166,-0.23865104,-0.2252968,-0.19858819,-0.18434763,-0.18523377,-0.18254459,-0.15849465,-0.11843169,-0.09083682,-0.08194417,-0.07036221,-0.041850626,-0.0053631067,0.017800689,0.02492094,0.041850686,0.07836878,0.12109041,0.14871573,0.14871573,0.15137446,0.17453825,0.2065947,0.219949,0.20836711,0.19143736,0.18608963,0.18789256,0.17273521,0.13267219,0.08814776,0.055204988,0.026693344,-0.016028166,-0.07748252,-0.13089979,-0.1647287,-0.1878925,-0.22263813,-0.27516913,-0.31969374,-0.33570677,-0.3374791,-0.3481748,-0.373111,-0.3953886,-0.39981967,-0.39358562,-0.40428132,-0.43098992,-0.44611663,-0.43988264,-0.4220972,-0.41852182,-0.43722397,-0.44880587,-0.43811017,-0.41317397,-0.39981967,-0.40516746,-0.41140157,-0.40070587,-0.38111752,-0.37222487,-0.37934506,-0.3846929,-0.37222487,-0.35618126,-0.35352266,-0.36421835,-0.36421835,-0.3472886,-0.3241248,-0.3214662,-0.34194076,-0.3570981,-0.34994727,-0.32681406,-0.31700456,-0.32770026,-0.34016836,-0.33928216,-0.32858646,-0.33035886,-0.3464024,-0.35529512,-0.349061,-0.33216184,-0.33035886,-0.3472886,-0.3597567,-0.3517502,-0.33124506,-0.3259278,-0.34371322,-0.36152917,-0.3624153,-0.34994727,-0.3472886,-0.3570981,-0.36330158,-0.35352266,-0.3374791,-0.3374791,-0.35618126,-0.3713386,-0.36421835,-0.34282696,-0.32858646,-0.33124506,-0.33216184,-0.31611836,-0.29295462,-0.2867511,-0.3001054,-0.30542266,-0.28406185,-0.2404235,-0.2012468,-0.18165845,-0.17453814,-0.1647287,-0.15760839,-0.16741788,-0.1905511,-0.20482212,-0.2012468,-0.18700624,-0.19235414,-0.2270692,-0.26982135,-0.30633944,-0.33124506,-0.36687696,-0.4096291,-0.43187618,-0.42386967,-0.39804727,-0.3829205,-0.38646537,-0.39092696,-0.37934506,-0.3579843,-0.3481748,-0.36064297,-0.37668645,-0.3713386,-0.3223524,-0.21817654,-0.043653607,0.19678521,0.4603573,0.6740875,0.7515546,0.62775993,0.3116567,-0.11931783,-0.5342796,-0.8210155,-0.9162986,-0.8361422,-0.6740874,-0.5245007,-0.44079942,-0.4096291,-0.39181322,-0.36330158,-0.3259278,-0.30542266,-0.3125735,-0.31880754,-0.30899805,-0.2876373,-0.27782786,-0.2867511,-0.29295462,-0.27960032,-0.25469464,-0.24130976,-0.24665755,-0.2537778,-0.24577141,-0.22352433,-0.21017003,-0.21105623,-0.21017003,-0.19412649,-0.16653168,-0.14782953,-0.14425409,-0.14070922,-0.12112087,-0.08995062,-0.06855929,-0.060552776,-0.047198474,-0.01780063,0.023148537,0.054318786,0.06944549,0.08637524,0.12020409,0.15938091,0.17985547,0.17896926,0.17542434,0.18789256,0.21371496,0.22618306,0.2190628,0.2074809,0.20036066,0.18877876,0.15137446,0.089920044,0.026693344,-0.01960361,-0.05077386,-0.091723025,-0.14871573,-0.19858819,-0.22884166,-0.24577141,-0.2733662,-0.31700456,-0.3570981,-0.373111,-0.36864942,-0.3739972,-0.3953886,-0.41586316,-0.41940802,-0.41140157,-0.41586316,-0.4354515,-0.45415372,-0.45235068,-0.4336486,-0.42386967,-0.43098992,-0.43722397,-0.43010372,-0.4096291,-0.40070587,-0.40693992,-0.41140157,-0.39981967,-0.37757266,-0.36864942,-0.37934506,-0.3855791,-0.3704524,-0.34194076,-0.3259278,-0.3348205,-0.3481748,-0.3472886,-0.3330481,-0.3241248,-0.3330481,-0.34282696,-0.3365929,-0.3214662,-0.31880754,-0.3339343,-0.34994727,-0.3481748,-0.33124506,-0.31880754,-0.32681406,-0.33839595,-0.33928216,-0.3330481,-0.33570677,-0.34994727,-0.3588705,-0.35086405,-0.3339343,-0.33035886,-0.34463,-0.3588705,-0.3517502,-0.3339343,-0.33124506,-0.3481748,-0.36776322,-0.36776322,-0.35086405,-0.33928216,-0.3464024,-0.3579843,-0.349061,-0.32947266,-0.31969374,-0.3259278,-0.33124506,-0.31880754,-0.29206836,-0.2769416,-0.28140324,-0.2849481,-0.26181483,-0.21548724,-0.17988598,-0.16653168,-0.16564542,-0.15760839,-0.14605707,-0.15048814,-0.17453814,-0.19947433,-0.20393598,-0.1887787,-0.18523377,-0.21105623,-0.2511192,-0.28852355,-0.3223524,-0.35618126,-0.39447182,-0.414977,-0.40693992,-0.37845892,-0.3588705,-0.3597567,-0.36599076,-0.3597567,-0.34105456,-0.3365929,-0.3588705,-0.38823777,-0.38111752,-0.3001054,-0.13358897,0.111311436,0.3953581,0.6705121,0.84414864,0.82724965,0.5752288,0.14067876,-0.32947266,-0.69456196,-0.87623566,-0.8735465,-0.75513005,-0.6090882,-0.49421668,-0.43098992,-0.4096291,-0.39804727,-0.37222487,-0.33839595,-0.3223524,-0.32681406,-0.3330481,-0.3241248,-0.2983024,-0.28051704,-0.28051704,-0.28140324,-0.2715938,-0.25469464,-0.24846059,-0.25558078,-0.25646704,-0.2395373,-0.21282864,-0.19589889,-0.19858819,-0.2012468,-0.18700624,-0.15941137,-0.14070922,-0.13536143,-0.12555194,-0.10330492,-0.07036221,-0.04897082,-0.04542607,-0.037419558,-0.0071355104,0.039161563,0.07567966,0.09349549,0.10684979,0.13444471,0.17273521,0.19767141,0.20213306,0.20124686,0.21102571,0.23150039,0.24130988,0.22529685,0.20124686,0.18254471,0.16830409,0.13979256,0.09349549,0.040964484,-0.00090146065,-0.03295791,-0.07571006,-0.13178599,-0.18612003,-0.22083515,-0.2377649,-0.26270103,-0.3001054,-0.33216184,-0.3472886,-0.34463,-0.35086405,-0.37222487,-0.39269936,-0.39358562,-0.37934506,-0.37668645,-0.39269936,-0.41051537,-0.41317397,-0.40070587,-0.3962748,-0.4087429,-0.41940802,-0.41051537,-0.38646537,-0.36776322,-0.37222487,-0.38023132,-0.37576967,-0.3597567,-0.34994727,-0.35440886,-0.3597567,-0.349061,-0.32681406,-0.31611836,-0.3241248,-0.3339343,-0.32681406,-0.30542266,-0.2947576,-0.30453646,-0.31523216,-0.31434596,-0.30099165,-0.2947576,-0.30633944,-0.31789076,-0.3116567,-0.29295462,-0.2867511,-0.3001054,-0.31880754,-0.3223524,-0.30899805,-0.30453646,-0.31523216,-0.32770026,-0.3232386,-0.30542266,-0.29918867,-0.3107705,-0.32681406,-0.32770026,-0.3098843,-0.2974162,-0.30542266,-0.31523216,-0.3125735,-0.29918867,-0.2947576,-0.30899805,-0.3241248,-0.3223524,-0.30365026,-0.29206836,-0.30187786,-0.31611836,-0.3134597,-0.29118216,-0.2715938,-0.2644735,-0.26001185,-0.24488515,-0.21994895,-0.20925331,-0.21282864,-0.20836705,-0.17899972,-0.13178599,-0.10153252,-0.10153252,-0.117545485,-0.12735492,-0.1264382,-0.13089979,-0.149602,-0.1647287,-0.16206998,-0.15137434,-0.16206998,-0.20570838,-0.2608981,-0.30542266,-0.32770026,-0.34371322,-0.36152917,-0.36776322,-0.35263646,-0.32681406,-0.31523216,-0.3259278,-0.34194076,-0.3374791,-0.31969374,-0.31700456,-0.34105456,-0.349061,-0.28051704,-0.10061574,0.16738737,0.4585848,0.72038436,0.87889445,0.8646234,0.61709464,0.16384256,-0.34282696,-0.72842145,-0.88690084,-0.8397176,-0.7016822,-0.5672223,-0.47285587,-0.4096291,-0.3713386,-0.35263646,-0.33928216,-0.31789076,-0.2947576,-0.28583425,-0.29295462,-0.29918867,-0.2867511,-0.25823945,-0.2395373,-0.24399894,-0.2537778,-0.24577141,-0.21906269,-0.202133,-0.20482212,-0.21105623,-0.20393598,-0.17899972,-0.16206998,-0.16384244,-0.16830409,-0.15583605,-0.12555194,-0.10330492,-0.09618467,-0.09260929,-0.072134614,-0.034730375,-0.006249249,0.006218791,0.019573092,0.048084736,0.091723084,0.12555194,0.13890624,0.14602661,0.16830409,0.20390546,0.22529685,0.22795546,0.22618306,0.23507583,0.25377786,0.2582395,0.23596191,0.20479167,0.18608963,0.17273521,0.14156497,0.083685994,0.016914487,-0.030268729,-0.058780372,-0.09438169,-0.14605707,-0.2012468,-0.23599243,-0.24846059,-0.2608981,-0.28852355,-0.3223524,-0.33928216,-0.34105456,-0.3472886,-0.36687696,-0.38646537,-0.38915455,-0.37576967,-0.36687696,-0.37845892,-0.3962748,-0.40159208,-0.39181322,-0.3846929,-0.39092696,-0.397161,-0.38646537,-0.3624153,-0.34994727,-0.3570981,-0.36864942,-0.3624153,-0.33570677,-0.31523216,-0.31434596,-0.32057995,-0.31434596,-0.29387134,-0.28140324,-0.2867511,-0.2974162,-0.29387134,-0.2733662,-0.2644735,-0.2769416,-0.29564375,-0.29652995,-0.2822895,-0.274283,-0.28583425,-0.30187786,-0.302764,-0.28583425,-0.27782786,-0.28583425,-0.30187786,-0.30542266,-0.29295462,-0.29118216,-0.30722564,-0.3241248,-0.3259278,-0.3107705,-0.302764,-0.31700456,-0.33124506,-0.32858646,-0.30899805,-0.2947576,-0.30187786,-0.31880754,-0.3223524,-0.3107705,-0.30633944,-0.31789076,-0.33216184,-0.32947266,-0.30899805,-0.29206836,-0.29118216,-0.29564375,-0.2876373,-0.26713216,-0.25646704,-0.26270103,-0.26804894,-0.2511192,-0.20482212,-0.16118383,-0.14070922,-0.13536143,-0.13178599,-0.12735492,-0.13447523,-0.15672219,-0.17988598,-0.18434763,-0.17007649,-0.16384244,-0.1878925,-0.23153085,-0.2760554,-0.3107705,-0.3472886,-0.3829205,-0.40070587,-0.39447182,-0.36953562,-0.3517502,-0.3570981,-0.36687696,-0.36152917,-0.34016836,-0.32770026,-0.34016836,-0.36421835,-0.36864942,-0.31700456,-0.2012468,-0.0106803775,0.24308217,0.5218116,0.7470931,0.8219018,0.67674613,0.31611836,-0.15229112,-0.5788042,-0.85395813,-0.9278805,-0.835256,-0.67054254,-0.5218115,-0.43988264,-0.414977,-0.4096291,-0.38823777,-0.3481748,-0.31969374,-0.31523216,-0.32057995,-0.31523216,-0.29387134,-0.28051704,-0.2876373,-0.29564375,-0.2876373,-0.2635873,-0.24577141,-0.24665755,-0.2537778,-0.24488515,-0.21817654,-0.20036054,-0.2012468,-0.20659459,-0.19589889,-0.16830409,-0.14605707,-0.14070922,-0.1389063,-0.12020409,-0.079254985,-0.04542607,-0.03295791,-0.026723862,-0.0071355104,0.030268788,0.066786885,0.08726144,0.10061586,0.12466586,0.16384256,0.19143736,0.19855773,0.19855773,0.2065947,0.22618306,0.2324171,0.21371496,0.18520331,0.17273521,0.17453825,0.15938091,0.115742564,0.05609119,0.0026739836,-0.03207177,-0.06855929,-0.11931783,-0.1754244,-0.2137149,-0.23418945,-0.25558078,-0.29295462,-0.33216184,-0.35263646,-0.35440886,-0.36064297,-0.38111752,-0.40516746,-0.41586316,-0.40693992,-0.40250885,-0.41763562,-0.43899637,-0.44345802,-0.43010372,-0.42029423,-0.42298347,-0.4336486,-0.42921752,-0.41051537,-0.39981967,-0.40516746,-0.414977,-0.40782613,-0.3829205,-0.36421835,-0.36599076,-0.37668645,-0.3739972,-0.3570981,-0.3464024,-0.35263646,-0.36152917,-0.35086405,-0.3259278,-0.3116567,-0.3241248,-0.34994727,-0.3579843,-0.34282696,-0.32858646,-0.3348205,-0.3517502,-0.3570981,-0.34463,-0.3348205,-0.34371322,-0.3588705,-0.36152917,-0.349061,-0.34016836,-0.3472886,-0.36510456,-0.36864942,-0.35618126,-0.3481748,-0.35618126,-0.3704524,-0.3704524,-0.35352266,-0.34371322,-0.35618126,-0.37488347,-0.37757266,-0.3588705,-0.34016836,-0.33839595,-0.3464024,-0.34371322,-0.32057995,-0.30187786,-0.30365026,-0.3134597,-0.30722564,-0.2769416,-0.24222648,-0.21906269,-0.20836705,-0.19501275,-0.1754244,-0.17007649,-0.18700624,-0.21105623,-0.21640408,-0.20393598,-0.19589889,-0.21017003,-0.24665755,-0.28140324,-0.30542266,-0.3365929,-0.37934506,-0.41674936,-0.42652828,-0.40782613,-0.39004076,-0.38735157,-0.3953886,-0.39447182,-0.37576967,-0.36152917,-0.36599076,-0.38200366,-0.39181322,-0.37222487,-0.3134597,-0.19589889,0.006218791,0.27159393,0.5476341,0.7390865,0.7604475,0.56988096,0.19767141,-0.2528916,-0.6518404,-0.8904762,-0.9216465,-0.7969655,-0.6269042,-0.50399554,-0.45146453,-0.43276232,-0.41140157,-0.373111,-0.34016836,-0.3348205,-0.34282696,-0.34105456,-0.3223524,-0.30722564,-0.30633944,-0.3125735,-0.3081119,-0.2876373,-0.27247995,-0.27516913,-0.28140324,-0.27070755,-0.24222648,-0.21994895,-0.21817654,-0.2252968,-0.22083515,-0.19947433,-0.17899972,-0.17276567,-0.17007649,-0.15137434,-0.11488682,-0.08460277,-0.07479334,-0.07036221,-0.04897082,-0.008907974,0.027610183,0.046312332,0.053432584,0.07479334,0.11397016,0.14779902,0.16115332,0.16384256,0.17453825,0.19767141,0.21102571,0.20301926,0.18254471,0.16830409,0.16472876,0.14960194,0.10862231,0.054318786,0.008908033,-0.022262275,-0.058780372,-0.11400062,-0.1754244,-0.22263813,-0.24934673,-0.274283,-0.30899805,-0.3481748,-0.3704524,-0.373111,-0.37934506,-0.3989334,-0.42298347,-0.43010372,-0.41940802,-0.41406018,-0.42921752,-0.45235068,-0.46304637,-0.45415372,-0.44523048,-0.44880587,-0.45503992,-0.44611663,-0.42386967,-0.4096291,-0.41763562,-0.4354515,-0.43456537,-0.41140157,-0.38915455,-0.38735157,-0.3962748,-0.39269936,-0.37222487,-0.3588705,-0.3624153,-0.37488347,-0.373111,-0.3517502,-0.3330481,-0.33570677,-0.3472886,-0.34463,-0.33124506,-0.32504165,-0.33928216,-0.36152917,-0.36510456,-0.3464024,-0.33124506,-0.33839595,-0.3570981,-0.36421835,-0.35352266,-0.34371322,-0.34994727,-0.36687696,-0.36864942,-0.35440886,-0.34371322,-0.3481748,-0.36152917,-0.36776322,-0.35618126,-0.35086405,-0.3597567,-0.37488347,-0.37576967,-0.3624153,-0.35263646,-0.3588705,-0.3713386,-0.36864942,-0.35352266,-0.34371322,-0.35529512,-0.37222487,-0.36953562,-0.34105456,-0.3098843,-0.2974162,-0.29918867,-0.2947576,-0.2822895,-0.2733662,-0.27247995,-0.26535976,-0.23241699,-0.18254459,-0.149602,-0.15137434,-0.17811358,-0.19858819,-0.19501275,-0.18966484,-0.19858819,-0.21105623,-0.2137149,-0.20659459,-0.21729028,-0.2635873,-0.33035886,-0.3829205,-0.40428132,-0.4087429,-0.41586316,-0.42298347,-0.41763562,-0.3962748,-0.38023132,-0.3846929,-0.39981967,-0.40159208,-0.38915455,-0.38735157,-0.40250885,-0.39447182,-0.302764,-0.08906436,0.20213306,0.49598908,0.7275046,0.8254465,0.7390865,0.42652833,-0.053432524,-0.53874123,-0.86465377,-0.94924134,-0.85395813,-0.70437145,-0.5930447,-0.52627313,-0.47551447,-0.43811017,-0.41763562,-0.40428132,-0.38735157,-0.36953562,-0.3570981,-0.36064297,-0.36864942,-0.3570981,-0.3259278,-0.302764,-0.302764,-0.31700456,-0.31789076,-0.29652995,-0.274283,-0.27070755,-0.27871406,-0.2769416,-0.25646704,-0.23599243,-0.22975838,-0.23330325,-0.22352433,-0.19235414,-0.16118383,-0.149602,-0.14782953,-0.13358897,-0.10153252,-0.06767303,-0.04897082,-0.040964425,-0.021376073,0.020459294,0.061439037,0.08191371,0.089920044,0.10684979,0.13802016,0.16738737,0.17362142,0.16384256,0.16384256,0.17719686,0.18789256,0.17453825,0.13979256,0.10862231,0.089920044,0.06409764,0.016028285,-0.048084676,-0.104191124,-0.13982302,-0.17365193,-0.22083515,-0.274283,-0.31434596,-0.32770026,-0.3374791,-0.36152917,-0.39447182,-0.41317397,-0.41140157,-0.40693992,-0.41940802,-0.44257182,-0.45592612,-0.44880587,-0.43988264,-0.44523048,-0.46216017,-0.46839428,-0.45415372,-0.43811017,-0.4354515,-0.44434422,-0.44345802,-0.42744505,-0.41228777,-0.41317397,-0.42298347,-0.41940802,-0.40070587,-0.3829205,-0.38200366,-0.39447182,-0.39269936,-0.373111,-0.3597567,-0.36421835,-0.37934506,-0.3838067,-0.36776322,-0.3517502,-0.35352266,-0.36687696,-0.36599076,-0.349061,-0.3374791,-0.34551615,-0.36776322,-0.37488347,-0.36064297,-0.3472886,-0.35263646,-0.36687696,-0.36953562,-0.3579843,-0.3517502,-0.36599076,-0.39092696,-0.39804727,-0.37934506,-0.3597567,-0.36152917,-0.37668645,-0.3829205,-0.37222487,-0.36152917,-0.36776322,-0.38646537,-0.39269936,-0.37845892,-0.36687696,-0.37222487,-0.38646537,-0.3846929,-0.36599076,-0.35086405,-0.3579843,-0.37934506,-0.3846929,-0.3588705,-0.3241248,-0.30453646,-0.30453646,-0.30187786,-0.2894097,-0.27782786,-0.27070755,-0.25646704,-0.22083515,-0.17453814,-0.14694327,-0.15849465,-0.19412649,-0.2146011,-0.20925331,-0.19858819,-0.20393598,-0.22172135,-0.23330325,-0.23418945,-0.250233,-0.29387134,-0.3570981,-0.40516746,-0.42121106,-0.41940802,-0.42121106,-0.42921752,-0.42652828,-0.40605372,-0.38735157,-0.38646537,-0.39447182,-0.39358562,-0.3846929,-0.3829205,-0.39004076,-0.36599076,-0.24934673,-0.016914427,0.27782798,0.55741286,0.7444345,0.7880422,0.6366831,0.26979077,-0.2279554,-0.6892141,-0.9545891,-0.9670573,-0.8183568,-0.6527266,-0.55209553,-0.50133693,-0.46393263,-0.43010372,-0.4087429,-0.39981967,-0.38915455,-0.36687696,-0.3481748,-0.34551615,-0.35263646,-0.349061,-0.32770026,-0.30633944,-0.302764,-0.3125735,-0.3098843,-0.2867511,-0.2644735,-0.25823945,-0.26270103,-0.25735325,-0.23599243,-0.2137149,-0.20659459,-0.20925331,-0.20036054,-0.16919035,-0.13802004,-0.12466574,-0.123779535,-0.11219764,-0.08194417,-0.046312213,-0.022262275,-0.0115971565,0.009794235,0.05074334,0.090806365,0.11397016,0.122862816,0.13713396,0.16384256,0.18789256,0.19055116,0.17631066,0.17184901,0.18254471,0.18966496,0.17719686,0.14156497,0.10773611,0.08460283,0.055204988,0.007104993,-0.05609119,-0.10776657,-0.13802004,-0.16564542,-0.20570838,-0.25469464,-0.2902959,-0.30453646,-0.31523216,-0.33839595,-0.373111,-0.39447182,-0.39181322,-0.3846929,-0.39447182,-0.41763562,-0.43276232,-0.4336486,-0.43187618,-0.43722397,-0.45057827,-0.44703346,-0.4220972,-0.39981967,-0.3989334,-0.41406018,-0.41763562,-0.40159208,-0.38200366,-0.37845892,-0.38823777,-0.38823777,-0.36953562,-0.34994727,-0.3464024,-0.3597567,-0.36599076,-0.35440886,-0.33928216,-0.34016836,-0.35086405,-0.35263646,-0.3348205,-0.31969374,-0.3223524,-0.34016836,-0.35086405,-0.34371322,-0.3330481,-0.3365929,-0.35086405,-0.35529512,-0.34105456,-0.32681406,-0.33124506,-0.349061,-0.36152917,-0.3570981,-0.349061,-0.35352266,-0.36687696,-0.36599076,-0.35086405,-0.33570677,-0.34016836,-0.3588705,-0.36687696,-0.3570981,-0.34282696,-0.34371322,-0.3570981,-0.3597567,-0.3472886,-0.33570677,-0.34016836,-0.3570981,-0.3597567,-0.34016836,-0.31611836,-0.30899805,-0.31700456,-0.31523216,-0.29652995,-0.27516913,-0.26804894,-0.26893508,-0.24754375,-0.19947433,-0.15672219,-0.14694327,-0.16830409,-0.19146788,-0.19412649,-0.18700624,-0.19146788,-0.20748085,-0.2119425,-0.202133,-0.20570838,-0.2395373,-0.3001054,-0.35618126,-0.38200366,-0.38823777,-0.3953886,-0.40693992,-0.40516746,-0.3846929,-0.36510456,-0.3624153,-0.37576967,-0.37934506,-0.3624153,-0.349061,-0.3570981,-0.36687696,-0.32504165,-0.1878925,0.036502838,0.28940976,0.5218116,0.6829802,0.7230431,0.5707978,0.21191192,-0.2608981,-0.6749736,-0.8984827,-0.90471673,-0.77826333,-0.6340245,-0.5226977,-0.44791967,-0.40339506,-0.38735157,-0.3855791,-0.3739972,-0.34551615,-0.31880754,-0.3125735,-0.3214662,-0.3241248,-0.3107705,-0.29118216,-0.2876373,-0.2974162,-0.29564375,-0.2760554,-0.2537778,-0.24754375,-0.2528916,-0.250233,-0.2279554,-0.202133,-0.19678515,-0.20301926,-0.19589889,-0.16564542,-0.12912732,-0.111311436,-0.111311436,-0.10684979,-0.08283031,-0.05077386,-0.029382467,-0.01780063,0.0017876625,0.03827524,0.07656574,0.097957134,0.10596359,0.12109041,0.15314686,0.18608963,0.19855773,0.19501281,0.19501281,0.20390546,0.20836711,0.19055116,0.1549499,0.12555194,0.11219764,0.090806365,0.046312332,-0.020489812,-0.08014113,-0.11577308,-0.14514035,-0.18523377,-0.23507571,-0.27516913,-0.29387134,-0.30542266,-0.32858646,-0.36421835,-0.38646537,-0.39269936,-0.39269936,-0.40428132,-0.42833126,-0.44257182,-0.4354515,-0.42652828,-0.43276232,-0.45146453,-0.4585848,-0.44611663,-0.42833126,-0.42744505,-0.43988264,-0.44168556,-0.42298347,-0.39981967,-0.39269936,-0.39981967,-0.39804727,-0.38111752,-0.36330158,-0.36330158,-0.38023132,-0.38735157,-0.37222487,-0.35263646,-0.3481748,-0.3579843,-0.3597567,-0.34551615,-0.32858646,-0.33035886,-0.3464024,-0.35618126,-0.34551615,-0.33035886,-0.33035886,-0.34551615,-0.35440886,-0.3481748,-0.33839595,-0.34551615,-0.36510456,-0.373111,-0.36152917,-0.34551615,-0.3472886,-0.36510456,-0.37488347,-0.36152917,-0.34551615,-0.349061,-0.36687696,-0.37668645,-0.36421835,-0.3472886,-0.34551615,-0.3597567,-0.36776322,-0.3570981,-0.34371322,-0.3481748,-0.36776322,-0.37668645,-0.36330158,-0.34371322,-0.33928216,-0.34994727,-0.3481748,-0.3259278,-0.2974162,-0.2876373,-0.29918867,-0.30453646,-0.28583425,-0.2537778,-0.2244106,-0.20393598,-0.18165845,-0.15494978,-0.14159548,-0.15583605,-0.18966484,-0.21017003,-0.20482212,-0.1887787,-0.1887787,-0.21017003,-0.23330325,-0.25200546,-0.27871406,-0.3232386,-0.37934506,-0.41228777,-0.40693992,-0.38823777,-0.38111752,-0.38915455,-0.39358562,-0.37757266,-0.35529512,-0.34994727,-0.36510456,-0.38200366,-0.39004076,-0.37845892,-0.3241248,-0.19501275,0.040078282,0.34282708,0.6349106,0.8129784,0.80319965,0.5859245,0.18966496,-0.27960032,-0.69013095,-0.9207602,-0.9251914,-0.7791495,-0.6108607,-0.507571,-0.46750802,-0.44611663,-0.41228777,-0.3739972,-0.35263646,-0.35529512,-0.35440886,-0.3365929,-0.31434596,-0.30633944,-0.3134597,-0.31434596,-0.29564375,-0.27070755,-0.2608981,-0.26713216,-0.26804894,-0.250233,-0.2279554,-0.21817654,-0.22263813,-0.22352433,-0.20748085,-0.1887787,-0.18165845,-0.18343079,-0.17096275,-0.13802004,-0.09972948,-0.079254985,-0.07390708,-0.059666634,-0.02583772,0.013339043,0.035616636,0.042736888,0.05697739,0.090806365,0.13444471,0.16115332,0.16561496,0.17184901,0.19055116,0.21102571,0.21637356,0.20301926,0.19143736,0.1941266,0.1941266,0.17184901,0.12643814,0.08014119,0.048084736,0.020459294,-0.022262275,-0.08194417,-0.13358897,-0.16384244,-0.18966484,-0.22975838,-0.28406185,-0.32504165,-0.3374791,-0.33570677,-0.34463,-0.36953562,-0.38646537,-0.38646537,-0.37845892,-0.38735157,-0.41140157,-0.42386967,-0.41674936,-0.40250885,-0.40250885,-0.41763562,-0.42564213,-0.41140157,-0.39447182,-0.39447182,-0.41140157,-0.41674936,-0.39804727,-0.3704524,-0.3597567,-0.36864942,-0.37488347,-0.36330158,-0.34282696,-0.3339343,-0.33839595,-0.3374791,-0.3223524,-0.30633944,-0.30899805,-0.3241248,-0.32947266,-0.31789076,-0.302764,-0.302764,-0.3214662,-0.32947266,-0.31789076,-0.302764,-0.30542266,-0.32504165,-0.3374791,-0.32858646,-0.3098843,-0.3081119,-0.31969374,-0.32770026,-0.32057995,-0.3081119,-0.3134597,-0.33035886,-0.33839595,-0.32770026,-0.3107705,-0.3107705,-0.32858646,-0.33928216,-0.32947266,-0.31523216,-0.31700456,-0.3339343,-0.34282696,-0.33124506,-0.3134597,-0.3098843,-0.3241248,-0.33035886,-0.32057995,-0.30187786,-0.29387134,-0.30187786,-0.2983024,-0.2715938,-0.24311268,-0.23330325,-0.24665755,-0.25469464,-0.23330325,-0.1878925,-0.14871573,-0.13178599,-0.12466574,-0.116659224,-0.11488682,-0.13178599,-0.16029763,-0.17811358,-0.17453814,-0.15849465,-0.15672219,-0.17811358,-0.20659459,-0.23241699,-0.2591257,-0.2974162,-0.34282696,-0.36953562,-0.36776322,-0.35440886,-0.3517502,-0.3588705,-0.35529512,-0.3330481,-0.3081119,-0.30633944,-0.33035886,-0.35618126,-0.35440886,-0.302764,-0.17988598,0.025807142,0.3080814,0.6152917,0.85395825,0.9153819,0.7524409,0.37754214,-0.10330492,-0.5422861,-0.8263633,-0.8967103,-0.79161763,-0.6224426,-0.48798263,-0.42564213,-0.40782613,-0.38915455,-0.34994727,-0.3116567,-0.3001054,-0.31434596,-0.3223524,-0.30542266,-0.2760554,-0.2591257,-0.2591257,-0.25646704,-0.24311268,-0.2252968,-0.22263813,-0.23599243,-0.2395373,-0.22352433,-0.19770193,-0.18612003,-0.19146788,-0.18966484,-0.16830409,-0.13982302,-0.12112087,-0.116659224,-0.10776657,-0.08194417,-0.05166012,-0.03295791,-0.02583772,-0.0115971565,0.023148537,0.06409764,0.08903384,0.097040415,0.111311436,0.143368,0.17896926,0.19767141,0.20036066,0.2065947,0.22972786,0.2573533,0.26178443,0.23953736,0.21548736,0.20479167,0.19678521,0.17273521,0.12909687,0.08637524,0.057863712,0.032041192,-0.014255762,-0.07748252,-0.13536143,-0.17096275,-0.19589889,-0.2270692,-0.26893508,-0.29918867,-0.30542266,-0.30099165,-0.3125735,-0.34105456,-0.36330158,-0.36864942,-0.36421835,-0.36953562,-0.39092696,-0.40516746,-0.397161,-0.37668645,-0.3713386,-0.3838067,-0.39447182,-0.39181322,-0.37934506,-0.37488347,-0.38200366,-0.3829205,-0.36510456,-0.34194076,-0.3339343,-0.34282696,-0.3472886,-0.3339343,-0.31434596,-0.3098843,-0.3232386,-0.33035886,-0.31611836,-0.2974162,-0.29387134,-0.3081119,-0.32057995,-0.3116567,-0.29387134,-0.2894097,-0.3001054,-0.3116567,-0.30722564,-0.2974162,-0.302764,-0.3241248,-0.33570677,-0.3259278,-0.3081119,-0.30453646,-0.31969374,-0.3330481,-0.32858646,-0.3125735,-0.3081119,-0.3214662,-0.32947266,-0.3232386,-0.30899805,-0.30633944,-0.3232386,-0.33570677,-0.32858646,-0.31434596,-0.3098843,-0.3232386,-0.33216184,-0.31969374,-0.29652995,-0.2867511,-0.2947576,-0.30099165,-0.2894097,-0.2662459,-0.25735325,-0.2662459,-0.26982135,-0.24934673,-0.20748085,-0.17007649,-0.15583605,-0.14694327,-0.13713384,-0.13178599,-0.14159548,-0.16564542,-0.18077219,-0.17453814,-0.16118383,-0.16919035,-0.20301926,-0.24577141,-0.28051704,-0.3116567,-0.3481748,-0.3846929,-0.3989334,-0.3838067,-0.36064297,-0.35529512,-0.36864942,-0.37222487,-0.35529512,-0.3339343,-0.3259278,-0.34105456,-0.35529512,-0.3481748,-0.30722564,-0.22352433,-0.07390708,0.15583599,0.4309901,0.6696259,0.78003573,0.6909865,0.39893353,-0.026723862,-0.46127397,-0.78718656,-0.9225327,-0.8601922,-0.69101715,-0.52715933,-0.43456537,-0.40605372,-0.39269936,-0.36510456,-0.32858646,-0.3125735,-0.32057995,-0.32858646,-0.31789076,-0.2902959,-0.2715938,-0.27516913,-0.27782786,-0.26535976,-0.24846059,-0.24222648,-0.24934673,-0.250233,-0.23330325,-0.20836705,-0.20036054,-0.20659459,-0.20482212,-0.18434763,-0.15406358,-0.1389063,-0.14159548,-0.13358897,-0.105077386,-0.066786826,-0.043653607,-0.041850626,-0.034730375,-0.0044463277,0.04362309,0.07836878,0.09260929,0.10596359,0.13178611,0.16472876,0.18520331,0.18877876,0.1941266,0.21191192,0.23507583,0.24130988,0.22349381,0.20390546,0.19501281,0.18966496,0.16650116,0.12020409,0.07213473,0.035616636,0.0026739836,-0.043653607,-0.10596353,-0.15760839,-0.17899972,-0.18612003,-0.21640408,-0.2715938,-0.32504165,-0.3570981,-0.3624153,-0.36687696,-0.3855791,-0.3989334,-0.39804727,-0.38735157,-0.39181322,-0.41406018,-0.43098992,-0.42833126,-0.414977,-0.41228777,-0.42298347,-0.42833126,-0.414977,-0.3962748,-0.39181322,-0.40428132,-0.41140157,-0.397161,-0.36864942,-0.35440886,-0.3597567,-0.36599076,-0.3588705,-0.34016836,-0.33216184,-0.33928216,-0.34282696,-0.3330481,-0.31969374,-0.31789076,-0.3330481,-0.34282696,-0.33570677,-0.32504165,-0.32681406,-0.3464024,-0.3579843,-0.3481748,-0.32770026,-0.3241248,-0.34282696,-0.3588705,-0.35440886,-0.3348205,-0.32504165,-0.33839595,-0.3570981,-0.36330158,-0.35529512,-0.35440886,-0.3624153,-0.36599076,-0.3588705,-0.3464024,-0.3472886,-0.36421835,-0.373111,-0.3624153,-0.34282696,-0.3374791,-0.35263646,-0.36599076,-0.3597567,-0.34282696,-0.3348205,-0.34463,-0.35440886,-0.3472886,-0.33124506,-0.3223524,-0.3232386,-0.31700456,-0.29387134,-0.26982135,-0.26270103,-0.26893508,-0.2608981,-0.22172135,-0.17007649,-0.14336789,-0.15229112,-0.17187953,-0.17988598,-0.17276567,-0.17365193,-0.1878925,-0.202133,-0.202133,-0.19678515,-0.2146011,-0.26270103,-0.31611836,-0.35263646,-0.36953562,-0.38111752,-0.39181322,-0.397161,-0.3855791,-0.3704524,-0.373111,-0.39004076,-0.3962748,-0.37845892,-0.35086405,-0.3464024,-0.37222487,-0.38200366,-0.3223524,-0.16206998,0.08191371,0.34994733,0.60193753,0.76845384,0.77914965,0.56722236,0.14960194,-0.33570677,-0.7239598,-0.9091784,-0.8931349,-0.7657952,-0.6206701,-0.507571,-0.43633777,-0.40159208,-0.39004076,-0.37845892,-0.35529512,-0.33216184,-0.3259278,-0.3348205,-0.3330481,-0.3116567,-0.2822895,-0.26893508,-0.27516913,-0.27871406,-0.2662459,-0.24311268,-0.23241699,-0.24130976,-0.24577141,-0.23153085,-0.20393598,-0.1887787,-0.19235414,-0.1887787,-0.16919035,-0.13982302,-0.123779535,-0.12735492,-0.12824118,-0.10684979,-0.06855929,-0.03830582,-0.024034679,-0.0035600662,0.032927513,0.07479334,0.103274465,0.111311436,0.11931789,0.14602661,0.18165839,0.20390546,0.20390546,0.20301926,0.21814597,0.24130988,0.24665761,0.22172141,0.18877876,0.16295624,0.14602661,0.11665928,0.066786885,0.015142083,-0.02583772,-0.059666634,-0.10241878,-0.15849465,-0.20836705,-0.23507571,-0.24754375,-0.27247995,-0.3098843,-0.34194076,-0.3517502,-0.3481748,-0.35529512,-0.37757266,-0.3962748,-0.3953886,-0.3829205,-0.3829205,-0.40159208,-0.41763562,-0.414977,-0.39804727,-0.39269936,-0.40516746,-0.41406018,-0.40339506,-0.3838067,-0.37488347,-0.38200366,-0.38646537,-0.3713386,-0.34551615,-0.33570677,-0.34282696,-0.3517502,-0.34016836,-0.3214662,-0.31700456,-0.32947266,-0.34016836,-0.33035886,-0.30899805,-0.30099165,-0.3125735,-0.3241248,-0.31700456,-0.2974162,-0.29118216,-0.30633944,-0.3223524,-0.3232386,-0.3134597,-0.3125735,-0.32770026,-0.3374791,-0.33035886,-0.3125735,-0.30899805,-0.3241248,-0.3339343,-0.32947266,-0.3134597,-0.3107705,-0.32858646,-0.34371322,-0.34016836,-0.32504165,-0.3232386,-0.33839595,-0.349061,-0.34105456,-0.3232386,-0.31789076,-0.33035886,-0.3365929,-0.31969374,-0.29295462,-0.2822895,-0.29918867,-0.3214662,-0.32858646,-0.3134597,-0.2974162,-0.2983024,-0.3001054,-0.29118216,-0.2822895,-0.28140324,-0.2902959,-0.29295462,-0.2760554,-0.24577141,-0.2244106,-0.21548724,-0.19858819,-0.1647287,-0.13178599,-0.1264382,-0.15494978,-0.1878925,-0.19770193,-0.18612003,-0.18077219,-0.19501275,-0.21105623,-0.2119425,-0.20748085,-0.2270692,-0.2760554,-0.3374791,-0.37757266,-0.39269936,-0.40070587,-0.41228777,-0.41674936,-0.40516746,-0.3846929,-0.37668645,-0.38823777,-0.39804727,-0.39092696,-0.37576967,-0.38111752,-0.39447182,-0.3579843,-0.22083515,0.030268788,0.32770026,0.60285425,0.7871561,0.8147814,0.6349106,0.2324171,-0.27871406,-0.71861196,-0.9465827,-0.9323116,-0.7907314,-0.6456063,-0.55120933,-0.49510282,-0.45235068,-0.42475587,-0.41140157,-0.3989334,-0.37845892,-0.3517502,-0.34016836,-0.34551615,-0.3464024,-0.33035886,-0.30633944,-0.29652995,-0.30633944,-0.3125735,-0.2983024,-0.27070755,-0.25558078,-0.2608981,-0.26713216,-0.25469464,-0.22975838,-0.2146011,-0.21548724,-0.2146011,-0.19235414,-0.15760839,-0.13358897,-0.12912732,-0.12466574,-0.104191124,-0.066786826,-0.031185508,-0.009794116,0.0080218315,0.035616636,0.071218014,0.09349549,0.103274465,0.11665928,0.143368,0.17719686,0.19767141,0.19855773,0.19232368,0.19855773,0.20836711,0.20301926,0.17808294,0.14871573,0.13001359,0.11397016,0.07836878,0.020459294,-0.03830582,-0.08014113,-0.10596353,-0.14248163,-0.19412649,-0.24488515,-0.274283,-0.28583425,-0.30542266,-0.33839595,-0.36687696,-0.37488347,-0.373111,-0.3829205,-0.41051537,-0.43722397,-0.44168556,-0.42744505,-0.42298347,-0.4354515,-0.44880587,-0.44611663,-0.43010372,-0.42386967,-0.43187618,-0.43722397,-0.42744505,-0.40605372,-0.39804727,-0.40516746,-0.41051537,-0.3953886,-0.37222487,-0.36510456,-0.37845892,-0.39092696,-0.3829205,-0.3570981,-0.34194076,-0.3517502,-0.3624153,-0.3579843,-0.33928216,-0.3330481,-0.3481748,-0.36776322,-0.37222487,-0.3624153,-0.36064297,-0.37488347,-0.38915455,-0.3846929,-0.36421835,-0.35263646,-0.3570981,-0.3624153,-0.35440886,-0.33839595,-0.3365929,-0.35440886,-0.37222487,-0.373111,-0.3597567,-0.3570981,-0.3713386,-0.3838067,-0.38023132,-0.36421835,-0.3588705,-0.3739972,-0.3846929,-0.38200366,-0.36864942,-0.36510456,-0.38023132,-0.39358562,-0.38735157,-0.36510456,-0.35618126,-0.36687696,-0.37934506,-0.37845892,-0.36152917,-0.3517502,-0.36064297,-0.36776322,-0.35618126,-0.32504165,-0.3001054,-0.29564375,-0.3001054,-0.2947576,-0.26893508,-0.2377649,-0.21282864,-0.18966484,-0.16919035,-0.15760839,-0.17007649,-0.2012468,-0.22352433,-0.22263813,-0.20748085,-0.20659459,-0.2270692,-0.25558078,-0.27782786,-0.29652995,-0.33570677,-0.38915455,-0.4336486,-0.43988264,-0.41940802,-0.40250885,-0.40428132,-0.41317397,-0.4096291,-0.39269936,-0.38200366,-0.38646537,-0.3953886,-0.3962748,-0.3855791,-0.35263646,-0.26982135,-0.08906436,0.18254471,0.48617983,0.7141504,0.7773771,0.6349106,0.29206836,-0.16741788,-0.6135498,-0.9154124,-0.99376595,-0.8797806,-0.69456196,-0.555671,-0.49421668,-0.47105289,-0.44523048,-0.40782613,-0.38023132,-0.37576967,-0.38023132,-0.36953562,-0.34463,-0.3330481,-0.3374791,-0.34016836,-0.32858646,-0.30187786,-0.2867511,-0.29206836,-0.2983024,-0.2876373,-0.26181483,-0.24665755,-0.2511192,-0.25469464,-0.23865104,-0.21105623,-0.19501275,-0.19501275,-0.19324028,-0.1754244,-0.13982302,-0.11400062,-0.10684979,-0.098843336,-0.07036221,-0.027610064,0.006218791,0.021376133,0.034730315,0.06321144,0.10061586,0.12466586,0.13001359,0.13533092,0.15583599,0.18789256,0.20301926,0.19320977,0.17808294,0.17362142,0.17719686,0.16472876,0.12643814,0.08014119,0.045395613,0.01868689,-0.020489812,-0.07836872,-0.13624758,-0.17365193,-0.19501275,-0.22352433,-0.27070755,-0.31700456,-0.34371322,-0.35086405,-0.36064297,-0.3846929,-0.40782613,-0.41586316,-0.41140157,-0.41586316,-0.43456537,-0.44969207,-0.44880587,-0.4336486,-0.43010372,-0.44611663,-0.46038777,-0.45415372,-0.43187618,-0.41763562,-0.4220972,-0.43010372,-0.42029423,-0.39804727,-0.3829205,-0.38823777,-0.3962748,-0.39004076,-0.37222487,-0.36330158,-0.36953562,-0.37488347,-0.36510456,-0.3472886,-0.34194076,-0.3579843,-0.37488347,-0.3713386,-0.3517502,-0.34463,-0.3588705,-0.3739972,-0.373111,-0.3579843,-0.35263646,-0.36687696,-0.3838067,-0.3829205,-0.36776322,-0.36152917,-0.3739972,-0.38823777,-0.38646537,-0.3713386,-0.36330158,-0.3739972,-0.38823777,-0.38646537,-0.37576967,-0.37488347,-0.3855791,-0.39447182,-0.3846929,-0.36421835,-0.3579843,-0.37222487,-0.38823777,-0.3846929,-0.36599076,-0.3570981,-0.36330158,-0.36864942,-0.35529512,-0.32947266,-0.3134597,-0.3134597,-0.32057995,-0.3134597,-0.2902959,-0.26804894,-0.25200546,-0.23153085,-0.20301926,-0.1754244,-0.17276567,-0.19501275,-0.21906269,-0.22263813,-0.2119425,-0.20925331,-0.22352433,-0.24577141,-0.26535976,-0.28317565,-0.31969374,-0.3739972,-0.41763562,-0.42833126,-0.41317397,-0.39981967,-0.40159208,-0.40605372,-0.39358562,-0.373111,-0.36776322,-0.38200366,-0.39804727,-0.39981967,-0.3855791,-0.3588705,-0.29564375,-0.15229112,0.08637524,0.36953568,0.6108606,0.72839093,0.6749737,0.43276238,0.034730315,-0.41674936,-0.7844973,-0.9554754,-0.9082922,-0.74088955,-0.58949983,-0.5093434,-0.47640073,-0.44880587,-0.41140157,-0.38111752,-0.373111,-0.3739972,-0.36152917,-0.3365929,-0.3223524,-0.32681406,-0.33570677,-0.32681406,-0.30099165,-0.28317565,-0.28317565,-0.28852355,-0.28051704,-0.25735325,-0.24311268,-0.24754375,-0.25200546,-0.2404235,-0.2137149,-0.19501275,-0.19412649,-0.19501275,-0.1771968,-0.14514035,-0.11931783,-0.110425174,-0.10241878,-0.07659626,-0.03207177,0.0017876625,0.016914487,0.027610183,0.052546382,0.09349549,0.12466586,0.13802016,0.14514029,0.16561496,0.19501281,0.20836711,0.19767141,0.17808294,0.17184901,0.17719686,0.17007661,0.13802016,0.09438181,0.058749914,0.03115499,-0.008907974,-0.06767303,-0.12912732,-0.17365193,-0.202133,-0.23599243,-0.28317565,-0.32504165,-0.34551615,-0.3472886,-0.35440886,-0.37934506,-0.40516746,-0.414977,-0.40782613,-0.40693992,-0.42386967,-0.44345802,-0.44791967,-0.43722397,-0.43456537,-0.44703346,-0.45950156,-0.45592612,-0.4354515,-0.42121106,-0.42833126,-0.43633777,-0.43010372,-0.4087429,-0.39092696,-0.39181322,-0.39981967,-0.39447182,-0.37668645,-0.36421835,-0.36510456,-0.36953562,-0.3624153,-0.34371322,-0.3365929,-0.3464024,-0.3579843,-0.35263646,-0.3348205,-0.32681406,-0.33839595,-0.35263646,-0.35352266,-0.33928216,-0.3330481,-0.34463,-0.35618126,-0.35263646,-0.33839595,-0.33570677,-0.3517502,-0.3713386,-0.3704524,-0.35352266,-0.34463,-0.35352266,-0.36510456,-0.36330158,-0.34551615,-0.33839595,-0.35086405,-0.36510456,-0.36599076,-0.3517502,-0.34105456,-0.3517502,-0.36510456,-0.36421835,-0.34994727,-0.34282696,-0.35263646,-0.36421835,-0.3597567,-0.33928216,-0.3241248,-0.3232386,-0.32504165,-0.3107705,-0.28317565,-0.26982135,-0.27516913,-0.27960032,-0.26001185,-0.21017003,-0.16653168,-0.15229112,-0.15672219,-0.16384244,-0.16741788,-0.17631054,-0.19412649,-0.21017003,-0.20659459,-0.18966484,-0.18700624,-0.2137149,-0.26001185,-0.302764,-0.3365929,-0.3704524,-0.40159208,-0.414977,-0.40250885,-0.37576967,-0.3624153,-0.373111,-0.38915455,-0.38646537,-0.36510456,-0.35618126,-0.373111,-0.40250885,-0.39981967,-0.3241248,-0.1647287,0.07479334,0.35529506,0.6331079,0.8210156,0.8219018,0.5850383,0.14871573,-0.3365929,-0.72127056,-0.91272324,-0.90560293,-0.77649087,-0.6233288,-0.507571,-0.44703346,-0.42921752,-0.42029423,-0.39447182,-0.3597567,-0.34105456,-0.34371322,-0.349061,-0.3365929,-0.3081119,-0.2902959,-0.2947576,-0.30099165,-0.29295462,-0.2715938,-0.25646704,-0.26181483,-0.27247995,-0.26535976,-0.2395373,-0.21729028,-0.2119425,-0.2137149,-0.20301926,-0.18077219,-0.16029763,-0.15317732,-0.14605707,-0.12466574,-0.08906436,-0.06232524,-0.05166012,-0.040078163,-0.0115971565,0.034730315,0.06944549,0.08279979,0.090806365,0.11308384,0.15226066,0.18520331,0.19767141,0.19855773,0.20925331,0.22884178,0.23684812,0.22438002,0.20301926,0.19143736,0.18520331,0.16207004,0.11485636,0.059666634,0.019573092,-0.0071355104,-0.042736888,-0.10061574,-0.16206998,-0.20482212,-0.2252968,-0.24577141,-0.28051704,-0.31700456,-0.33570677,-0.3374791,-0.34371322,-0.36776322,-0.39358562,-0.40250885,-0.39181322,-0.3846929,-0.39358562,-0.40428132,-0.40428132,-0.39004076,-0.38646537,-0.39981967,-0.41228777,-0.40605372,-0.3855791,-0.37222487,-0.37845892,-0.39181322,-0.3855791,-0.36330158,-0.3472886,-0.349061,-0.35618126,-0.349061,-0.32681406,-0.31434596,-0.31789076,-0.32504165,-0.31969374,-0.30099165,-0.29387134,-0.3081119,-0.32681406,-0.3259278,-0.3081119,-0.2974162,-0.30722564,-0.3232386,-0.3223524,-0.30633944,-0.29564375,-0.30365026,-0.31789076,-0.31611836,-0.30099165,-0.2947576,-0.30722564,-0.32504165,-0.32858646,-0.3134597,-0.30453646,-0.3116567,-0.3232386,-0.31789076,-0.30099165,-0.29387134,-0.3081119,-0.3259278,-0.32858646,-0.3098843,-0.2983024,-0.30542266,-0.31523216,-0.3098843,-0.2849481,-0.2662459,-0.2644735,-0.26804894,-0.2608981,-0.23687863,-0.21994895,-0.21906269,-0.20836705,-0.17899972,-0.13178599,-0.09972948,-0.10153252,-0.12466574,-0.14070922,-0.14070922,-0.14248163,-0.15583605,-0.17007649,-0.17187953,-0.17007649,-0.1905511,-0.2395373,-0.30187786,-0.34016836,-0.34463,-0.34105456,-0.3481748,-0.3588705,-0.3570981,-0.3374791,-0.3214662,-0.3232386,-0.33216184,-0.32947266,-0.31789076,-0.3214662,-0.3348205,-0.3081119,-0.1905511,0.040964484,0.32770026,0.5957035,0.782725,0.835256,0.69187284,0.33124518,-0.16029763,-0.61443603,-0.87443274,-0.8913625,-0.75513005,-0.5992788,-0.49333048,-0.43098992,-0.3846929,-0.35440886,-0.34282696,-0.33570677,-0.32057995,-0.29387134,-0.2760554,-0.2769416,-0.28583425,-0.2822895,-0.26001185,-0.24488515,-0.24577141,-0.250233,-0.24130976,-0.21640408,-0.19678515,-0.19678515,-0.20301926,-0.19412649,-0.16653168,-0.14514035,-0.14336789,-0.15048814,-0.14336789,-0.11577308,-0.08995062,-0.07748252,-0.07124847,-0.052546263,-0.01336956,0.021376133,0.039161563,0.052546382,0.07567966,0.11219764,0.143368,0.1567223,0.16472876,0.18789256,0.22618306,0.25466406,0.2564366,0.2448852,0.24219596,0.25111926,0.25020254,0.22706926,0.18966496,0.16115332,0.14156497,0.11219764,0.057863712,-0.006249249,-0.05609119,-0.08814764,-0.12466574,-0.17453814,-0.2244106,-0.25469464,-0.26535976,-0.27782786,-0.30899805,-0.34463,-0.36064297,-0.3588705,-0.36064297,-0.37934506,-0.40605372,-0.414977,-0.40605372,-0.397161,-0.40339506,-0.414977,-0.41406018,-0.39447182,-0.38111752,-0.3855791,-0.39804727,-0.39804727,-0.37934506,-0.36421835,-0.36421835,-0.3704524,-0.36510456,-0.34194076,-0.3241248,-0.32681406,-0.33839595,-0.3374791,-0.31969374,-0.30542266,-0.3098843,-0.32057995,-0.31969374,-0.302764,-0.2902959,-0.29652995,-0.3098843,-0.3116567,-0.2983024,-0.2947576,-0.3081119,-0.32504165,-0.3259278,-0.30633944,-0.29206836,-0.30187786,-0.3214662,-0.32858646,-0.32057995,-0.31434596,-0.3223524,-0.3339343,-0.33216184,-0.31789076,-0.30899805,-0.31969374,-0.33570677,-0.3330481,-0.3107705,-0.29206836,-0.29206836,-0.2983024,-0.2902959,-0.26893508,-0.2537778,-0.25558078,-0.25646704,-0.23418945,-0.1905511,-0.15494978,-0.14605707,-0.15406358,-0.15672219,-0.14694327,-0.14605707,-0.16653168,-0.1905511,-0.19678515,-0.18523377,-0.18700624,-0.21994895,-0.274283,-0.3214662,-0.34282696,-0.35440886,-0.36953562,-0.38111752,-0.37668645,-0.35263646,-0.3374791,-0.34194076,-0.3579843,-0.36152917,-0.3481748,-0.34194076,-0.3570981,-0.3713386,-0.32947266,-0.19589889,0.023148537,0.27960026,0.5253563,0.710575,0.76937056,0.624215,0.26267064,-0.2146011,-0.632252,-0.8619646,-0.8824698,-0.7657952,-0.6233288,-0.51291883,-0.44168556,-0.40339506,-0.39181322,-0.3846929,-0.36421835,-0.33570677,-0.31969374,-0.3214662,-0.32770026,-0.31700456,-0.2894097,-0.2715938,-0.2760554,-0.28852355,-0.28406185,-0.2608981,-0.2395373,-0.2395373,-0.24754375,-0.24577141,-0.22172135,-0.20301926,-0.20301926,-0.20836705,-0.20036054,-0.16919035,-0.1389063,-0.1264382,-0.123779535,-0.10865271,-0.07571006,-0.046312213,-0.030268729,-0.021376073,0.0035601854,0.047198534,0.08637524,0.10684979,0.11485636,0.13444471,0.17096281,0.20301926,0.21282876,0.20479167,0.20036066,0.2074809,0.21102571,0.19678521,0.16919029,0.143368,0.123779535,0.08814776,0.032927513,-0.031185508,-0.08102739,-0.1130839,-0.149602,-0.202133,-0.2591257,-0.29564375,-0.30899805,-0.3223524,-0.35086405,-0.3846929,-0.40159208,-0.397161,-0.397161,-0.41317397,-0.43633777,-0.44523048,-0.43633777,-0.43098992,-0.44079942,-0.45769858,-0.45950156,-0.44523048,-0.43633777,-0.44345802,-0.45592612,-0.45235068,-0.43098992,-0.41140157,-0.41586316,-0.43276232,-0.43899637,-0.42475587,-0.41051537,-0.40516746,-0.40516746,-0.39269936,-0.36953562,-0.35618126,-0.36330158,-0.37488347,-0.3713386,-0.3464024,-0.32858646,-0.33216184,-0.34551615,-0.35352266,-0.3464024,-0.34994727,-0.3704524,-0.39004076,-0.3838067,-0.3570981,-0.33839595,-0.34463,-0.36687696,-0.37757266,-0.36776322,-0.35529512,-0.3597567,-0.3739972,-0.37668645,-0.36599076,-0.3624153,-0.373111,-0.38823777,-0.38735157,-0.36864942,-0.35618126,-0.36687696,-0.38735157,-0.39092696,-0.3713386,-0.35086405,-0.34551615,-0.3472886,-0.3365929,-0.3081119,-0.29118216,-0.2974162,-0.3134597,-0.3098843,-0.274283,-0.22884166,-0.20036054,-0.18700624,-0.17453814,-0.16741788,-0.17899972,-0.21105623,-0.24399894,-0.24934673,-0.2244106,-0.20570838,-0.21994895,-0.26181483,-0.30453646,-0.3339343,-0.36599076,-0.40516746,-0.43633777,-0.44345802,-0.42298347,-0.40250885,-0.40250885,-0.414977,-0.414977,-0.39447182,-0.38023132,-0.39004076,-0.41940802,-0.44079942,-0.40605372,-0.2974162,-0.10330492,0.16830409,0.46836364,0.7355112,0.8521553,0.74532056,0.40425074,-0.07659626,-0.5369688,-0.8512995,-0.9590508,-0.88870376,-0.73108006,-0.58057666,-0.49155802,-0.46127397,-0.45235068,-0.43098992,-0.39358562,-0.36776322,-0.3704524,-0.38646537,-0.3829205,-0.35529512,-0.32858646,-0.3214662,-0.32681406,-0.3223524,-0.3001054,-0.28051704,-0.2822895,-0.29206836,-0.2894097,-0.26535976,-0.2404235,-0.23599243,-0.24311268,-0.2404235,-0.21817654,-0.19412649,-0.18434763,-0.18434763,-0.17187953,-0.14070922,-0.110425174,-0.09438169,-0.08726144,-0.066786826,-0.024951458,0.016914487,0.04362309,0.059666634,0.085489035,0.123779535,0.15137446,0.1567223,0.15226066,0.16115332,0.18966496,0.21282876,0.20836711,0.18520331,0.16561496,0.1549499,0.13624763,0.09260929,0.034730315,-0.015142024,-0.048084676,-0.08637518,-0.14070922,-0.19947433,-0.2404235,-0.26001185,-0.28406185,-0.32681406,-0.37668645,-0.40159208,-0.3962748,-0.39004076,-0.40250885,-0.42921752,-0.44611663,-0.43988264,-0.43187618,-0.43899637,-0.45769858,-0.46662182,-0.46127397,-0.45235068,-0.46038777,-0.47374207,-0.47374207,-0.45769858,-0.44345802,-0.44523048,-0.45415372,-0.44969207,-0.42744505,-0.41051537,-0.41051537,-0.42029423,-0.41763562,-0.39804727,-0.3829205,-0.3855791,-0.397161,-0.3962748,-0.37488347,-0.3579843,-0.3624153,-0.37934506,-0.3846929,-0.37222487,-0.3579843,-0.36064297,-0.37222487,-0.3739972,-0.3624153,-0.35086405,-0.3570981,-0.37576967,-0.3829205,-0.37488347,-0.36776322,-0.3739972,-0.38735157,-0.38735157,-0.36864942,-0.35618126,-0.36421835,-0.3838067,-0.39181322,-0.38023132,-0.36864942,-0.3739972,-0.38915455,-0.39004076,-0.36599076,-0.34194076,-0.3365929,-0.34194076,-0.33839595,-0.31880754,-0.302764,-0.302764,-0.30542266,-0.2822895,-0.23687863,-0.19589889,-0.18343079,-0.19412649,-0.202133,-0.19501275,-0.19324028,-0.20836705,-0.23241699,-0.24222648,-0.23507571,-0.23330325,-0.2644735,-0.31700456,-0.36330158,-0.39004076,-0.40693992,-0.4220972,-0.43276232,-0.42652828,-0.40250885,-0.38823777,-0.397161,-0.41674936,-0.41852182,-0.3953886,-0.37668645,-0.38823777,-0.41586316,-0.4087429,-0.31611836,-0.123779535,0.13979256,0.42652833,0.6829802,0.8227879,0.75778866,0.45146465,-0.029382467,-0.5093434,-0.8334835,-0.942121,-0.87534946,-0.7337387,-0.59662014,-0.4968753,-0.43988264,-0.41674936,-0.4087429,-0.39181322,-0.3624153,-0.34551615,-0.34994727,-0.3588705,-0.35263646,-0.33124506,-0.3125735,-0.3134597,-0.32504165,-0.3214662,-0.2974162,-0.274283,-0.2715938,-0.27871406,-0.27516913,-0.2528916,-0.23153085,-0.2270692,-0.22975838,-0.21817654,-0.18700624,-0.15760839,-0.14871573,-0.15317732,-0.14070922,-0.105077386,-0.06947601,-0.048084676,-0.040078163,-0.023148537,0.016914487,0.057863712,0.08279979,0.09972954,0.121976614,0.15849471,0.19055116,0.19855773,0.19320977,0.19320977,0.2074809,0.2190628,0.2074809,0.1807723,0.15314686,0.13355851,0.104191184,0.054318786,-0.0106803775,-0.06767303,-0.104191124,-0.14070922,-0.18966484,-0.24222648,-0.28051704,-0.2974162,-0.3125735,-0.34105456,-0.37668645,-0.3989334,-0.3989334,-0.3962748,-0.4096291,-0.4354515,-0.44880587,-0.44611663,-0.44257182,-0.45057827,-0.46662182,-0.46839428,-0.45235068,-0.43811017,-0.44168556,-0.45592612,-0.45769858,-0.43988264,-0.42029423,-0.41674936,-0.42475587,-0.41940802,-0.39804727,-0.37934506,-0.38111752,-0.39269936,-0.39358562,-0.37488347,-0.3588705,-0.36064297,-0.37488347,-0.37488347,-0.3570981,-0.34105456,-0.34551615,-0.36152917,-0.36510456,-0.35263646,-0.34016836,-0.34282696,-0.35529512,-0.3579843,-0.34371322,-0.3339343,-0.34463,-0.3624153,-0.36776322,-0.35440886,-0.34551615,-0.35618126,-0.37757266,-0.3846929,-0.3704524,-0.35440886,-0.3570981,-0.3713386,-0.37757266,-0.36864942,-0.36064297,-0.36330158,-0.3739972,-0.36864942,-0.34551615,-0.32504165,-0.32057995,-0.32947266,-0.32947266,-0.3107705,-0.29118216,-0.28051704,-0.26893508,-0.24399894,-0.20393598,-0.17453814,-0.17453814,-0.19770193,-0.21729028,-0.21817654,-0.21548724,-0.22263813,-0.23865104,-0.24754375,-0.2528916,-0.274283,-0.3214662,-0.37934506,-0.41674936,-0.41940802,-0.40782613,-0.40605372,-0.41406018,-0.41406018,-0.39804727,-0.38200366,-0.37757266,-0.3846929,-0.39004076,-0.38823777,-0.39804727,-0.41317397,-0.3838067,-0.2537778,-0.0106803775,0.28406203,0.55475426,0.73373866,0.76845384,0.61620855,0.2582395,-0.21994895,-0.65807444,-0.9082922,-0.9198435,-0.7863003,-0.64203095,-0.54852015,-0.49421668,-0.44523048,-0.40339506,-0.3846929,-0.3829205,-0.37845892,-0.36152917,-0.34105456,-0.3348205,-0.33928216,-0.3330481,-0.3081119,-0.2867511,-0.2849481,-0.29652995,-0.29652995,-0.2760554,-0.25469464,-0.25200546,-0.2635873,-0.26270103,-0.24130976,-0.21817654,-0.21017003,-0.2146011,-0.20748085,-0.17899972,-0.14782953,-0.12912732,-0.11931783,-0.09707087,-0.061438978,-0.031185508,-0.01960361,-0.01960361,-0.00090146065,0.045395613,0.09526801,0.12555194,0.13802016,0.15403306,0.18431711,0.20836711,0.21460116,0.20301926,0.19855773,0.20925331,0.21191192,0.19143736,0.14960194,0.11308384,0.08814776,0.052546382,-0.0035600662,-0.07659626,-0.1389063,-0.1771968,-0.20925331,-0.25200546,-0.30187786,-0.3330481,-0.34194076,-0.3472886,-0.36687696,-0.39804727,-0.41763562,-0.41586316,-0.41140157,-0.41852182,-0.43899637,-0.44791967,-0.44079942,-0.4336486,-0.44168556,-0.4585848,-0.46393263,-0.45235068,-0.44257182,-0.44703346,-0.45950156,-0.45950156,-0.44079942,-0.42386967,-0.42386967,-0.43010372,-0.42298347,-0.397161,-0.37668645,-0.37757266,-0.39004076,-0.39092696,-0.3704524,-0.3481748,-0.34463,-0.35352266,-0.35529512,-0.34371322,-0.3339343,-0.33839595,-0.35352266,-0.35263646,-0.3374791,-0.3259278,-0.3330481,-0.35086405,-0.35529512,-0.34105456,-0.32770026,-0.3339343,-0.35352266,-0.36064297,-0.34994727,-0.34016836,-0.34371322,-0.3588705,-0.3624153,-0.349061,-0.33928216,-0.3472886,-0.36421835,-0.36776322,-0.35263646,-0.33928216,-0.3472886,-0.36599076,-0.3713386,-0.35529512,-0.33839595,-0.34282696,-0.36064297,-0.36864942,-0.35618126,-0.34105456,-0.34282696,-0.35529512,-0.35529512,-0.33216184,-0.302764,-0.28852355,-0.28852355,-0.28406185,-0.26982135,-0.25823945,-0.2537778,-0.24311268,-0.21017003,-0.16295624,-0.13267225,-0.14248163,-0.17899972,-0.20393598,-0.19858819,-0.18612003,-0.1878925,-0.20482212,-0.21994895,-0.22263813,-0.23507571,-0.274283,-0.33216184,-0.37934506,-0.39269936,-0.39269936,-0.397161,-0.40693992,-0.4096291,-0.39269936,-0.37488347,-0.37576967,-0.38915455,-0.3953886,-0.39092696,-0.3962748,-0.41317397,-0.39804727,-0.2894097,-0.054318726,0.2591257,0.56456375,0.79250383,0.86731243,0.74085903,0.39001024,-0.10953897,-0.5886136,-0.8824698,-0.9287667,-0.8076611,-0.65715766,-0.5574434,-0.50222313,-0.45592612,-0.41674936,-0.3962748,-0.39004076,-0.3829205,-0.36330158,-0.34282696,-0.3374791,-0.3464024,-0.34463,-0.3259278,-0.30453646,-0.29652995,-0.3001054,-0.29652995,-0.27782786,-0.26001185,-0.25823945,-0.26535976,-0.2608981,-0.23599243,-0.2119425,-0.20482212,-0.21105623,-0.20482212,-0.17899972,-0.149602,-0.13713384,-0.13536143,-0.11931783,-0.08194417,-0.041850626,-0.021376073,-0.015142024,0.0026739836,0.040078282,0.08102739,0.10684979,0.11931789,0.13713396,0.17096281,0.20036066,0.20925331,0.20036066,0.19767141,0.2074809,0.21371496,0.19855773,0.16295624,0.1308999,0.109508514,0.08014119,0.026693344,-0.043653607,-0.10153252,-0.13447523,-0.16295624,-0.20482212,-0.2591257,-0.30365026,-0.3241248,-0.3348205,-0.3597567,-0.3953886,-0.41763562,-0.414977,-0.40605372,-0.41051537,-0.43098992,-0.44434422,-0.44079942,-0.4336486,-0.43988264,-0.45592612,-0.46038777,-0.44880587,-0.43633777,-0.43988264,-0.45592612,-0.45950156,-0.44257182,-0.42564213,-0.42475587,-0.4354515,-0.43276232,-0.41051537,-0.3855791,-0.37845892,-0.38823777,-0.39092696,-0.37934506,-0.36687696,-0.36599076,-0.37757266,-0.37757266,-0.3588705,-0.34016836,-0.34105456,-0.3570981,-0.36510456,-0.3570981,-0.34282696,-0.34105456,-0.3517502,-0.3570981,-0.3472886,-0.3365929,-0.34016836,-0.35352266,-0.35618126,-0.34282696,-0.32858646,-0.33124506,-0.34551615,-0.35529512,-0.34994727,-0.34551615,-0.35529512,-0.36864942,-0.36776322,-0.34994727,-0.33570677,-0.34105456,-0.3624153,-0.36953562,-0.3570981,-0.34371322,-0.3464024,-0.36152917,-0.36864942,-0.35618126,-0.34282696,-0.3472886,-0.36152917,-0.36510456,-0.349061,-0.33216184,-0.33124506,-0.34105456,-0.3348205,-0.30453646,-0.27070755,-0.2608981,-0.27247995,-0.27247995,-0.24130976,-0.19501275,-0.16029763,-0.15406358,-0.16029763,-0.16653168,-0.17276567,-0.18343079,-0.19858819,-0.19858819,-0.18254459,-0.17276567,-0.18700624,-0.2252968,-0.26713216,-0.29918867,-0.32858646,-0.36421835,-0.3953886,-0.40070587,-0.38200366,-0.36064297,-0.3597567,-0.37757266,-0.37845892,-0.36064297,-0.34194076,-0.34551615,-0.37845892,-0.3962748,-0.35618126,-0.2377649,-0.033844113,0.22972786,0.5200391,0.76845384,0.86731243,0.7355112,0.36418784,-0.13267225,-0.5823796,-0.859306,-0.9189573,-0.8201293,-0.6616193,-0.52715933,-0.45057827,-0.42475587,-0.42298347,-0.40693992,-0.36864942,-0.33570677,-0.32858646,-0.34282696,-0.349061,-0.3339343,-0.3098843,-0.30099165,-0.30899805,-0.30542266,-0.28406185,-0.26270103,-0.25735325,-0.2662459,-0.2662459,-0.24399894,-0.21994895,-0.21548724,-0.2252968,-0.2244106,-0.19589889,-0.16206998,-0.14336789,-0.14248163,-0.1389063,-0.11843169,-0.08995062,-0.07036221,-0.054318726,-0.028496325,0.015142083,0.05609119,0.07656574,0.08191371,0.097957134,0.13444471,0.17453825,0.19678521,0.20036066,0.20479167,0.2190628,0.23150039,0.22438002,0.20124686,0.18700635,0.18700635,0.17719686,0.13802016,0.07213473,0.0080218315,-0.036502838,-0.072134614,-0.12020409,-0.17899972,-0.22618294,-0.25200546,-0.274283,-0.3081119,-0.34994727,-0.37576967,-0.37668645,-0.37222487,-0.38111752,-0.40605372,-0.42121106,-0.42029423,-0.41674936,-0.42833126,-0.4532675,-0.46662182,-0.46038777,-0.45057827,-0.45235068,-0.46216017,-0.4585848,-0.43633777,-0.414977,-0.41228777,-0.42652828,-0.4336486,-0.41940802,-0.3989334,-0.39358562,-0.39981967,-0.3989334,-0.38111752,-0.3597567,-0.35618126,-0.36687696,-0.3704524,-0.3588705,-0.34463,-0.34463,-0.3570981,-0.36064297,-0.3464024,-0.33216184,-0.33570677,-0.35618126,-0.36864942,-0.36330158,-0.35352266,-0.35618126,-0.3704524,-0.37576967,-0.36421835,-0.35263646,-0.3579843,-0.37576967,-0.3855791,-0.37488347,-0.36064297,-0.36421835,-0.38111752,-0.39004076,-0.38111752,-0.3713386,-0.37757266,-0.397161,-0.39804727,-0.38111752,-0.3570981,-0.35352266,-0.36864942,-0.37757266,-0.36864942,-0.3588705,-0.36776322,-0.3846929,-0.3855791,-0.36064297,-0.32770026,-0.3116567,-0.31523216,-0.31523216,-0.29918867,-0.28140324,-0.2760554,-0.27871406,-0.26181483,-0.22352433,-0.1878925,-0.17988598,-0.19947433,-0.21817654,-0.21548724,-0.20301926,-0.2012468,-0.21282864,-0.22172135,-0.21729028,-0.21994895,-0.2537778,-0.3081119,-0.35618126,-0.37757266,-0.3829205,-0.39181322,-0.40605372,-0.40782613,-0.39092696,-0.3704524,-0.36864942,-0.3829205,-0.38823777,-0.37576967,-0.3704524,-0.38915455,-0.40693992,-0.36330158,-0.2137149,0.033844233,0.3098843,0.55741286,0.7230431,0.7506685,0.576115,0.19589901,-0.28583425,-0.69367576,-0.90025514,-0.8913625,-0.76402277,-0.6295628,-0.5325072,-0.46662182,-0.42298347,-0.3989334,-0.39269936,-0.3829205,-0.3624153,-0.34371322,-0.34282696,-0.35352266,-0.35440886,-0.3330481,-0.30453646,-0.29118216,-0.29564375,-0.2983024,-0.28406185,-0.26535976,-0.2608981,-0.26713216,-0.26713216,-0.2511192,-0.22975838,-0.22263813,-0.2270692,-0.22263813,-0.19770193,-0.16653168,-0.15048814,-0.14871573,-0.13802004,-0.105077386,-0.06767303,-0.048084676,-0.040964425,-0.02583772,0.008908033,0.052546382,0.08279979,0.09438181,0.11397016,0.14691281,0.17719686,0.18877876,0.18254471,0.18165839,0.19678521,0.21191192,0.20479167,0.17631066,0.14248168,0.115742564,0.08102739,0.024034739,-0.046312213,-0.10241878,-0.13536143,-0.16206998,-0.20482212,-0.26181483,-0.30722564,-0.32681406,-0.33570677,-0.35440886,-0.38735157,-0.40782613,-0.4087429,-0.40159208,-0.41228777,-0.43988264,-0.46038777,-0.45950156,-0.44880587,-0.45057827,-0.46750802,-0.47551447,-0.46393263,-0.44703346,-0.44880587,-0.46750802,-0.47551447,-0.46216017,-0.43899637,-0.4336486,-0.44434422,-0.44611663,-0.43098992,-0.40693992,-0.397161,-0.40693992,-0.4087429,-0.39447182,-0.37488347,-0.373111,-0.3846929,-0.38646537,-0.36864942,-0.349061,-0.34551615,-0.3588705,-0.36687696,-0.3579843,-0.3472886,-0.35263646,-0.3704524,-0.37576967,-0.36152917,-0.34282696,-0.34282696,-0.3624153,-0.37488347,-0.36510456,-0.34994727,-0.35086405,-0.36864942,-0.37757266,-0.36864942,-0.35440886,-0.35618126,-0.37668645,-0.39004076,-0.3846929,-0.36864942,-0.36421835,-0.37488347,-0.37757266,-0.36687696,-0.35618126,-0.3579843,-0.3739972,-0.38200366,-0.36776322,-0.34994727,-0.349061,-0.36510456,-0.37488347,-0.36510456,-0.3472886,-0.34371322,-0.36064297,-0.373111,-0.36687696,-0.349061,-0.3374791,-0.3330481,-0.3214662,-0.29387134,-0.26535976,-0.2591257,-0.26713216,-0.25823945,-0.22083515,-0.17811358,-0.16029763,-0.17811358,-0.202133,-0.20748085,-0.19678515,-0.19146788,-0.20036054,-0.20659459,-0.19770193,-0.19324028,-0.21105623,-0.25200546,-0.29387134,-0.3223524,-0.34463,-0.37488347,-0.41140157,-0.42652828,-0.41406018,-0.39092696,-0.38200366,-0.38915455,-0.39269936,-0.38023132,-0.36953562,-0.37845892,-0.38915455,-0.3374791,-0.18077219,0.07567966,0.36507404,0.62687373,0.7996242,0.81655383,0.6233287,0.21548736,-0.2894097,-0.7114917,-0.9189573,-0.9029443,-0.7702568,-0.63491064,-0.54051363,-0.47728693,-0.43187618,-0.40693992,-0.39804727,-0.38646537,-0.36687696,-0.35263646,-0.35440886,-0.36776322,-0.36776322,-0.34463,-0.3125735,-0.3001054,-0.30722564,-0.3098843,-0.2947576,-0.274283,-0.2662459,-0.2715938,-0.2715938,-0.25558078,-0.23687863,-0.23153085,-0.23865104,-0.23153085,-0.20301926,-0.16919035,-0.15494978,-0.15672219,-0.14782953,-0.11577308,-0.07390708,-0.04453987,-0.033844113,-0.018717349,0.014255881,0.053432584,0.08191371,0.09438181,0.11397016,0.15137446,0.18877876,0.2065947,0.20213306,0.19767141,0.2074809,0.219949,0.21371496,0.18700635,0.15849471,0.13802016,0.11665928,0.07479334,0.014255881,-0.041850626,-0.08283031,-0.11577308,-0.16118383,-0.22172135,-0.26893508,-0.29387134,-0.30722564,-0.32770026,-0.3597567,-0.3838067,-0.38915455,-0.38646537,-0.3953886,-0.42029423,-0.43811017,-0.43456537,-0.42386967,-0.42564213,-0.44168556,-0.44969207,-0.43811017,-0.42386967,-0.42475587,-0.44523048,-0.46038777,-0.45235068,-0.4336486,-0.42564213,-0.43276232,-0.4336486,-0.41852182,-0.3989334,-0.39447182,-0.40339506,-0.40339506,-0.3838067,-0.36064297,-0.35263646,-0.36510456,-0.3739972,-0.36421835,-0.3481748,-0.34551615,-0.3570981,-0.36330158,-0.3517502,-0.33216184,-0.33035886,-0.34551615,-0.35529512,-0.34994727,-0.3374791,-0.33928216,-0.3570981,-0.36599076,-0.35618126,-0.3365929,-0.33124506,-0.34551615,-0.35618126,-0.34994727,-0.3374791,-0.3374791,-0.3517502,-0.36152917,-0.35440886,-0.34105456,-0.34282696,-0.3588705,-0.36776322,-0.3579843,-0.34282696,-0.34105456,-0.35352266,-0.36152917,-0.35440886,-0.33928216,-0.34194076,-0.3570981,-0.3704524,-0.3579843,-0.3348205,-0.33035886,-0.3374791,-0.34463,-0.33839595,-0.32504165,-0.32681406,-0.34371322,-0.35263646,-0.3330481,-0.30099165,-0.2769416,-0.26893508,-0.26181483,-0.24130976,-0.2244106,-0.22618294,-0.23687863,-0.22884166,-0.18966484,-0.14336789,-0.12735492,-0.14694327,-0.17365193,-0.17811358,-0.16653168,-0.16384244,-0.17453814,-0.18612003,-0.18523377,-0.18700624,-0.2137149,-0.2644735,-0.31611836,-0.349061,-0.36599076,-0.3838067,-0.40339506,-0.40693992,-0.39004076,-0.36776322,-0.3624153,-0.3739972,-0.37934506,-0.3739972,-0.36599076,-0.36330158,-0.3330481,-0.21817654,0.015142083,0.31877697,0.6099745,0.7960793,0.81832623,0.6366831,0.25111926,-0.2404235,-0.68032146,-0.9243051,-0.9269943,-0.78006625,-0.62155634,-0.5298486,-0.48352098,-0.43988264,-0.3962748,-0.3704524,-0.3704524,-0.37576967,-0.36687696,-0.34282696,-0.3259278,-0.32504165,-0.3214662,-0.30453646,-0.2822895,-0.27782786,-0.28852355,-0.2947576,-0.27960032,-0.2511192,-0.23418945,-0.2377649,-0.2377649,-0.22263813,-0.19770193,-0.18077219,-0.18165845,-0.17811358,-0.16029763,-0.13713384,-0.122893274,-0.12020409,-0.10596353,-0.072134614,-0.031185508,-0.0044463277,0.010680437,0.036502838,0.07390714,0.11308384,0.13178611,0.13267219,0.14425421,0.17896926,0.219949,0.23773444,0.22972786,0.21725976,0.21548736,0.2190628,0.20836711,0.17985547,0.14871573,0.12466586,0.10061586,0.05609119,-0.0053631067,-0.059666634,-0.09972948,-0.13267225,-0.17453814,-0.22884166,-0.2760554,-0.302764,-0.31880754,-0.34282696,-0.3739972,-0.39358562,-0.39092696,-0.38023132,-0.3855791,-0.4096291,-0.42652828,-0.42298347,-0.41317397,-0.41406018,-0.43187618,-0.44611663,-0.43811017,-0.4220972,-0.42121106,-0.4354515,-0.44434422,-0.43276232,-0.4096291,-0.39981967,-0.40159208,-0.3953886,-0.3713386,-0.34463,-0.33928216,-0.3579843,-0.37488347,-0.3713386,-0.35529512,-0.35086405,-0.36064297,-0.3624153,-0.3481748,-0.32770026,-0.3232386,-0.34371322,-0.3579843,-0.3517502,-0.3365929,-0.32947266,-0.3348205,-0.34194076,-0.33839595,-0.33216184,-0.34105456,-0.36330158,-0.37222487,-0.3588705,-0.34194076,-0.33928216,-0.3570981,-0.3713386,-0.36421835,-0.34551615,-0.33928216,-0.3517502,-0.36330158,-0.36599076,-0.36152917,-0.36864942,-0.3855791,-0.39181322,-0.37757266,-0.35618126,-0.35086405,-0.3624153,-0.36953562,-0.3588705,-0.34016836,-0.3374791,-0.34994727,-0.3579843,-0.35352266,-0.34194076,-0.34194076,-0.3579843,-0.36510456,-0.3464024,-0.31611836,-0.29652995,-0.29387134,-0.2902959,-0.2733662,-0.25558078,-0.24665755,-0.24399894,-0.2279554,-0.19324028,-0.16206998,-0.16295624,-0.19235414,-0.21548724,-0.21105623,-0.18434763,-0.16919035,-0.17988598,-0.19858819,-0.21105623,-0.2244106,-0.2591257,-0.3134597,-0.3579843,-0.38023132,-0.38111752,-0.38646537,-0.40605372,-0.41406018,-0.3989334,-0.373111,-0.36330158,-0.3739972,-0.38200366,-0.37845892,-0.36510456,-0.349061,-0.3001054,-0.1647287,0.07033169,0.35171974,0.5975064,0.7275046,0.6901003,0.46216023,0.06855929,-0.39269936,-0.7720293,-0.9465827,-0.9029443,-0.74177575,-0.5903861,-0.5084572,-0.46839428,-0.43187618,-0.39181322,-0.36953562,-0.36510456,-0.36064297,-0.3464024,-0.3241248,-0.31523216,-0.32770026,-0.33216184,-0.3116567,-0.28140324,-0.2662459,-0.27247995,-0.28051704,-0.2715938,-0.24934673,-0.23599243,-0.2395373,-0.23687863,-0.21729028,-0.18966484,-0.17453814,-0.17899972,-0.17899972,-0.16118383,-0.13267225,-0.11488682,-0.1130839,-0.10241878,-0.072134614,-0.030268729,-1.5258789e-05,0.016028285,0.034730315,0.07033169,0.11219764,0.13890624,0.14779902,0.15849471,0.18520331,0.2190628,0.23507583,0.22972786,0.22083521,0.22438002,0.22795546,0.21191192,0.16830409,0.12109041,0.08814776,0.061439037,0.019573092,-0.041850626,-0.104191124,-0.15048814,-0.18165845,-0.21906269,-0.26535976,-0.30453646,-0.32504165,-0.3348205,-0.35529512,-0.3855791,-0.40250885,-0.397161,-0.3855791,-0.39004076,-0.4220972,-0.44880587,-0.4532675,-0.44168556,-0.43899637,-0.45146453,-0.46038777,-0.45057827,-0.42833126,-0.41852182,-0.42564213,-0.43276232,-0.42652828,-0.4087429,-0.40159208,-0.41051537,-0.41140157,-0.3953886,-0.37222487,-0.36330158,-0.373111,-0.37668645,-0.36064297,-0.33570677,-0.32858646,-0.34105456,-0.35618126,-0.35440886,-0.33928216,-0.3339343,-0.33928216,-0.34105456,-0.32947266,-0.31611836,-0.31880754,-0.33928216,-0.35529512,-0.349061,-0.33570677,-0.3339343,-0.34551615,-0.35529512,-0.3472886,-0.33216184,-0.33570677,-0.3579843,-0.37488347,-0.36599076,-0.34463,-0.3339343,-0.34463,-0.3597567,-0.3588705,-0.34551615,-0.34282696,-0.35618126,-0.36953562,-0.36330158,-0.3464024,-0.34016836,-0.34994727,-0.3597567,-0.35352266,-0.3374791,-0.3339343,-0.3464024,-0.35618126,-0.34551615,-0.32681406,-0.32057995,-0.3348205,-0.3481748,-0.34551615,-0.33216184,-0.32770026,-0.33928216,-0.34551615,-0.3339343,-0.30899805,-0.2902959,-0.28583425,-0.2760554,-0.2537778,-0.2279554,-0.21994895,-0.2252968,-0.21640408,-0.18612003,-0.14514035,-0.12912732,-0.14425409,-0.16384244,-0.1647287,-0.15137434,-0.149602,-0.16564542,-0.17899972,-0.18077219,-0.18254459,-0.20659459,-0.2608981,-0.31700456,-0.34994727,-0.36064297,-0.3704524,-0.3829205,-0.3829205,-0.36421835,-0.34371322,-0.34463,-0.36776322,-0.38915455,-0.39004076,-0.3713386,-0.32858646,-0.23599243,-0.046312213,0.23418951,0.5342797,0.7640227,0.82813585,0.6936759,0.36953568,-0.07571006,-0.51646364,-0.82459086,-0.9154124,-0.819243,-0.6518404,-0.5245007,-0.46928042,-0.43988264,-0.40516746,-0.36421835,-0.33839595,-0.34371322,-0.35352266,-0.34194076,-0.31434596,-0.29564375,-0.29652995,-0.30187786,-0.29118216,-0.26982135,-0.2591257,-0.26535976,-0.26893508,-0.25646704,-0.23241699,-0.21817654,-0.22172135,-0.22172135,-0.20393598,-0.17988598,-0.16919035,-0.17365193,-0.17007649,-0.14782953,-0.11219764,-0.08906436,-0.085489035,-0.079254985,-0.049887657,-0.0106803775,0.020459294,0.034730315,0.051629663,0.08726144,0.13267219,0.16207004,0.17096281,0.17896926,0.19767141,0.22529685,0.23773444,0.22972786,0.21814597,0.2190628,0.22438002,0.21460116,0.18165839,0.14779902,0.12109041,0.09438181,0.045395613,-0.024951458,-0.09260929,-0.13447523,-0.16029763,-0.19235414,-0.2395373,-0.2822895,-0.30365026,-0.3134597,-0.33035886,-0.36330158,-0.38915455,-0.39181322,-0.37934506,-0.37934506,-0.3962748,-0.414977,-0.41763562,-0.40782613,-0.41228777,-0.43276232,-0.44791967,-0.44523048,-0.42744505,-0.41852182,-0.42833126,-0.4354515,-0.42386967,-0.40159208,-0.39181322,-0.39981967,-0.40516746,-0.38915455,-0.36330158,-0.34994727,-0.3579843,-0.36421835,-0.35352266,-0.33124506,-0.3241248,-0.34016836,-0.35529512,-0.35086405,-0.33035886,-0.31969374,-0.32681406,-0.3348205,-0.32858646,-0.3134597,-0.3134597,-0.33124506,-0.34551615,-0.34016836,-0.31880754,-0.3098843,-0.32504165,-0.34194076,-0.34371322,-0.33216184,-0.3330481,-0.34994727,-0.36510456,-0.36064297,-0.34016836,-0.32947266,-0.3374791,-0.3517502,-0.35263646,-0.34194076,-0.34371322,-0.3579843,-0.36421835,-0.349061,-0.32770026,-0.3232386,-0.34282696,-0.36510456,-0.3624153,-0.34105456,-0.32681406,-0.33035886,-0.33839595,-0.3348205,-0.3241248,-0.3232386,-0.33839595,-0.34994727,-0.34282696,-0.3223524,-0.31523216,-0.3232386,-0.3259278,-0.302764,-0.26270103,-0.23507571,-0.23418945,-0.24665755,-0.24488515,-0.2244106,-0.20393598,-0.1887787,-0.17365193,-0.15317732,-0.13802004,-0.14514035,-0.17007649,-0.18700624,-0.1771968,-0.15317732,-0.14694327,-0.17096275,-0.20482212,-0.22884166,-0.2528916,-0.29118216,-0.34194076,-0.38646537,-0.397161,-0.38200366,-0.3713386,-0.37668645,-0.3829205,-0.3704524,-0.349061,-0.34282696,-0.35618126,-0.36776322,-0.349061,-0.26982135,-0.12912732,0.07656574,0.32770026,0.58858323,0.77025676,0.76937056,0.5342797,0.109508514,-0.3624153,-0.7257322,-0.90471673,-0.8967103,-0.7720293,-0.6251012,-0.5120326,-0.44791967,-0.4220972,-0.40605372,-0.38023132,-0.3472886,-0.33216184,-0.34016836,-0.3464024,-0.3330481,-0.30722564,-0.2947576,-0.30099165,-0.30899805,-0.3001054,-0.27247995,-0.24846059,-0.24311268,-0.24311268,-0.23418945,-0.22083515,-0.21640408,-0.21729028,-0.2137149,-0.19501275,-0.16741788,-0.15760839,-0.16206998,-0.15849465,-0.13267225,-0.09260929,-0.06232524,-0.05077386,-0.036502838,-0.0053631067,0.036502838,0.064983964,0.073020935,0.085489035,0.12109041,0.17007661,0.20124686,0.20567787,0.20213306,0.21371496,0.23507583,0.24396849,0.22884178,0.21013951,0.20479167,0.20479167,0.18520331,0.13533092,0.08014119,0.040078282,0.012452841,-0.027610064,-0.091723025,-0.15583605,-0.2012468,-0.2252968,-0.2511192,-0.29118216,-0.32947266,-0.349061,-0.35263646,-0.36064297,-0.38200366,-0.40159208,-0.40339506,-0.3989334,-0.40516746,-0.42744505,-0.44969207,-0.44880587,-0.42833126,-0.41852182,-0.42652828,-0.4354515,-0.42744505,-0.40782613,-0.39804727,-0.40516746,-0.41317397,-0.40428132,-0.3846929,-0.3739972,-0.38111752,-0.38646537,-0.373111,-0.34371322,-0.3241248,-0.32947266,-0.34194076,-0.34371322,-0.3374791,-0.33928216,-0.35529512,-0.36776322,-0.3597567,-0.33570677,-0.31969374,-0.3232386,-0.3330481,-0.33216184,-0.31969374,-0.31700456,-0.33124506,-0.3464024,-0.3472886,-0.3348205,-0.33124506,-0.34105456,-0.35086405,-0.3481748,-0.3365929,-0.3374791,-0.35618126,-0.3713386,-0.36687696,-0.3481748,-0.34016836,-0.3517502,-0.36510456,-0.3624153,-0.34551615,-0.3348205,-0.34194076,-0.35086405,-0.34551615,-0.33216184,-0.32947266,-0.34463,-0.36152917,-0.3588705,-0.34194076,-0.33035886,-0.3339343,-0.3365929,-0.3214662,-0.29206836,-0.27070755,-0.26535976,-0.26535976,-0.25646704,-0.23330325,-0.2146011,-0.20393598,-0.19501275,-0.1754244,-0.15672219,-0.15672219,-0.18077219,-0.19947433,-0.19412649,-0.17365193,-0.16653168,-0.18434763,-0.2146011,-0.2377649,-0.25735325,-0.2867511,-0.33570677,-0.38200366,-0.39804727,-0.38823777,-0.38023132,-0.38735157,-0.3953886,-0.38915455,-0.36599076,-0.349061,-0.35618126,-0.37222487,-0.37488347,-0.3365929,-0.24130976,-0.07659626,0.16115332,0.42918694,0.6571578,0.75690246,0.65804386,0.3579538,-0.06767303,-0.48798263,-0.79161763,-0.9074059,-0.8450654,-0.69013095,-0.54051363,-0.45592612,-0.43187618,-0.42652828,-0.40782613,-0.373111,-0.349061,-0.34463,-0.3481748,-0.33839595,-0.31434596,-0.30099165,-0.30633944,-0.3098843,-0.29652995,-0.26982135,-0.25646704,-0.26270103,-0.26982135,-0.25469464,-0.22263813,-0.20301926,-0.21817654,-0.23330325,-0.2270692,-0.19858819,-0.17007649,-0.16295624,-0.16564542,-0.15229112,-0.117545485,-0.08637518,-0.06947601,-0.055204928,-0.027610064,0.011566639,0.042736888,0.058749914,0.073020935,0.10238814,0.14425421,0.17453825,0.18520331,0.19055116,0.20925331,0.23596191,0.24843001,0.23865116,0.22172141,0.21371496,0.21102571,0.19055116,0.14425421,0.090806365,0.047198534,0.011566639,-0.037419558,-0.10153252,-0.16295624,-0.2012468,-0.21548724,-0.23418945,-0.27070755,-0.3116567,-0.34016836,-0.35352266,-0.36776322,-0.39181322,-0.40782613,-0.40693992,-0.3962748,-0.3989334,-0.42121106,-0.44523048,-0.44969207,-0.4336486,-0.42475587,-0.4336486,-0.44434422,-0.43811017,-0.42386967,-0.414977,-0.42475587,-0.4354515,-0.42475587,-0.3962748,-0.38023132,-0.38646537,-0.3962748,-0.39004076,-0.3624153,-0.34282696,-0.34282696,-0.35263646,-0.35086405,-0.3348205,-0.3259278,-0.3330481,-0.34194076,-0.33570677,-0.31880754,-0.3134597,-0.32770026,-0.34282696,-0.33839595,-0.31789076,-0.3098843,-0.32504165,-0.34371322,-0.34463,-0.32947266,-0.3241248,-0.33928216,-0.35618126,-0.35263646,-0.3330481,-0.3232386,-0.33570677,-0.35440886,-0.35529512,-0.3348205,-0.3241248,-0.33570677,-0.3517502,-0.35352266,-0.33839595,-0.32947266,-0.33928216,-0.35440886,-0.35529512,-0.34105456,-0.3330481,-0.34105456,-0.35086405,-0.3472886,-0.33035886,-0.3214662,-0.33035886,-0.3365929,-0.32057995,-0.2876373,-0.2662459,-0.26893508,-0.28140324,-0.28140324,-0.26001185,-0.23241699,-0.20925331,-0.18523377,-0.15760839,-0.13001353,-0.12912732,-0.15672219,-0.1887787,-0.202133,-0.19235414,-0.18434763,-0.19146788,-0.20570838,-0.21548724,-0.23153085,-0.26535976,-0.31880754,-0.3704524,-0.39447182,-0.39004076,-0.3855791,-0.39447182,-0.40159208,-0.39269936,-0.373111,-0.3624153,-0.37222487,-0.39092696,-0.397161,-0.38823777,-0.36330158,-0.2974162,-0.14248163,0.117545485,0.42386973,0.6936759,0.8219018,0.7595612,0.4942168,0.07213473,-0.39447182,-0.7702568,-0.9403487,-0.8931349,-0.7257322,-0.5716839,-0.49064124,-0.45592612,-0.42833126,-0.39181322,-0.36064297,-0.35440886,-0.3579843,-0.3481748,-0.31880754,-0.29918867,-0.30099165,-0.3107705,-0.3081119,-0.2894097,-0.27516913,-0.27516913,-0.27782786,-0.2635873,-0.2377649,-0.2244106,-0.23064464,-0.24130976,-0.23330325,-0.20482212,-0.18077219,-0.17453814,-0.17631054,-0.15760839,-0.12112087,-0.09349543,-0.08371657,-0.08014113,-0.06412822,-0.029382467,0.00087094307,0.016028285,0.03115499,0.06321144,0.109508514,0.14602661,0.15760851,0.16207004,0.18254471,0.21814597,0.23953736,0.23953736,0.22972786,0.22618306,0.2324171,0.22172141,0.18789256,0.14156497,0.103274465,0.07479334,0.034730315,-0.02583772,-0.08814764,-0.13089979,-0.15672219,-0.1878925,-0.23687863,-0.28583425,-0.31434596,-0.3223524,-0.33124506,-0.3579843,-0.38735157,-0.3989334,-0.39447182,-0.39447182,-0.41140157,-0.43276232,-0.43722397,-0.42475587,-0.41940802,-0.42921752,-0.44257182,-0.44345802,-0.42921752,-0.4220972,-0.43187618,-0.43899637,-0.43098992,-0.40782613,-0.39269936,-0.39804727,-0.40605372,-0.3989334,-0.37757266,-0.36599076,-0.36864942,-0.37668645,-0.36687696,-0.34371322,-0.33124506,-0.33928216,-0.35086405,-0.34551615,-0.3241248,-0.31434596,-0.3259278,-0.3472886,-0.35263646,-0.3374791,-0.32681406,-0.33035886,-0.34016836,-0.33839595,-0.32504165,-0.32057995,-0.3374791,-0.3579843,-0.36064297,-0.3464024,-0.3365929,-0.34551615,-0.3597567,-0.3597567,-0.34551615,-0.33928216,-0.35086405,-0.36510456,-0.36152917,-0.34016836,-0.3259278,-0.33570677,-0.35529512,-0.3624153,-0.3517502,-0.34371322,-0.34994727,-0.35440886,-0.34016836,-0.30633944,-0.2769416,-0.27070755,-0.28140324,-0.28583425,-0.2715938,-0.2528916,-0.23330325,-0.20836705,-0.17276567,-0.13802004,-0.1264382,-0.14605707,-0.17899972,-0.19501275,-0.18966484,-0.1878925,-0.19947433,-0.21640408,-0.2244106,-0.2279554,-0.24934673,-0.30099165,-0.3624153,-0.40070587,-0.40605372,-0.40159208,-0.40250885,-0.40159208,-0.3855791,-0.3588705,-0.3481748,-0.3597567,-0.37934506,-0.38646537,-0.37934506,-0.37488347,-0.35352266,-0.27070755,-0.07836872,0.2074809,0.507571,0.7355112,0.8138647,0.6981069,0.3713081,-0.10596353,-0.5832658,-0.90117186,-0.97506374,-0.85395813,-0.6758598,-0.5503231,-0.48975503,-0.44969207,-0.40159208,-0.36687696,-0.35440886,-0.3570981,-0.35529512,-0.3365929,-0.31880754,-0.31611836,-0.31789076,-0.30542266,-0.27871406,-0.26001185,-0.2635873,-0.2769416,-0.2760554,-0.25646704,-0.2395373,-0.23599243,-0.23599243,-0.22352433,-0.19589889,-0.17811358,-0.17899972,-0.18434763,-0.17276567,-0.14159548,-0.11400062,-0.10061574,-0.091723025,-0.066786826,-0.02583772,0.0080218315,0.024034739,0.035616636,0.060552835,0.10238814,0.13533092,0.15048826,0.16207004,0.18431711,0.22172141,0.24396849,0.23953736,0.22438002,0.22172141,0.23418951,0.23507583,0.20836711,0.16919029,0.13444471,0.109508514,0.07479334,0.016028285,-0.052546263,-0.10596353,-0.13624758,-0.16919035,-0.21548724,-0.2644735,-0.29918867,-0.3134597,-0.32681406,-0.35263646,-0.38111752,-0.39358562,-0.39004076,-0.39269936,-0.41051537,-0.4336486,-0.44079942,-0.42833126,-0.4220972,-0.43456537,-0.45057827,-0.44880587,-0.42921752,-0.41406018,-0.41852182,-0.43098992,-0.43098992,-0.41140157,-0.39447182,-0.39447182,-0.40070587,-0.39447182,-0.3713386,-0.35529512,-0.3579843,-0.36687696,-0.36421835,-0.34551615,-0.3348205,-0.34105456,-0.35086405,-0.34463,-0.3241248,-0.31611836,-0.33035886,-0.35352266,-0.3588705,-0.34194076,-0.32858646,-0.3365929,-0.35086405,-0.35440886,-0.34016836,-0.33216184,-0.34282696,-0.3588705,-0.3597567,-0.34105456,-0.32770026,-0.3374791,-0.35529512,-0.3624153,-0.35263646,-0.34463,-0.35352266,-0.36687696,-0.36776322,-0.3517502,-0.33839595,-0.33928216,-0.34371322,-0.33216184,-0.30453646,-0.2849481,-0.28852355,-0.30453646,-0.30722564,-0.2867511,-0.25735325,-0.23330325,-0.21105623,-0.18523377,-0.15672219,-0.14782953,-0.16830409,-0.19770193,-0.21548724,-0.21282864,-0.2119425,-0.2244106,-0.24934673,-0.2733662,-0.29387134,-0.32681406,-0.37222487,-0.4096291,-0.41406018,-0.38735157,-0.36510456,-0.36687696,-0.38023132,-0.38646537,-0.37668645,-0.36599076,-0.36864942,-0.37934506,-0.3846929,-0.3713386,-0.33216184,-0.24665755,-0.07659626,0.17453825,0.45235074,0.66427803,0.73108006,0.60551286,0.2947271,-0.12824118,-0.5432029,-0.8361422,-0.9278805,-0.8325973,-0.65807444,-0.51557744,-0.44611663,-0.42298347,-0.40428132,-0.3704524,-0.34282696,-0.3348205,-0.33928216,-0.33216184,-0.30633944,-0.2867511,-0.2849481,-0.29206836,-0.2849481,-0.26181483,-0.24665755,-0.2511192,-0.26270103,-0.25646704,-0.22884166,-0.20301926,-0.19947433,-0.20570838,-0.19947433,-0.17631054,-0.15317732,-0.14694327,-0.14782953,-0.13447523,-0.105077386,-0.07748252,-0.06412822,-0.052546263,-0.026723862,0.015142083,0.048970938,0.06409764,0.073020935,0.10150206,0.15137446,0.19232368,0.2074809,0.21013951,0.22083521,0.24308217,0.2608981,0.2608981,0.24665761,0.24042356,0.24396849,0.22972786,0.19143736,0.13624763,0.089920044,0.055204988,0.011566639,-0.049887657,-0.116659224,-0.16384244,-0.1905511,-0.21729028,-0.25558078,-0.29652995,-0.3223524,-0.32858646,-0.34016836,-0.36599076,-0.3962748,-0.40516746,-0.39269936,-0.38823777,-0.40339506,-0.42564213,-0.4336486,-0.42121106,-0.41140157,-0.41763562,-0.43010372,-0.42744505,-0.40693992,-0.39269936,-0.40070587,-0.414977,-0.41406018,-0.38823777,-0.36421835,-0.36330158,-0.373111,-0.3739972,-0.3570981,-0.34194076,-0.34105456,-0.3481748,-0.34463,-0.3232386,-0.30633944,-0.3098843,-0.3241248,-0.32770026,-0.31434596,-0.30453646,-0.3116567,-0.3232386,-0.3232386,-0.3081119,-0.30365026,-0.31700456,-0.33570677,-0.3374791,-0.31611836,-0.30187786,-0.3125735,-0.3330481,-0.33928216,-0.32858646,-0.31700456,-0.3214662,-0.3365929,-0.34016836,-0.32770026,-0.31969374,-0.32947266,-0.34282696,-0.34194076,-0.32770026,-0.31880754,-0.33035886,-0.34994727,-0.35263646,-0.3330481,-0.31700456,-0.32057995,-0.3348205,-0.33928216,-0.3241248,-0.3081119,-0.30633944,-0.3081119,-0.29206836,-0.25823945,-0.23599243,-0.23865104,-0.25558078,-0.25469464,-0.21906269,-0.17631054,-0.15137434,-0.14694327,-0.14694327,-0.14248163,-0.14425409,-0.15941137,-0.17899972,-0.18254459,-0.16830409,-0.15849465,-0.17187953,-0.20659459,-0.24399894,-0.2769416,-0.31523216,-0.3597567,-0.3953886,-0.39981967,-0.37845892,-0.3588705,-0.36064297,-0.373111,-0.37488347,-0.3588705,-0.34551615,-0.35263646,-0.37668645,-0.39447182,-0.36776322,-0.2760554,-0.10061574,0.15760851,0.45412326,0.7239294,0.85573053,0.774688,0.46659136,0.012452841,-0.43899637,-0.7657952,-0.89759654,-0.8477241,-0.700796,-0.55120933,-0.45503992,-0.41852182,-0.41051537,-0.3962748,-0.36510456,-0.33839595,-0.33570677,-0.34016836,