-0.31177723,-0.30008757,-0.28761643,-0.27201974,-0.25176603,-0.23073077,-0.2104457,-0.19097334,-0.16993815,-0.14421457,-0.11692816,-0.091986,-0.06782526,-0.043664455,-0.018722296,0.0046571493,0.023379445,0.036631823,0.04441452,0.048321605,0.04207039,0.022597909,-0.009376764,-0.050665736,-0.09667438,-0.14965308,-0.20735139,-0.2634557,-0.3125586,-0.3507533,-0.38116527,-0.40920174,-0.4364881,-0.45986748,-0.47702694,-0.48871666,-0.49806213,-0.5050947,-0.5081891,-0.5089705,-0.5089705,-0.51131463,-0.5152216,-0.5167844,-0.51287746,-0.5081891,-0.50584483,-0.50584483,-0.50740767,-0.50584483,-0.50353193,-0.50196916,-0.50118774,-0.49962497,-0.49571794,-0.4910608,-0.48793525,-0.48402828,-0.48090267,-0.47702694,-0.47468275,-0.47624558,-0.48015255,-0.4816841,-0.47937113,-0.47546417,-0.4739014,-0.4739014,-0.47311997,-0.46999443,-0.46611863,-0.4629931,-0.4629931,-0.46533728,-0.4669001,-0.4676814,-0.4676814,-0.4669001,-0.46143025,-0.45130336,-0.4396137,-0.4294868,-0.41857845,-0.4131087,-0.41076452,-0.4099831,-0.41154593,-0.4131087,-0.4131087,-0.40685755,-0.39985627,-0.38816655,-0.36556852,-0.3335938,-0.29852468,-0.27358252,-0.26579982,-0.2751453,-0.294649,-0.31490278,-0.33593798,-0.36400574,-0.39985627,-0.43570673,-0.46455586,-0.48637247,-0.49649936,-0.5004063,-0.49962497,-0.49649936,-0.4949366,-0.49806213,-0.5027505,-0.50584483,-0.5050947,-0.50431335,-0.50740767,-0.51131463,-0.5144402,-0.51131463,-0.50584483,-0.50353193,-0.51287746,-0.5417266,-0.5791086,-0.58301556,-0.49884355,-0.28761643,0.04207039,0.43411255,0.7723948,0.96180534,0.9329562,0.66015506,0.18315935,-0.36400574,-0.801244,-1.0,-0.9407702,-0.72019756,-0.50118774,-0.3866037,-0.38038385,-0.42714262,-0.46999443,-0.48715383,-0.48246545,-0.46999443,-0.45674193,-0.4450522,-0.43570673,-0.43336248,-0.43258113,-0.4317997,-0.4263612,-0.41857845,-0.40920174,-0.40063763,-0.3936363,-0.38504094,-0.37803966,-0.37256992,-0.36713135,-0.35931736,-0.34919053,-0.33906358,-0.3312809,-0.3242483,-0.31412143,-0.30243176,-0.28996062,-0.27905238,-0.26658124,-0.24785894,-0.22135401,-0.1917547,-0.16524976,-0.1426518,-0.12161654,-0.09511161,-0.068606615,-0.044445872,-0.024160802,-0.0078139305,0.007001281,0.021816492,0.031162143,0.032724857,0.023379445,0.0030943155,-0.029630542,-0.075607955,-0.12549227,-0.17615801,-0.21982247,-0.2611115,-0.30399454,-0.34606493,-0.38347816,-0.41154593,-0.4287054,-0.44117647,-0.4528662,-0.46377444,-0.46999443,-0.47624558,-0.48090267,-0.48480964,-0.48715383,-0.48480964,-0.4816841,-0.48015255,-0.48015255,-0.47937113,-0.47546417,-0.47077578,-0.4684316,-0.469213,-0.47077578,-0.4715572,-0.47077578,-0.4715572,-0.47233856,-0.4715572,-0.469213,-0.46611863,-0.4669001,-0.469213,-0.46999443,-0.46533728,-0.4583047,-0.4528662,-0.44895917,-0.4481778,-0.44427085,-0.44117647,-0.4419579,-0.44427085,-0.4473964,-0.4473964,-0.44427085,-0.44273925,-0.44348943,-0.4450522,-0.4450522,-0.44348943,-0.43883228,-0.43258113,-0.42167282,-0.40763897,-0.39907485,-0.39829344,-0.40063763,-0.40220046,-0.3959493,-0.3889479,-0.38582236,-0.3819154,-0.37491405,-0.3554417,-0.32581115,-0.2969619,-0.27748954,-0.27123833,-0.27748954,-0.29308623,-0.3125586,-0.33593798,-0.3608802,-0.38972932,-0.42011005,-0.44895917,-0.47077578,-0.47937113,-0.47624558,-0.47077578,-0.469213,-0.4739014,-0.4816841,-0.48559105,-0.48793525,-0.48871666,-0.4910608,-0.49184227,-0.48871666,-0.48637247,-0.48637247,-0.48949802,-0.4933738,-0.49962497,-0.518316,-0.54872787,-0.5580734,-0.49728078,-0.3242483,-0.048352838,0.28058386,0.57129467,0.74823415,0.7552353,0.56194913,0.17612684,-0.3055573,-0.72332317,-0.9454586,-0.9298619,-0.7490467,-0.54403955,-0.41857845,-0.3889479,-0.41701567,-0.4559605,-0.47702694,-0.47780836,-0.46455586,-0.44895917,-0.4372695,-0.4317997,-0.4287054,-0.424017,-0.41857845,-0.4131087,-0.40842032,-0.40454465,-0.39751208,-0.3912921,-0.3866037,-0.38347816,-0.37960243,-0.37256992,-0.36478716,-0.3577546,-0.35231608,-0.34528345,-0.3335938,-0.32112277,-0.30865163,-0.29774338,-0.28605366,-0.2704882,-0.25254738,-0.23382509,-0.2159155,-0.19644308,-0.17150092,-0.14577734,-0.12161654,-0.100550115,-0.081077695,-0.06235546,-0.046008646,-0.033537507,-0.025723577,-0.02028507,-0.016378105,-0.019503653,-0.036631882,-0.06782526,-0.11067706,-0.1559043,-0.20344436,-0.25020313,-0.294649,-0.3367194,-0.37100708,-0.40141904,-0.4263612,-0.4473964,-0.46377444,-0.47233856,-0.47780836,-0.48246545,-0.48871666,-0.49649936,-0.50118774,-0.50353193,-0.50431335,-0.5050947,-0.50584483,-0.50353193,-0.50196916,-0.5004063,-0.50196916,-0.5050947,-0.50353193,-0.49962497,-0.49571794,-0.49262363,-0.4910608,-0.48793525,-0.48559105,-0.48480964,-0.48871666,-0.4902795,-0.48793525,-0.48402828,-0.48090267,-0.48015255,-0.48015255,-0.47624558,-0.4715572,-0.4684316,-0.469213,-0.47077578,-0.469213,-0.4669001,-0.46533728,-0.46533728,-0.46533728,-0.46221167,-0.45986748,-0.4606489,-0.4629931,-0.46533728,-0.46455586,-0.4606489,-0.45674193,-0.45442897,-0.450522,-0.44273925,-0.43492532,-0.4287054,-0.42557985,-0.42557985,-0.42323565,-0.41857845,-0.41701567,-0.41701567,-0.4154529,-0.40763897,-0.39285493,-0.3679127,-0.3375008,-0.30943304,-0.28996062,-0.28449088,-0.29539913,-0.31490278,-0.33593798,-0.3554417,-0.37803966,-0.40920174,-0.44661504,-0.48015255,-0.5004063,-0.50662625,-0.50353193,-0.5004063,-0.50196916,-0.5050947,-0.50975186,-0.516003,-0.5214416,-0.52534854,-0.5245671,-0.52300435,-0.5214416,-0.52222294,-0.52222294,-0.5190973,-0.516003,-0.5214416,-0.5448209,-0.57989,-0.59004813,-0.5261299,-0.35231608,-0.07251364,0.27276993,0.59157956,0.7942114,0.81837225,0.6282115,0.2346065,-0.26189286,-0.69603676,-0.93764454,-0.938426,-0.7630806,-0.55494785,-0.4294868,-0.40763897,-0.44583362,-0.48871666,-0.5050947,-0.49962497,-0.48402828,-0.4715572,-0.4629931,-0.45674193,-0.45130336,-0.4473964,-0.4450522,-0.44039506,-0.4317997,-0.42323565,-0.41701567,-0.41467148,-0.4131087,-0.40685755,-0.39907485,-0.39285493,-0.38816655,-0.38269675,-0.37335128,-0.36166155,-0.3507533,-0.34297055,-0.33515662,-0.32268554,-0.30712008,-0.29074204,-0.27592677,-0.2587673,-0.23851347,-0.2159155,-0.1917547,-0.16837531,-0.14577734,-0.120835185,-0.0974558,-0.07795209,-0.06157404,-0.046790004,-0.031193316,-0.019503653,-0.014815271,-0.02028507,-0.036631882,-0.060823917,-0.09433019,-0.13640058,-0.18472219,-0.23382509,-0.27983373,-0.3203413,-0.3577546,-0.3912921,-0.42011005,-0.44117647,-0.4575233,-0.4715572,-0.48480964,-0.49649936,-0.5027505,-0.50584483,-0.50740767,-0.50975186,-0.51209605,-0.51209605,-0.51209605,-0.51287746,-0.5144402,-0.516003,-0.5144402,-0.51131463,-0.50975186,-0.50975186,-0.5089705,-0.5050947,-0.5004063,-0.49884355,-0.50118774,-0.5027505,-0.50196916,-0.49806213,-0.4933738,-0.4910608,-0.48949802,-0.48637247,-0.48402828,-0.48324686,-0.48480964,-0.48559105,-0.48246545,-0.47937113,-0.47858977,-0.48090267,-0.48402828,-0.48324686,-0.48090267,-0.47858977,-0.47858977,-0.47858977,-0.47624558,-0.4739014,-0.4715572,-0.47077578,-0.4715572,-0.46999443,-0.469213,-0.47077578,-0.47468275,-0.47702694,-0.47624558,-0.4739014,-0.4739014,-0.47624558,-0.47780836,-0.47702694,-0.4739014,-0.4715572,-0.47233856,-0.47468275,-0.47468275,-0.4739014,-0.47468275,-0.47858977,-0.4816841,-0.4816841,-0.47937113,-0.47468275,-0.469213,-0.4629931,-0.4552104,-0.45208478,-0.4528662,-0.4559605,-0.45674193,-0.4497406,-0.4372695,-0.42323565,-0.41076452,-0.3936363,-0.36869413,-0.33984494,-0.31490278,-0.30008757,-0.2969619,-0.29930615,-0.30787027,-0.3203413,-0.34062636,-0.3741327,-0.4162343,-0.4559605,-0.48871666,-0.50584483,-0.50662625,-0.5004063,-0.4949366,-0.49415517,-0.49728078,-0.50118774,-0.50196916,-0.5027505,-0.50431335,-0.50740767,-0.5105332,-0.50975186,-0.50740767,-0.5050947,-0.50662625,-0.51287746,-0.5300057,-0.5627618,-0.5845784,-0.5448209,-0.3959493,-0.120835185,0.24629617,0.61883473,0.8838533,0.9656811,0.8144965,0.43179965,-0.098205924,-0.5970495,-0.9072639,-0.95714825,-0.7965869,-0.57445145,-0.42714262,-0.3920735,-0.42714262,-0.47468275,-0.5004063,-0.5027505,-0.49262363,-0.47858977,-0.4676814,-0.46143025,-0.4606489,-0.45908606,-0.45442897,-0.4481778,-0.44039506,-0.43336248,-0.4287054,-0.42089146,-0.4123273,-0.405326,-0.40063763,-0.3959493,-0.38816655,-0.37882107,-0.37100708,-0.36478716,-0.358536,-0.3476277,-0.3343752,-0.32112277,-0.30787027,-0.2938676,-0.2751453,-0.2533288,-0.22994941,-0.20966434,-0.18784773,-0.16446835,-0.13874477,-0.113021195,-0.08886045,-0.066262424,-0.04288304,-0.021066487,-0.0039069653,0.0077826977,0.015565395,0.018690944,0.014002562,-0.0031255484,-0.034318924,-0.07638931,-0.12314808,-0.17303246,-0.22447956,-0.27592677,-0.32346696,-0.36166155,-0.3920735,-0.41857845,-0.4419579,-0.46143025,-0.47546417,-0.48480964,-0.49184227,-0.49806213,-0.50431335,-0.50584483,-0.50662625,-0.50740767,-0.50975186,-0.51131463,-0.50975186,-0.5081891,-0.50662625,-0.50662625,-0.5081891,-0.50584483,-0.50353193,-0.50196916,-0.5027505,-0.5027505,-0.49884355,-0.49571794,-0.49262363,-0.4910608,-0.4910608,-0.48871666,-0.48402828,-0.4816841,-0.48324686,-0.48480964,-0.48402828,-0.48015255,-0.47546417,-0.47311997,-0.47233856,-0.4715572,-0.4715572,-0.4739014,-0.47546417,-0.47468275,-0.47077578,-0.46611863,-0.46455586,-0.46611863,-0.4684316,-0.4669001,-0.46377444,-0.46221167,-0.46377444,-0.46611863,-0.4669001,-0.46533728,-0.46455586,-0.46455586,-0.46611863,-0.4669001,-0.469213,-0.47233856,-0.47468275,-0.4739014,-0.46999443,-0.46455586,-0.46221167,-0.46377444,-0.46611863,-0.46455586,-0.46221167,-0.45908606,-0.45674193,-0.45442897,-0.450522,-0.4497406,-0.45208478,-0.4559605,-0.4583047,-0.4552104,-0.44895917,-0.44427085,-0.44427085,-0.44583362,-0.44273925,-0.4364881,-0.4294868,-0.424017,-0.42479843,-0.4294868,-0.43258113,-0.4310496,-0.424017,-0.4123273,-0.3959493,-0.3819154,-0.37100708,-0.36322433,-0.35231608,-0.3343752,-0.3102144,-0.28996062,-0.28139657,-0.28839785,-0.30633873,-0.3312809,-0.36166155,-0.3951679,-0.42714262,-0.450522,-0.4606489,-0.4629931,-0.46377444,-0.46221167,-0.4583047,-0.4559605,-0.4559605,-0.45986748,-0.46377444,-0.46533728,-0.46377444,-0.4629931,-0.46533728,-0.46533728,-0.46143025,-0.45908606,-0.46377444,-0.48793525,-0.5245671,-0.5370382,-0.47468275,-0.29774338,-0.0109395385,0.34372067,0.6718447,0.877602,0.895543,0.6882229,0.27276993,-0.24242043,-0.6882541,-0.93064326,-0.9244234,-0.7365756,-0.5144402,-0.37256992,-0.3367194,-0.36869413,-0.4123273,-0.4341439,-0.43336248,-0.42167282,-0.4099831,-0.40141904,-0.3951679,-0.39051074,-0.38504094,-0.38116527,-0.37647688,-0.36869413,-0.3608802,-0.35387886,-0.3499719,-0.34606493,-0.33984494,-0.3343752,-0.32815534,-0.32346696,-0.31724697,-0.30787027,-0.29930615,-0.2923048,-0.28605366,-0.27827096,-0.26579982,-0.25020313,-0.23382509,-0.22060388,-0.20500726,-0.18550354,-0.16212416,-0.13796341,-0.115365386,-0.093548775,-0.070950806,-0.04757142,-0.02494216,-0.004688382,0.013221145,0.029599309,0.042851806,0.04675877,0.039726138,0.023379445,-0.0007814169,-0.031974733,-0.07016939,-0.12005377,-0.17381382,-0.22291678,-0.26736265,-0.30399454,-0.33828217,-0.3694443,-0.3951679,-0.4177971,-0.43570673,-0.45130336,-0.4629931,-0.46999443,-0.4739014,-0.47702694,-0.48015255,-0.48090267,-0.48015255,-0.47937113,-0.47937113,-0.4816841,-0.48324686,-0.48090267,-0.47937113,-0.48015255,-0.48480964,-0.48793525,-0.48480964,-0.47780836,-0.46999443,-0.46611863,-0.4669001,-0.46611863,-0.46377444,-0.46143025,-0.4606489,-0.4606489,-0.4583047,-0.45442897,-0.45130336,-0.4497406,-0.4497406,-0.44895917,-0.44661504,-0.4473964,-0.45130336,-0.45364755,-0.45208478,-0.44661504,-0.4419579,-0.44117647,-0.44273925,-0.44273925,-0.44039506,-0.43805087,-0.4372695,-0.43805087,-0.4372695,-0.43570673,-0.43492532,-0.43570673,-0.43805087,-0.43883228,-0.4396137,-0.44117647,-0.44427085,-0.4450522,-0.44427085,-0.44273925,-0.4419579,-0.44348943,-0.4450522,-0.44427085,-0.44273925,-0.44273925,-0.44427085,-0.4450522,-0.44427085,-0.4419579,-0.4396137,-0.43883228,-0.43570673,-0.4287054,-0.42011005,-0.4123273,-0.40685755,-0.40376323,-0.40220046,-0.40141904,-0.40454465,-0.41076452,-0.4131087,-0.40685755,-0.39285493,-0.3717885,-0.34606493,-0.31959116,-0.29774338,-0.28527224,-0.28605366,-0.29852468,-0.3125586,-0.32346696,-0.33515662,-0.35231608,-0.3819154,-0.4162343,-0.4450522,-0.4629931,-0.46999443,-0.469213,-0.46533728,-0.46221167,-0.4629931,-0.4669001,-0.4739014,-0.47937113,-0.47858977,-0.47546417,-0.47468275,-0.47780836,-0.48090267,-0.48090267,-0.47702694,-0.47311997,-0.48559105,-0.5105332,-0.52300435,-0.47858977,-0.33906358,-0.09898734,0.20419443,0.49024808,0.6757517,0.7116022,0.55726075,0.22291684,-0.2236982,-0.6430268,-0.8994812,-0.93220603,-0.77864605,-0.565106,-0.4131087,-0.36322433,-0.38425958,-0.424017,-0.4481778,-0.45130336,-0.44427085,-0.43805087,-0.43336248,-0.42557985,-0.4154529,-0.40610743,-0.40141904,-0.39985627,-0.39751208,-0.39285493,-0.38425958,-0.37569547,-0.36244297,-0.35153466,-0.34453332,-0.34062636,-0.34297055,-0.34453332,-0.33906358,-0.32737392,-0.31412143,-0.30243176,-0.29308623,-0.28370947,-0.27358252,-0.26189286,-0.24785894,-0.23073077,-0.2104457,-0.18784773,-0.16524976,-0.14655876,-0.12627369,-0.10367566,-0.081077695,-0.0600425,-0.044445872,-0.029630542,-0.017159522,-0.005469799,0.0,-0.004688382,-0.018722296,-0.040538907,-0.070950806,-0.10914552,-0.15512282,-0.20344436,-0.24864036,-0.2891792,-0.32581115,-0.3608802,-0.3920735,-0.41389012,-0.4287054,-0.4419579,-0.45674193,-0.47233856,-0.48402828,-0.48949802,-0.4910608,-0.49184227,-0.49262363,-0.4910608,-0.48793525,-0.48559105,-0.48637247,-0.48871666,-0.4910608,-0.4933738,-0.49571794,-0.49806213,-0.49884355,-0.49728078,-0.4933738,-0.4902795,-0.4902795,-0.4910608,-0.4910608,-0.48949802,-0.48793525,-0.48715383,-0.48559105,-0.48090267,-0.47624558,-0.47311997,-0.4739014,-0.4739014,-0.4715572,-0.4669001,-0.46221167,-0.46221167,-0.46221167,-0.45986748,-0.4559605,-0.45208478,-0.45208478,-0.4528662,-0.45364755,-0.45130336,-0.4481778,-0.4473964,-0.44661504,-0.44427085,-0.44117647,-0.43883228,-0.44039506,-0.44427085,-0.44583362,-0.44583362,-0.44661504,-0.4497406,-0.45208478,-0.450522,-0.4419579,-0.43258113,-0.43258113,-0.43570673,-0.43883228,-0.4372695,-0.42714262,-0.41076452,-0.405326,-0.40298182,-0.40141904,-0.40376323,-0.40610743,-0.40376323,-0.3959493,-0.38038385,-0.3554417,-0.32581115,-0.2969619,-0.27358252,-0.2587673,-0.255673,-0.2704882,-0.29930615,-0.3289367,-0.3608802,-0.3889479,-0.41701567,-0.44273925,-0.46377444,-0.47546417,-0.48090267,-0.48480964,-0.48637247,-0.48637247,-0.48559105,-0.48637247,-0.4910608,-0.49571794,-0.49571794,-0.4933738,-0.49184227,-0.4933738,-0.49571794,-0.49649936,-0.49262363,-0.49262363,-0.51209605,-0.54638374,-0.55963624,-0.50196916,-0.3289367,-0.04757142,0.30005622,0.6141777,0.8035569,0.8082453,0.5985811,0.19484901,-0.294649,-0.7046009,-0.91426516,-0.8901044,-0.7053823,-0.50662625,-0.39438647,-0.38269675,-0.42323565,-0.46221167,-0.47624558,-0.469213,-0.45364755,-0.44039506,-0.4317997,-0.4310496,-0.4310496,-0.4317997,-0.4310496,-0.424017,-0.4123273,-0.40298182,-0.39751208,-0.3951679,-0.3920735,-0.3819154,-0.36478716,-0.34840912,-0.3367194,-0.33906358,-0.34297055,-0.34528345,-0.34218913,-0.3289367,-0.3125586,-0.294649,-0.27592677,-0.2611115,-0.24942183,-0.23151219,-0.20110017,-0.16368693,-0.14030755,-0.13096207,-0.1348691,-0.13408768,-0.11067706,-0.073263705,-0.035881698,-0.009376764,0.0046571493,0.007001281,0.005438566,-0.007032573,-0.024160802,-0.040538907,-0.07173222,-0.11380261,-0.16681254,-0.22291678,-0.2704882,-0.30477595,-0.32268554,-0.3375008,-0.36869413,-0.40920174,-0.4552104,-0.49571794,-0.51753455,-0.51209605,-0.49415517,-0.4816841,-0.4902795,-0.5323498,-0.56820035,-0.58848536,-0.5697631,-0.5269113,-0.4933738,-0.47624558,-0.47624558,-0.49415517,-0.5152216,-0.5300057,-0.5300057,-0.51209605,-0.48637247,-0.46377444,-0.4528662,-0.4450522,-0.44895917,-0.4606489,-0.48715383,-0.5144402,-0.5284741,-0.5237857,-0.5105332,-0.5004063,-0.50431335,-0.50431335,-0.49806213,-0.48793525,-0.47858977,-0.48015255,-0.48324686,-0.47858977,-0.4669001,-0.4497406,-0.44583362,-0.46143025,-0.4715572,-0.47702694,-0.47311997,-0.46533728,-0.4606489,-0.46377444,-0.46221167,-0.4481778,-0.4473964,-0.45208478,-0.4583047,-0.47077578,-0.4715572,-0.46221167,-0.4669001,-0.48402828,-0.50662625,-0.516003,-0.5050947,-0.47468275,-0.4364881,-0.4177971,-0.4177971,-0.4263612,-0.43805087,-0.44348943,-0.44117647,-0.44273925,-0.44348943,-0.4419579,-0.4310496,-0.40920174,-0.3951679,-0.38972932,-0.3959493,-0.40920174,-0.38816655,-0.3265925,-0.27748954,-0.25489157,-0.26501846,-0.30865163,-0.34140778,-0.3499719,-0.34840912,-0.3608802,-0.39051074,-0.43336248,-0.48402828,-0.51131463,-0.49884355,-0.46999443,-0.46455586,-0.48402828,-0.5276927,-0.5728887,-0.58223414,-0.55419767,-0.52300435,-0.49262363,-0.4715572,-0.4902795,-0.5269113,-0.56741893,-0.5791086,-0.5604176,-0.5315684,-0.5346941,-0.56820035,-0.5526349,-0.4372695,-0.18006498,0.21744704,0.61261487,0.88619745,0.9688066,0.8004626,0.41307747,-0.09667438,-0.57445145,-0.89166725,-0.9742765,-0.8558167,-0.6633119,-0.50353193,-0.4263612,-0.4131087,-0.43026817,-0.45208478,-0.43883228,-0.4193287,-0.43492532,-0.45908606,-0.5152216,-0.58223414,-0.57989,-0.5370382,-0.48715383,-0.48871666,-0.48871666,-0.469213,-0.4473964,-0.40298182,-0.37491405,-0.37647688,-0.3819154,-0.3717885,-0.33984494,-0.3265925,-0.30633873,-0.30477595,-0.30321312,-0.30787027,-0.32502973,-0.3203413,-0.30086893,-0.28061515,-0.26033008,-0.24629617,-0.23307496,-0.20110017,-0.16446835,-0.15199721,-0.14030755,-0.12549227,-0.08651626,-0.02028507,0.022597909,0.02494216,0.009345531,-0.014815271,-0.023410618,-0.007032573,-0.004688382,-0.0109395385,-0.044445872,-0.11145842,-0.18784773,-0.25801718,-0.3055573,-0.32581115,-0.32502973,-0.33906358,-0.36009878,-0.39051074,-0.44039506,-0.49184227,-0.53078705,-0.55494785,-0.5479465,-0.5354754,-0.5362568,-0.5315684,-0.5261299,-0.5081891,-0.48480964,-0.47311997,-0.4816841,-0.48015255,-0.4933738,-0.49962497,-0.49962497,-0.50353193,-0.50353193,-0.4910608,-0.49262363,-0.50353193,-0.50662625,-0.50196916,-0.49262363,-0.47937113,-0.4739014,-0.47468275,-0.48793525,-0.48402828,-0.47546417,-0.47702694,-0.47624558,-0.47780836,-0.4684316,-0.44895917,-0.4364881,-0.44273925,-0.47937113,-0.5105332,-0.4933738,-0.46455586,-0.41857845,-0.40376323,-0.4317997,-0.4684316,-0.49184227,-0.48949802,-0.4669001,-0.44273925,-0.4287054,-0.42792404,-0.450522,-0.46143025,-0.46143025,-0.4583047,-0.4528662,-0.4528662,-0.4606489,-0.46533728,-0.4583047,-0.45442897,-0.4606489,-0.45674193,-0.44039506,-0.4310496,-0.43336248,-0.46377444,-0.49415517,-0.50196916,-0.47468275,-0.39751208,-0.37335128,-0.38582236,-0.42479843,-0.4715572,-0.4739014,-0.43336248,-0.39829344,-0.3717885,-0.37256992,-0.37256992,-0.37882107,-0.37569547,-0.3959493,-0.4177971,-0.42167282,-0.40454465,-0.36556852,-0.31646562,-0.28761643,-0.30086893,-0.31334,-0.3312809,-0.3297181,-0.30321312,-0.28217793,-0.28217793,-0.3125586,-0.38269675,-0.46999443,-0.5167844,-0.5152216,-0.4715572,-0.42089146,-0.40685755,-0.43492532,-0.48793525,-0.5152216,-0.5050947,-0.47624558,-0.44117647,-0.4450522,-0.50196916,-0.5300057,-0.5471651,-0.52300435,-0.47937113,-0.49649936,-0.5144402,-0.5565106,-0.5697631,-0.50584483,-0.3180284,-0.02028507,0.36163032,0.69991255,0.8768519,0.85112834,0.61883473,0.21044564,-0.2915234,-0.7318873,-0.97505784,-0.9766206,-0.7693005,-0.5144402,-0.36400574,-0.3499719,-0.37960243,-0.42089146,-0.4317997,-0.43026817,-0.4372695,-0.44427085,-0.43883228,-0.40685755,-0.36869413,-0.35153466,-0.3866037,-0.4263612,-0.44427085,-0.44348943,-0.40141904,-0.3577546,-0.33984494,-0.34840912,-0.3936363,-0.4263612,-0.40763897,-0.36634994,-0.29308623,-0.22213537,-0.21904105,-0.24864036,-0.2891792,-0.33906358,-0.3367194,-0.29539913,-0.23773211,-0.17615801,-0.13952619,-0.13561922,-0.14730889,-0.14655876,-0.12627369,-0.09276742,-0.053791344,-0.0109395385,0.0023128986,0.014002562,0.027255177,0.041288972,0.052978635,0.05454147,0.030380726,-0.012471139,-0.05769831,-0.098205924,-0.1348691,-0.1707195,-0.20891422,-0.25254738,-0.29852468,-0.3375008,-0.3679127,-0.3936363,-0.4131087,-0.43258113,-0.450522,-0.4552104,-0.4450522,-0.43570673,-0.43258113,-0.44039506,-0.4583047,-0.4715572,-0.47546417,-0.47311997,-0.4684316,-0.46143025,-0.45908606,-0.45908606,-0.46221167,-0.46533728,-0.46533728,-0.45908606,-0.45364755,-0.4528662,-0.45442897,-0.45674193,-0.4559605,-0.45364755,-0.45130336,-0.450522,-0.4473964,-0.44117647,-0.4364881,-0.43570673,-0.4372695,-0.4396137,-0.4372695,-0.43336248,-0.4317997,-0.4310496,-0.4287054,-0.42245424,-0.41701567,-0.4162343,-0.4193287,-0.42479843,-0.42792404,-0.42323565,-0.41076452,-0.40220046,-0.40376323,-0.41389012,-0.43258113,-0.450522,-0.4552104,-0.45208478,-0.4450522,-0.43805087,-0.43570673,-0.43258113,-0.4294868,-0.42714262,-0.42714262,-0.4317997,-0.44427085,-0.4669001,-0.48090267,-0.47624558,-0.4497406,-0.4123273,-0.37803966,-0.36556852,-0.37256992,-0.3866037,-0.40454465,-0.42089146,-0.424017,-0.4162343,-0.40376323,-0.38816655,-0.37725824,-0.36634994,-0.35153466,-0.3375008,-0.33906358,-0.36009878,-0.37256992,-0.358536,-0.3180284,-0.27358252,-0.2533288,-0.26892543,-0.31724697,-0.37491405,-0.424017,-0.45674193,-0.4676814,-0.46221167,-0.4528662,-0.45130336,-0.4575233,-0.4606489,-0.4629931,-0.46611863,-0.4715572,-0.48559105,-0.49649936,-0.5027505,-0.5027505,-0.49962497,-0.5004063,-0.48871666,-0.48637247,-0.49962497,-0.52222294,-0.5284741,-0.4606489,-0.28061515,0.005438566,0.33359385,0.5962368,0.7108208,0.6539351,0.4146403,0.02494216,-0.40610743,-0.752141,-0.9173908,-0.87063205,-0.6851285,-0.49571794,-0.3889479,-0.37491405,-0.4099831,-0.44583362,-0.45986748,-0.45130336,-0.4364881,-0.42792404,-0.424017,-0.42323565,-0.4193287,-0.41154593,-0.40298182,-0.39673066,-0.39285493,-0.38972932,-0.38116527,-0.37100708,-0.36244297,-0.37100708,-0.40454465,-0.40763897,-0.3912921,-0.34840912,-0.29539913,-0.26658124,-0.27358252,-0.28839785,-0.2923048,-0.28449088,-0.268144,-0.24785894,-0.22994941,-0.2127899,-0.19019192,-0.16524976,-0.14108896,-0.12239796,-0.10680127,-0.08651626,-0.0600425,-0.031193316,-0.008595347,0.005438566,0.011689663,0.014783978,0.013221145,0.0038757324,-0.017159522,-0.048352838,-0.08498466,-0.12627369,-0.17225105,-0.21982247,-0.26579982,-0.30712008,-0.34375197,-0.37647688,-0.405326,-0.42792404,-0.44348943,-0.4552104,-0.46455586,-0.47468275,-0.48246545,-0.48559105,-0.48637247,-0.48637247,-0.48793525,-0.48949802,-0.4902795,-0.4910608,-0.49184227,-0.49262363,-0.49184227,-0.48871666,-0.48480964,-0.48324686,-0.48324686,-0.48402828,-0.48402828,-0.48246545,-0.48402828,-0.48480964,-0.48559105,-0.48402828,-0.47937113,-0.47702694,-0.47624558,-0.47624558,-0.4739014,-0.47077578,-0.46611863,-0.46455586,-0.46533728,-0.46221167,-0.4583047,-0.4552104,-0.45208478,-0.4497406,-0.4473964,-0.4450522,-0.44348943,-0.44348943,-0.44117647,-0.4364881,-0.4310496,-0.43026817,-0.43336248,-0.43805087,-0.43805087,-0.4372695,-0.43805087,-0.44039506,-0.44117647,-0.4372695,-0.43336248,-0.4310496,-0.4317997,-0.4341439,-0.4341439,-0.4317997,-0.4287054,-0.424017,-0.4177971,-0.40842032,-0.40063763,-0.39907485,-0.40063763,-0.40141904,-0.40063763,-0.40063763,-0.39985627,-0.3959493,-0.3819154,-0.3507533,-0.3125586,-0.27983373,-0.26033008,-0.255673,-0.2634557,-0.27748954,-0.2969619,-0.3203413,-0.3476277,-0.37803966,-0.41076452,-0.4419579,-0.46455586,-0.47468275,-0.47311997,-0.469213,-0.469213,-0.47546417,-0.48324686,-0.48559105,-0.48637247,-0.48715383,-0.4910608,-0.49262363,-0.4933738,-0.4933738,-0.49184227,-0.4902795,-0.4910608,-0.49806213,-0.5237857,-0.557292,-0.5518535,-0.4528662,-0.22994941,0.09351754,0.4551791,0.7474526,0.891636,0.8363131,0.5588236,0.09898734,-0.40610743,-0.7895543,-0.93998873,-0.85659814,-0.6469338,-0.45986748,-0.37491405,-0.37882107,-0.42167282,-0.45674193,-0.46999443,-0.46533728,-0.45208478,-0.4396137,-0.4341439,-0.43258113,-0.4310496,-0.42479843,-0.4162343,-0.41076452,-0.40763897,-0.40298182,-0.39438647,-0.38347816,-0.3741327,-0.3694443,-0.36713135,-0.36009878,-0.3499719,-0.33828217,-0.32737392,-0.31724697,-0.30787027,-0.29852468,-0.28839785,-0.27827096,-0.26423705,-0.24707758,-0.22760522,-0.20891422,-0.19097334,-0.1707195,-0.14655876,-0.12161654,-0.0974558,-0.07482654,-0.053009927,-0.028849185,-0.007032573,0.010908246,0.022597909,0.030380726,0.03194356,0.022597909,0.0015314817,-0.029630542,-0.06704384,-0.10758269,-0.15199721,-0.20110017,-0.25176603,-0.29852468,-0.33515662,-0.36713135,-0.39438647,-0.42089146,-0.44273925,-0.4575233,-0.4669001,-0.47468275,-0.48015255,-0.48324686,-0.4816841,-0.48015255,-0.48090267,-0.48402828,-0.48793525,-0.48715383,-0.48402828,-0.48246545,-0.48090267,-0.48015255,-0.47624558,-0.47311997,-0.4715572,-0.4715572,-0.47077578,-0.4669001,-0.46377444,-0.46455586,-0.4676814,-0.46999443,-0.4684316,-0.46533728,-0.46377444,-0.46377444,-0.46221167,-0.4583047,-0.45442897,-0.45442897,-0.4575233,-0.4606489,-0.45908606,-0.45442897,-0.44895917,-0.4473964,-0.44661504,-0.44427085,-0.4419579,-0.44117647,-0.44273925,-0.44348943,-0.44039506,-0.43570673,-0.43258113,-0.43492532,-0.43805087,-0.43805087,-0.4372695,-0.43805087,-0.4396137,-0.4419579,-0.4419579,-0.44117647,-0.44117647,-0.44661504,-0.450522,-0.44895917,-0.44427085,-0.43805087,-0.4317997,-0.42479843,-0.4154529,-0.405326,-0.39751208,-0.39438647,-0.3936363,-0.39051074,-0.38738513,-0.3866037,-0.38816655,-0.38738513,-0.37725824,-0.3554417,-0.32346696,-0.2891792,-0.26033008,-0.24163908,-0.2400763,-0.25176603,-0.26970685,-0.29074204,-0.31177723,-0.3375008,-0.37335128,-0.41389012,-0.4473964,-0.4669001,-0.47311997,-0.4715572,-0.47077578,-0.4739014,-0.47624558,-0.47858977,-0.48090267,-0.48480964,-0.48949802,-0.4902795,-0.4902795,-0.4902795,-0.49184227,-0.49262363,-0.48949802,-0.48871666,-0.5004063,-0.5315684,-0.5643246,-0.5471651,-0.4310496,-0.18784773,0.1597799,0.5455711,0.8557855,1.0,0.9142339,0.5861099,0.07091963,-0.46377444,-0.84334564,-0.97274494,-0.86206794,-0.63524413,-0.44348943,-0.36322433,-0.37725824,-0.42714262,-0.4629931,-0.469213,-0.4575233,-0.44273925,-0.43492532,-0.4317997,-0.42714262,-0.42089146,-0.4131087,-0.40763897,-0.40063763,-0.39285493,-0.38504094,-0.37882107,-0.37491405,-0.3717885,-0.36478716,-0.35700446,-0.34919053,-0.34297055,-0.3367194,-0.32815534,-0.31724697,-0.3055573,-0.2938676,-0.28295934,-0.26970685,-0.25411016,-0.23616928,-0.21747828,-0.1948803,-0.16993815,-0.14499593,-0.120835185,-0.0997687,-0.07951492,-0.056916893,-0.033537507,-0.009376764,0.011689663,0.029599309,0.042851806,0.048321605,0.045977354,0.03428769,0.014783978,-0.012471139,-0.050665736,-0.0997687,-0.1559043,-0.21122712,-0.2587673,-0.29930615,-0.33593798,-0.37100708,-0.40220046,-0.424017,-0.4396137,-0.4497406,-0.4606489,-0.47077578,-0.47780836,-0.4816841,-0.48480964,-0.48793525,-0.4902795,-0.4910608,-0.4910608,-0.4910608,-0.49415517,-0.4949366,-0.49184227,-0.48715383,-0.48402828,-0.48324686,-0.48402828,-0.4816841,-0.47937113,-0.47858977,-0.4816841,-0.48402828,-0.4816841,-0.47546417,-0.469213,-0.46533728,-0.46455586,-0.46533728,-0.46533728,-0.46611863,-0.46611863,-0.46455586,-0.45908606,-0.45364755,-0.450522,-0.450522,-0.45208478,-0.45208478,-0.4497406,-0.4497406,-0.45208478,-0.4528662,-0.45130336,-0.4497406,-0.44661504,-0.44661504,-0.44583362,-0.4419579,-0.44117647,-0.44273925,-0.4473964,-0.450522,-0.45130336,-0.4497406,-0.4481778,-0.450522,-0.450522,-0.4473964,-0.44348943,-0.4396137,-0.4396137,-0.44117647,-0.44273925,-0.4419579,-0.44117647,-0.4419579,-0.43805087,-0.43026817,-0.42089146,-0.4123273,-0.40685755,-0.40376323,-0.40220046,-0.39985627,-0.39907485,-0.40063763,-0.39985627,-0.3951679,-0.38582236,-0.36713135,-0.34062636,-0.3102144,-0.27905238,-0.2587673,-0.25645435,-0.26970685,-0.28605366,-0.30165035,-0.31646562,-0.3335938,-0.36166155,-0.3959493,-0.42792404,-0.4497406,-0.4606489,-0.4629931,-0.4606489,-0.4575233,-0.45674193,-0.45908606,-0.46533728,-0.47077578,-0.47311997,-0.47311997,-0.47233856,-0.4739014,-0.47624558,-0.47624558,-0.4739014,-0.4715572,-0.4816841,-0.5105332,-0.5424768,-0.5315684,-0.4294868,-0.20966434,0.10755134,0.45596063,0.7310746,0.8573482,0.7801775,0.48790395,0.02494216,-0.46999443,-0.8371257,-0.97505784,-0.88075894,-0.6594049,-0.4606489,-0.36478716,-0.36556852,-0.40842032,-0.44348943,-0.45442897,-0.44661504,-0.43570673,-0.4263612,-0.4193287,-0.4123273,-0.405326,-0.40063763,-0.39673066,-0.39051074,-0.38347816,-0.37725824,-0.3741327,-0.37100708,-0.36634994,-0.3577546,-0.34840912,-0.34140778,-0.3343752,-0.3289367,-0.32190406,-0.31334,-0.30477595,-0.29308623,-0.27905238,-0.26423705,-0.2509846,-0.23929489,-0.22604245,-0.2081328,-0.18628496,-0.16446835,-0.14187038,-0.12005377,-0.09667438,-0.07251364,-0.050665736,-0.034318924,-0.019503653,-0.0062511563,0.006219864,0.01247108,0.009345531,-0.002344191,-0.023410618,-0.053791344,-0.09276742,-0.1426518,-0.1948803,-0.24320185,-0.28605366,-0.3242483,-0.36166155,-0.39438647,-0.42089146,-0.44039506,-0.4552104,-0.47077578,-0.48559105,-0.4949366,-0.49884355,-0.49806213,-0.49806213,-0.49962497,-0.49962497,-0.5004063,-0.49962497,-0.5004063,-0.50118774,-0.50196916,-0.50196916,-0.50196916,-0.50431335,-0.50431335,-0.50118774,-0.49649936,-0.4933738,-0.49415517,-0.49415517,-0.49184227,-0.48715383,-0.4816841,-0.47858977,-0.47624558,-0.4739014,-0.47233856,-0.47233856,-0.47233856,-0.47077578,-0.46533728,-0.45986748,-0.4583047,-0.4606489,-0.46377444,-0.46221167,-0.4575233,-0.4528662,-0.45130336,-0.45130336,-0.450522,-0.4473964,-0.44661504,-0.4473964,-0.44895917,-0.44895917,-0.44895917,-0.4497406,-0.45364755,-0.4559605,-0.4552104,-0.45208478,-0.450522,-0.45130336,-0.45208478,-0.4497406,-0.44583362,-0.44583362,-0.4497406,-0.45364755,-0.4552104,-0.45208478,-0.4481778,-0.4481778,-0.4473964,-0.44427085,-0.43805087,-0.4317997,-0.42714262,-0.42245424,-0.42011005,-0.4177971,-0.4162343,-0.42011005,-0.42245424,-0.41857845,-0.40920174,-0.3951679,-0.37647688,-0.35231608,-0.3265925,-0.30321312,-0.2891792,-0.28996062,-0.29930615,-0.3125586,-0.3297181,-0.35153466,-0.38116527,-0.4177971,-0.4497406,-0.47077578,-0.48246545,-0.48480964,-0.4816841,-0.47780836,-0.47546417,-0.47702694,-0.48324686,-0.48871666,-0.49262363,-0.49415517,-0.49415517,-0.4949366,-0.49415517,-0.4902795,-0.48480964,-0.48246545,-0.4902795,-0.50975186,-0.54016376,-0.5479465,-0.49262363,-0.33515662,-0.07795209,0.2423892,0.53700686,0.72172904,0.7412015,0.5666375,0.20653868,-0.255673,-0.6726574,-0.9166094,-0.93064326,-0.763862,-0.55419767,-0.41701567,-0.38425958,-0.41467148,-0.4559605,-0.4739014,-0.47077578,-0.45986748,-0.4481778,-0.44117647,-0.4372695,-0.4419579,-0.4559605,-0.45674193,-0.44348943,-0.41701567,-0.38816655,-0.37491405,-0.37647688,-0.3819154,-0.3819154,-0.37725824,-0.3717885,-0.36634994,-0.3577546,-0.3476277,-0.33906358,-0.33281243,-0.32737392,-0.3180284,-0.30477595,-0.2891792,-0.2751453,-0.26033008,-0.24242043,-0.22060388,-0.1971932,-0.17615801,-0.1559043,-0.1348691,-0.11223984,-0.09042323,-0.07016939,-0.051447153,-0.033537507,-0.017159522,-0.0078139305,-0.0078139305,-0.016378105,-0.033537507,-0.05769831,-0.091986,-0.13561922,-0.18472219,-0.2322936,-0.2767082,-0.31880975,-0.358536,-0.39285493,-0.42011005,-0.44039506,-0.4575233,-0.47468275,-0.48871666,-0.49806213,-0.50118774,-0.5027505,-0.50584483,-0.5105332,-0.51287746,-0.51209605,-0.5105332,-0.51131463,-0.5144402,-0.5152216,-0.51287746,-0.5105332,-0.51131463,-0.5136589,-0.5144402,-0.51209605,-0.50740767,-0.5050947,-0.50353193,-0.50196916,-0.49884355,-0.49728078,-0.49806213,-0.49962497,-0.49884355,-0.4949366,-0.4910608,-0.48949802,-0.48871666,-0.48637247,-0.48246545,-0.47937113,-0.47937113,-0.47858977,-0.47468275,-0.4684316,-0.46221167,-0.4606489,-0.46221167,-0.46377444,-0.46221167,-0.45908606,-0.4575233,-0.45674193,-0.4552104,-0.4528662,-0.45208478,-0.45442897,-0.4583047,-0.45986748,-0.4583047,-0.4559605,-0.45674193,-0.4583047,-0.45908606,-0.4575233,-0.45442897,-0.45442897,-0.4559605,-0.45674193,-0.4552104,-0.45364755,-0.45442897,-0.4552104,-0.4552104,-0.45364755,-0.45130336,-0.4481778,-0.44273925,-0.4341439,-0.42245424,-0.41076452,-0.405326,-0.40454465,-0.405326,-0.40454465,-0.405326,-0.405326,-0.40141904,-0.3920735,-0.37100708,-0.34140778,-0.31099582,-0.28605366,-0.27123833,-0.26892543,-0.27827096,-0.29539913,-0.31724697,-0.33906358,-0.3608802,-0.39051074,-0.42479843,-0.4552104,-0.47468275,-0.48015255,-0.47702694,-0.47468275,-0.47624558,-0.48090267,-0.48324686,-0.48559105,-0.4902795,-0.49415517,-0.49728078,-0.49649936,-0.49415517,-0.49415517,-0.49415517,-0.4933738,-0.49415517,-0.5089705,-0.5424768,-0.56588733,-0.5284741,-0.38116527,-0.11223984,0.2423892,0.6009252,0.8573482,0.9399575,0.79733706,0.4271114,-0.08886045,-0.5767957,-0.8823217,-0.93764454,-0.7841158,-0.56588733,-0.41467148,-0.37022573,-0.39985627,-0.4473964,-0.47702694,-0.48090267,-0.46999443,-0.4559605,-0.4473964,-0.44273925,-0.43883228,-0.43258113,-0.424017,-0.41857845,-0.41389012,-0.40920174,-0.40298182,-0.3951679,-0.39051074,-0.38504094,-0.37882107,-0.37022573,-0.3608802,-0.35387886,-0.3476277,-0.33984494,-0.3297181,-0.31880975,-0.30943304,-0.30086893,-0.2891792,-0.27201974,-0.2533288,-0.2346065,-0.21513408,-0.1917547,-0.16446835,-0.13561922,-0.10992682,-0.085734844,-0.06391829,-0.038976073,-0.015596688,0.005438566,0.021816492,0.032724857,0.03894484,0.035850525,0.021035194,-0.005469799,-0.041320264,-0.083421886,-0.13174343,-0.18472219,-0.23773211,-0.28605366,-0.32581115,-0.35931736,-0.38972932,-0.41701567,-0.4396137,-0.4552104,-0.4676814,-0.47937113,-0.4902795,-0.49806213,-0.5004063,-0.49962497,-0.5004063,-0.5004063,-0.5004063,-0.49649936,-0.49262363,-0.49184227,-0.49415517,-0.49649936,-0.49649936,-0.49415517,-0.49262363,-0.4910608,-0.4902795,-0.48793525,-0.48793525,-0.48871666,-0.48871666,-0.48793525,-0.48324686,-0.47937113,-0.47858977,-0.47858977,-0.47858977,-0.47546417,-0.47233856,-0.4715572,-0.47233856,-0.47233856,-0.469213,-0.46533728,-0.4629931,-0.46143025,-0.45986748,-0.45674193,-0.4552104,-0.4575233,-0.46143025,-0.4629931,-0.4606489,-0.45908606,-0.45986748,-0.46221167,-0.46455586,-0.46221167,-0.45908606,-0.4583047,-0.45908606,-0.45908606,-0.4583047,-0.45674193,-0.4575233,-0.4583047,-0.45908606,-0.45674193,-0.4528662,-0.45208478,-0.45364755,-0.4559605,-0.4559605,-0.45442897,-0.45364755,-0.45364755,-0.4528662,-0.450522,-0.4481778,-0.4473964,-0.4481778,-0.44895917,-0.44661504,-0.44348943,-0.4419579,-0.44117647,-0.44039506,-0.43805087,-0.4372695,-0.44039506,-0.44427085,-0.44583362,-0.44117647,-0.43258113,-0.42557985,-0.4193287,-0.4162343,-0.41701567,-0.4193287,-0.42245424,-0.42167282,-0.41467148,-0.40063763,-0.3866037,-0.3741327,-0.36009878,-0.33984494,-0.31334,-0.28996062,-0.27592677,-0.27358252,-0.27983373,-0.2923048,-0.3055573,-0.32815534,-0.36166155,-0.40141904,-0.4364881,-0.4629931,-0.47702694,-0.47780836,-0.4739014,-0.4684316,-0.46533728,-0.4676814,-0.4715572,-0.47624558,-0.47702694,-0.47624558,-0.47702694,-0.47858977,-0.47937113,-0.47780836,-0.47468275,-0.47468275,-0.48324686,-0.5081891,-0.5393824,-0.5378196,-0.4559605,-0.25176603,0.0623554,0.44036376,0.77083194,0.95711696,0.9313935,0.66715634,0.19872475,-0.33593798,-0.7615178,-0.95636684,-0.8986998,-0.6851285,-0.47624558,-0.3694443,-0.36478716,-0.40842032,-0.44583362,-0.4575233,-0.45364755,-0.44427085,-0.43570673,-0.4287054,-0.42245424,-0.4193287,-0.4177971,-0.4131087,-0.40454465,-0.3920735,-0.3819154,-0.37647688,-0.37569547,-0.37569547,-0.37335128,-0.37022573,-0.36400574,-0.35466027,-0.34453332,-0.3320623,-0.32190406,-0.31334,-0.30477595,-0.2915234,-0.2767082,-0.26189286,-0.24554604,-0.22994941,-0.21200854,-0.1917547,-0.17150092,-0.14887166,-0.1239295,-0.09511161,-0.068606615,-0.046008646,-0.026504934,-0.008595347,0.011689663,0.028036475,0.036631823,0.038163424,0.030380726,0.016346812,-0.009376764,-0.048352838,-0.095893025,-0.14887166,-0.1995374,-0.24629617,-0.29074204,-0.3312809,-0.36556852,-0.39285493,-0.41467148,-0.4341439,-0.45208478,-0.4669001,-0.47780836,-0.48559105,-0.49184227,-0.49571794,-0.49728078,-0.4949366,-0.49262363,-0.4933738,-0.49571794,-0.49884355,-0.49806213,-0.49728078,-0.49728078,-0.49728078,-0.49962497,-0.49728078,-0.49415517,-0.49262363,-0.4902795,-0.48871666,-0.48402828,-0.48015255,-0.47937113,-0.48015255,-0.48090267,-0.47702694,-0.4715572,-0.4669001,-0.46455586,-0.4669001,-0.4669001,-0.46611863,-0.46455586,-0.46221167,-0.4583047,-0.4528662,-0.4481778,-0.44661504,-0.44661504,-0.4473964,-0.44583362,-0.44427085,-0.44427085,-0.4450522,-0.44427085,-0.4419579,-0.43883228,-0.43883228,-0.4396137,-0.44039506,-0.4396137,-0.4396137,-0.44273925,-0.44661504,-0.44895917,-0.4481778,-0.4481778,-0.450522,-0.4559605,-0.4606489,-0.4606489,-0.4583047,-0.45442897,-0.44895917,-0.4450522,-0.4419579,-0.44117647,-0.44273925,-0.4450522,-0.44427085,-0.4396137,-0.4341439,-0.43258113,-0.43336248,-0.4341439,-0.43258113,-0.4310496,-0.4287054,-0.42714262,-0.42245424,-0.4123273,-0.40063763,-0.39285493,-0.3912921,-0.3920735,-0.39438647,-0.39751208,-0.40063763,-0.39985627,-0.3920735,-0.3717885,-0.34218913,-0.31099582,-0.286835,-0.2704882,-0.26501846,-0.26892543,-0.28061515,-0.2969619,-0.3180284,-0.34062636,-0.37022573,-0.40454465,-0.4364881,-0.4575233,-0.46221167,-0.4559605,-0.44895917,-0.44661504,-0.450522,-0.4559605,-0.46221167,-0.4676814,-0.47233856,-0.47624558,-0.47468275,-0.47311997,-0.4715572,-0.4715572,-0.4715572,-0.47233856,-0.48480964,-0.5105332,-0.5346941,-0.51131463,-0.39051074,-0.15824848,0.15352869,0.47465146,0.7116022,0.8074639,0.7123835,0.4146403,-0.04210168,-0.51753455,-0.8526912,-0.958711,-0.84412706,-0.62668,-0.44348943,-0.3608802,-0.36556852,-0.40842032,-0.44583362,-0.45986748,-0.45208478,-0.4364881,-0.42479843,-0.41857845,-0.4162343,-0.40920174,-0.40063763,-0.39438647,-0.3912921,-0.39051074,-0.3889479,-0.38504094,-0.37882107,-0.37256992,-0.36400574,-0.35231608,-0.34140778,-0.3343752,-0.3320623,-0.33049947,-0.32346696,-0.3125586,-0.29930615,-0.28605366,-0.27280122,-0.25801718,-0.24242043,-0.22526097,-0.20891422,-0.18941051,-0.16681254,-0.14499593,-0.1239295,-0.10367566,-0.083421886,-0.0600425,-0.0374133,-0.018722296,-0.004688382,0.005438566,0.011689663,0.011689663,-0.0007814169,-0.025723577,-0.059261084,-0.098205924,-0.14108896,-0.18628496,-0.23382509,-0.28139657,-0.32268554,-0.36009878,-0.39285493,-0.4193287,-0.44117647,-0.45442897,-0.46377444,-0.47311997,-0.48324686,-0.4902795,-0.4933738,-0.4949366,-0.49649936,-0.49962497,-0.50118774,-0.49884355,-0.49415517,-0.49184227,-0.49184227,-0.4949366,-0.49571794,-0.4949366,-0.4933738,-0.4933738,-0.4910608,-0.48559105,-0.48015255,-0.47702694,-0.47937113,-0.48402828,-0.48637247,-0.48637247,-0.48402828,-0.48090267,-0.47702694,-0.47077578,-0.4669001,-0.46455586,-0.46533728,-0.46533728,-0.4629931,-0.45908606,-0.4575233,-0.4583047,-0.45674193,-0.45208478,-0.44583362,-0.4419579,-0.44348943,-0.44583362,-0.4450522,-0.44273925,-0.4419579,-0.44273925,-0.4450522,-0.4450522,-0.44273925,-0.4396137,-0.43805087,-0.43805087,-0.43570673,-0.4341439,-0.43492532,-0.43805087,-0.4396137,-0.44039506,-0.4396137,-0.43883228,-0.44039506,-0.4419579,-0.44117647,-0.4396137,-0.4396137,-0.44039506,-0.43883228,-0.43492532,-0.4287054,-0.42323565,-0.41857845,-0.4131087,-0.40454465,-0.39751208,-0.3951679,-0.39673066,-0.39907485,-0.39829344,-0.39673066,-0.3936363,-0.39051074,-0.37882107,-0.3530975,-0.32190406,-0.294649,-0.28061515,-0.28061515,-0.28761643,-0.2969619,-0.3102144,-0.3289367,-0.3530975,-0.38116527,-0.4131087,-0.44039506,-0.46143025,-0.46999443,-0.46611863,-0.45674193,-0.4528662,-0.4559605,-0.4629931,-0.4676814,-0.47077578,-0.47233856,-0.47468275,-0.47468275,-0.4715572,-0.4684316,-0.4676814,-0.4715572,-0.47858977,-0.4933738,-0.5214416,-0.5393824,-0.5027505,-0.36634994,-0.11692816,0.20966423,0.5300057,0.74901545,0.81137085,0.6765331,0.34372067,-0.1239295,-0.57757705,-0.8690692,-0.9244234,-0.7794274,-0.565106,-0.4131087,-0.36400574,-0.38582236,-0.42557985,-0.45130336,-0.45674193,-0.44895917,-0.43570673,-0.42323565,-0.4154529,-0.41389012,-0.4123273,-0.40685755,-0.39985627,-0.3936363,-0.3920735,-0.3912921,-0.38738513,-0.37882107,-0.3694443,-0.36244297,-0.3577546,-0.3507533,-0.33984494,-0.32737392,-0.31880975,-0.31334,-0.3102144,-0.30633873,-0.29852468,-0.28761643,-0.27280122,-0.25254738,-0.23073077,-0.20891422,-0.18862915,-0.16759396,-0.1426518,-0.1161468,-0.09042323,-0.06782526,-0.04757142,-0.026504934,-0.007032573,0.0077826977,0.014002562,0.013221145,0.007001281,-0.0078139305,-0.030411959,-0.063136876,-0.10367566,-0.14730889,-0.19331753,-0.23929489,-0.28295934,-0.32268554,-0.3554417,-0.38347816,-0.40920174,-0.43336248,-0.45130336,-0.4629931,-0.4684316,-0.4715572,-0.47702694,-0.48324686,-0.48637247,-0.48715383,-0.48793525,-0.48949802,-0.48949802,-0.48793525,-0.48480964,-0.48324686,-0.48480964,-0.48637247,-0.48637247,-0.48402828,-0.48246545,-0.48402828,-0.48559105,-0.48559105,-0.48246545,-0.47858977,-0.47780836,-0.47780836,-0.47702694,-0.47624558,-0.47468275,-0.47546417,-0.47546417,-0.47233856,-0.4684316,-0.46455586,-0.46377444,-0.46377444,-0.46143025,-0.4575233,-0.4528662,-0.45130336,-0.44895917,-0.44661504,-0.44427085,-0.44348943,-0.44583362,-0.4473964,-0.4450522,-0.44039506,-0.43805087,-0.4396137,-0.44273925,-0.44348943,-0.44273925,-0.44117647,-0.44117647,-0.44117647,-0.43883228,-0.43570673,-0.43336248,-0.43570673,-0.43805087,-0.4396137,-0.43805087,-0.4364881,-0.4372695,-0.44039506,-0.44117647,-0.44117647,-0.4396137,-0.44039506,-0.43883228,-0.43336248,-0.424017,-0.4131087,-0.40454465,-0.39751208,-0.39285493,-0.39051074,-0.38972932,-0.39438647,-0.39829344,-0.3959493,-0.38504094,-0.36713135,-0.34062636,-0.30943304,-0.28061515,-0.2587673,-0.25254738,-0.26189286,-0.27905238,-0.2969619,-0.3156842,-0.3367194,-0.36713135,-0.40298182,-0.43492532,-0.45908606,-0.47311997,-0.48015255,-0.48015255,-0.47858977,-0.47780836,-0.47858977,-0.48402828,-0.48793525,-0.48949802,-0.48793525,-0.48715383,-0.48871666,-0.49184227,-0.49184227,-0.48949802,-0.48793525,-0.49806213,-0.5245671,-0.557292,-0.5518535,-0.46221167,-0.2533288,0.0646683,0.43958235,0.7638308,0.94386446,0.9127023,0.6492468,0.1878165,-0.3367194,-0.752141,-0.9431144,-0.8870101,-0.6812215,-0.47937113,-0.37725824,-0.37803966,-0.424017,-0.4629931,-0.47468275,-0.4676814,-0.4575233,-0.4497406,-0.44348943,-0.43805087,-0.43336248,-0.43026817,-0.4263612,-0.42011005,-0.4123273,-0.40454465,-0.39985627,-0.3951679,-0.38816655,-0.37882107,-0.36869413,-0.36244297,-0.35700446,-0.3507533,-0.34140778,-0.3320623,-0.32502973,-0.3156842,-0.30321312,-0.28761643,-0.27123833,-0.25645435,-0.24163908,-0.22213537,-0.19875598,-0.17303246,-0.14965308,-0.12783647,-0.10367566,-0.07717073,-0.04988432,-0.02728635,-0.007032573,0.010908246,0.027255177,0.03741324,0.03894484,0.030380726,0.011689663,-0.016378105,-0.05535412,-0.106019855,-0.1613428,-0.21513408,-0.26423705,-0.30787027,-0.3476277,-0.3819154,-0.41076452,-0.4341439,-0.4528662,-0.47077578,-0.48402828,-0.49184227,-0.49415517,-0.49415517,-0.49728078,-0.50118774,-0.50431335,-0.50584483,-0.50662625,-0.5089705,-0.5089705,-0.50662625,-0.50118774,-0.49649936,-0.49571794,-0.49728078,-0.49806213,-0.49649936,-0.4949366,-0.49415517,-0.49415517,-0.49184227,-0.48871666,-0.48480964,-0.48559105,-0.48715383,-0.48715383,-0.48480964,-0.48090267,-0.48015255,-0.47780836,-0.47546417,-0.47233856,-0.469213,-0.47077578,-0.47311997,-0.47311997,-0.47077578,-0.4669001,-0.46533728,-0.46455586,-0.46221167,-0.45908606,-0.4559605,-0.45442897,-0.4528662,-0.450522,-0.44895917,-0.4481778,-0.450522,-0.45208478,-0.45130336,-0.4473964,-0.44348943,-0.44427085,-0.4473964,-0.44895917,-0.4473964,-0.44427085,-0.44348943,-0.44427085,-0.44583362,-0.44583362,-0.4450522,-0.44583362,-0.4473964,-0.4481778,-0.44661504,-0.44427085,-0.4419579,-0.43805087,-0.4310496,-0.42011005,-0.40920174,-0.40141904,-0.39673066,-0.3936363,-0.39051074,-0.39051074,-0.3936363,-0.3959493,-0.39285493,-0.37803966,-0.3499719,-0.3180284,-0.286835,-0.26501846,-0.25723577,-0.26423705,-0.27983373,-0.29774338,-0.3156842,-0.3343752,-0.35931736,-0.39285493,-0.42792404,-0.4552104,-0.46999443,-0.47311997,-0.47233856,-0.47077578,-0.47077578,-0.47077578,-0.47233856,-0.47780836,-0.48480964,-0.48949802,-0.48871666,-0.48402828,-0.4816841,-0.4816841,-0.48246545,-0.48324686,-0.49184227,-0.518316,-0.55419767,-0.5604176,-0.47937113,-0.27201974,0.050634503,0.43801963,0.7817404,0.9851848,0.97505796,0.7193849,0.2501719,-0.29930615,-0.74435836,-0.9602738,-0.919735,-0.7131963,-0.49884355,-0.37803966,-0.36400574,-0.40685755,-0.45208478,-0.47233856,-0.46611863,-0.4497406,-0.43883228,-0.4310496,-0.42792404,-0.42323565,-0.4162343,-0.40920174,-0.40376323,-0.39751208,-0.3889479,-0.3819154,-0.37647688,-0.37335128,-0.3694443,-0.36244297,-0.35466027,-0.34684634,-0.34062636,-0.3320623,-0.3203413,-0.30712008,-0.29539913,-0.28370947,-0.274364,-0.2587673,-0.24320185,-0.22604245,-0.20657003,-0.183972,-0.15977997,-0.13252491,-0.10992682,-0.08729768,-0.063136876,-0.0374133,-0.013252556,0.005438566,0.01947236,0.03194356,0.041288972,0.045977354,0.03894484,0.01947236,-0.0109395385,-0.050665736,-0.0974558,-0.15043443,-0.20657003,-0.25801718,-0.30086893,-0.3367194,-0.37100708,-0.40063763,-0.42557985,-0.44348943,-0.45674193,-0.4676814,-0.47780836,-0.48637247,-0.4902795,-0.49184227,-0.49415517,-0.49571794,-0.49649936,-0.49415517,-0.4910608,-0.4910608,-0.49184227,-0.49184227,-0.48793525,-0.48246545,-0.48090267,-0.4816841,-0.48480964,-0.48637247,-0.48637247,-0.48637247,-0.48637247,-0.48480964,-0.48090267,-0.47546417,-0.4739014,-0.47233856,-0.47077578,-0.4676814,-0.46533728,-0.46533728,-0.46533728,-0.46377444,-0.45908606,-0.45364755,-0.450522,-0.450522,-0.450522,-0.4497406,-0.4481778,-0.4481778,-0.4473964,-0.44661504,-0.44273925,-0.44117647,-0.44273925,-0.4473964,-0.4481778,-0.44583362,-0.44117647,-0.43805087,-0.43805087,-0.43883228,-0.4364881,-0.43570673,-0.43805087,-0.44117647,-0.44427085,-0.44348943,-0.44348943,-0.44583362,-0.450522,-0.4528662,-0.44895917,-0.4419579,-0.4341439,-0.4263612,-0.4193287,-0.4099831,-0.40376323,-0.40220046,-0.40298182,-0.40220046,-0.39907485,-0.3959493,-0.39438647,-0.3920735,-0.38504094,-0.36478716,-0.33593798,-0.30712008,-0.28295934,-0.268144,-0.26501846,-0.27201974,-0.28761643,-0.30787027,-0.33049947,-0.35466027,-0.3866037,-0.42245424,-0.45208478,-0.469213,-0.46999443,-0.46143025,-0.4552104,-0.45442897,-0.4559605,-0.45674193,-0.45986748,-0.4669001,-0.4715572,-0.47311997,-0.46999443,-0.46533728,-0.46533728,-0.4684316,-0.4715572,-0.47546417,-0.4902795,-0.5214416,-0.5448209,-0.50975186,-0.36556852,-0.10758269,0.2291367,0.5588236,0.78877294,0.8550041,0.7100394,0.35619187,-0.13408768,-0.60095644,-0.89322996,-0.9454586,-0.79580545,-0.57757705,-0.41857845,-0.36244297,-0.38116527,-0.42557985,-0.45674193,-0.46377444,-0.45208478,-0.4364881,-0.42479843,-0.4193287,-0.41701567,-0.4131087,-0.40685755,-0.40141904,-0.39673066,-0.3912921,-0.38425958,-0.37803966,-0.37256992,-0.36869413,-0.36400574,-0.3554417,-0.34606493,-0.33984494,-0.33515662,-0.3312809,-0.32346696,-0.3125586,-0.29930615,-0.28527224,-0.26970685,-0.2509846,-0.23307496,-0.21825969,-0.20266306,-0.18319064,-0.1559043,-0.12705505,-0.0997687,-0.07717073,-0.056135535,-0.033537507,-0.011689723,0.0038757324,0.013221145,0.016346812,0.016346812,0.010908246,-0.005469799,-0.034318924,-0.07404512,-0.12005377,-0.16837531,-0.21982247,-0.26892543,-0.31177723,-0.34684634,-0.37725824,-0.405326,-0.4310496,-0.45208478,-0.46455586,-0.47311997,-0.48015255,-0.48871666,-0.49415517,-0.4949366,-0.4933738,-0.49415517,-0.49571794,-0.49728078,-0.49728078,-0.49571794,-0.49415517,-0.4933738,-0.4933738,-0.4910608,-0.4902795,-0.49184227,-0.4933738,-0.4933738,-0.48949802,-0.48559105,-0.48324686,-0.48559105,-0.48715383,-0.48480964,-0.48090267,-0.47780836,-0.47546417,-0.47468275,-0.46999443,-0.46533728,-0.46143025,-0.45986748,-0.4583047,-0.4559605,-0.45364755,-0.45208478,-0.45208478,-0.4497406,-0.4450522,-0.43883228,-0.43492532,-0.4341439,-0.43336248,-0.4317997,-0.4294868,-0.4287054,-0.4310496,-0.43258113,-0.43258113,-0.4310496,-0.4310496,-0.4341439,-0.4364881,-0.43570673,-0.43258113,-0.4310496,-0.4317997,-0.4341439,-0.43570673,-0.43570673,-0.43805087,-0.4372695,-0.43336248,-0.424017,-0.4131087,-0.405326,-0.40220046,-0.40298182,-0.40141904,-0.40141904,-0.40454465,-0.40610743,-0.40220046,-0.38816655,-0.36400574,-0.33281243,-0.30399454,-0.28217793,-0.26892543,-0.26970685,-0.28061515,-0.29930615,-0.3203413,-0.34062636,-0.36478716,-0.39438647,-0.4263612,-0.4528662,-0.4669001,-0.469213,-0.4669001,-0.46533728,-0.46611863,-0.4676814,-0.46999443,-0.47624558,-0.48402828,-0.4902795,-0.4910608,-0.48637247,-0.4816841,-0.47937113,-0.47937113,-0.47937113,-0.48480964,-0.50431335,-0.5378196,-0.55341625,-0.5027505,-0.34606493,-0.08185905,0.2501719,0.5666375,0.77861464,0.82540476,0.66562474,0.30318177,-0.1785022,-0.61964744,-0.8838845,-0.91195226,-0.7529225,-0.5448209,-0.40298182,-0.36322433,-0.3920735,-0.43570673,-0.46143025,-0.46221167,-0.450522,-0.43883228,-0.4341439,-0.43258113,-0.42792404,-0.42167282,-0.4162343,-0.4131087,-0.41076452,-0.405326,-0.39751208,-0.39051074,-0.38504094,-0.38038385,-0.37256992,-0.36556852,-0.36009878,-0.35622305,-0.35231608,-0.34375197,-0.3312809,-0.31880975,-0.30712008,-0.29539913,-0.28061515,-0.26423705,-0.24629617,-0.229168,-0.21122712,-0.19019192,-0.16759396,-0.14343315,-0.12005377,-0.09667438,-0.070950806,-0.04522723,-0.024160802,-0.009376764,0.0023128986,0.010126829,0.014002562,0.009345531,-0.009376764,-0.03975749,-0.078733504,-0.12549227,-0.1753766,-0.22682375,-0.27280122,-0.31099582,-0.34375197,-0.37491405,-0.40454465,-0.4310496,-0.45130336,-0.46533728,-0.47624558,-0.48637247,-0.49262363,-0.49415517,-0.49415517,-0.4949366,-0.49728078,-0.49884355,-0.49962497,-0.49884355,-0.49884355,-0.49884355,-0.49884355,-0.4949366,-0.48949802,-0.48637247,-0.48715383,-0.48949802,-0.48871666,-0.48559105,-0.48402828,-0.48402828,-0.48480964,-0.48480964,-0.48324686,-0.48090267,-0.47858977,-0.47624558,-0.47233856,-0.469213,-0.469213,-0.4715572,-0.4739014,-0.46999443,-0.46377444,-0.4583047,-0.4559605,-0.45442897,-0.45208478,-0.4497406,-0.4473964,-0.4481778,-0.44895917,-0.44661504,-0.44273925,-0.44117647,-0.44117647,-0.44117647,-0.43883228,-0.43570673,-0.43258113,-0.43492532,-0.43883228,-0.44039506,-0.4396137,-0.4396137,-0.44117647,-0.44348943,-0.44427085,-0.44427085,-0.44427085,-0.44583362,-0.44583362,-0.44427085,-0.44273925,-0.44348943,-0.44583362,-0.44348943,-0.4341439,-0.42089146,-0.40685755,-0.39751208,-0.39438647,-0.39285493,-0.3920735,-0.39438647,-0.39829344,-0.39907485,-0.3912921,-0.37569547,-0.34840912,-0.3156842,-0.28370947,-0.2587673,-0.24864036,-0.25411016,-0.26970685,-0.28761643,-0.30477595,-0.3242483,-0.3507533,-0.3866037,-0.42167282,-0.4473964,-0.4606489,-0.4629931,-0.46143025,-0.45986748,-0.45908606,-0.46143025,-0.46611863,-0.47311997,-0.47937113,-0.4816841,-0.48090267,-0.47937113,-0.47937113,-0.47937113,-0.47780836,-0.47702694,-0.48402828,-0.5089705,-0.5471651,-0.5604176,-0.5004063,-0.32346696,-0.029630542,0.34293926,0.70069385,0.9399575,0.9851848,0.79186726,0.3725387,-0.16212416,-0.6336813,-0.8994812,-0.9103895,-0.7318873,-0.5167844,-0.38582236,-0.36166155,-0.40220046,-0.44895917,-0.47077578,-0.469213,-0.4583047,-0.44895917,-0.44273925,-0.43492532,-0.42714262,-0.4193287,-0.41389012,-0.40842032,-0.40141904,-0.3936363,-0.38738513,-0.38269675,-0.37803966,-0.3694443,-0.35931736,-0.3507533,-0.34528345,-0.34062636,-0.3335938,-0.32346696,-0.3125586,-0.30243176,-0.2923048,-0.27905238,-0.26501846,-0.24942183,-0.23538792,-0.21747828,-0.19331753,-0.16681254,-0.13952619,-0.11380261,-0.08886045,-0.06157404,-0.034318924,-0.009376764,0.010126829,0.02647376,0.041288972,0.05454147,0.060792685,0.056104302,0.039726138,0.013221145,-0.02494216,-0.073263705,-0.12861782,-0.18550354,-0.23616928,-0.28139657,-0.32190406,-0.35931736,-0.39051074,-0.41467148,-0.43258113,-0.44661504,-0.4606489,-0.47077578,-0.47624558,-0.47780836,-0.47858977,-0.48324686,-0.48793525,-0.48871666,-0.48793525,-0.48559105,-0.48559105,-0.48715383,-0.48559105,-0.48402828,-0.48246545,-0.48246545,-0.4816841,-0.47780836,-0.47233856,-0.469213,-0.46999443,-0.4715572,-0.46999443,-0.4669001,-0.4629931,-0.4629931,-0.4629931,-0.46143025,-0.4583047,-0.4552104,-0.4552104,-0.45674193,-0.4575233,-0.4559605,-0.45442897,-0.45364755,-0.45364755,-0.4528662,-0.450522,-0.44895917,-0.4481778,-0.4481778,-0.4450522,-0.44273925,-0.4419579,-0.4419579,-0.44273925,-0.44039506,-0.43570673,-0.43258113,-0.4317997,-0.43258113,-0.4310496,-0.4287054,-0.4263612,-0.4294868,-0.43492532,-0.43805087,-0.43805087,-0.4372695,-0.43805087,-0.4396137,-0.43883228,-0.43570673,-0.4317997,-0.43258113,-0.43336248,-0.4341439,-0.43258113,-0.43026817,-0.4310496,-0.43258113,-0.43336248,-0.43336248,-0.4317997,-0.43258113,-0.4317997,-0.4287054,-0.42167282,-0.4154529,-0.4123273,-0.4099831,-0.41076452,-0.4131087,-0.4131087,-0.4123273,-0.40454465,-0.39051074,-0.3741327,-0.36166155,-0.3530975,-0.34218913,-0.3242483,-0.29852468,-0.2751453,-0.25954866,-0.25645435,-0.26189286,-0.2767082,-0.30086893,-0.33515662,-0.37569547,-0.41154593,-0.4372695,-0.4497406,-0.45364755,-0.45130336,-0.44583362,-0.44273925,-0.44427085,-0.450522,-0.4583047,-0.46455586,-0.4669001,-0.4669001,-0.4669001,-0.4669001,-0.46377444,-0.45986748,-0.45674193,-0.46455586,-0.48949802,-0.52534854,-0.53313124,-0.4629931,-0.27358252,0.032724857,0.41073322,0.7552353,0.9672438,0.9719322,0.7365445,0.28758514,-0.25176603,-0.7007252,-0.9314247,-0.9041383,-0.7053823,-0.48793525,-0.36400574,-0.3476277,-0.38972932,-0.4341439,-0.45208478,-0.44661504,-0.43258113,-0.42011005,-0.41076452,-0.405326,-0.40220046,-0.40063763,-0.39907485,-0.39438647,-0.38738513,-0.38116527,-0.37647688,-0.37100708,-0.36634994,-0.35931736,-0.3530975,-0.34919053,-0.34297055,-0.33281243,-0.3203413,-0.3102144,-0.30477595,-0.29930615,-0.2923048,-0.27827096,-0.2611115,-0.24242043,-0.22291678,-0.20031881,-0.17693943,-0.15356004,-0.13096207,-0.108364046,-0.08264047,-0.05535412,-0.028849185,-0.0062511563,0.014002562,0.031162143,0.045977354,0.05454147,0.052978635,0.04441452,0.02647376,0.0,-0.038976073,-0.085734844,-0.14030755,-0.19331753,-0.24242043,-0.28761643,-0.3297181,-0.36634994,-0.3951679,-0.41701567,-0.4341439,-0.45130336,-0.4669001,-0.47702694,-0.48015255,-0.4816841,-0.48402828,-0.48637247,-0.48871666,-0.48637247,-0.48246545,-0.48090267,-0.48324686,-0.48559105,-0.48637247,-0.48637247,-0.48715383,-0.48637247,-0.48324686,-0.47937113,-0.47624558,-0.47937113,-0.48402828,-0.48246545,-0.47702694,-0.469213,-0.46455586,-0.46377444,-0.46533728,-0.46533728,-0.46533728,-0.46533728,-0.46377444,-0.45908606,-0.45364755,-0.4528662,-0.4559605,-0.4583047,-0.45442897,-0.4450522,-0.4364881,-0.43492532,-0.4372695,-0.43883228,-0.43570673,-0.43258113,-0.43258113,-0.43336248,-0.43492532,-0.4341439,-0.4317997,-0.43336248,-0.43336248,-0.4341439,-0.43336248,-0.43258113,-0.43492532,-0.4364881,-0.43570673,-0.43336248,-0.4317997,-0.4341439,-0.43805087,-0.44039506,-0.4372695,-0.43336248,-0.43026817,-0.4294868,-0.4287054,-0.4294868,-0.43026817,-0.43336248,-0.43492532,-0.43336248,-0.43026817,-0.4263612,-0.42714262,-0.4294868,-0.4287054,-0.42479843,-0.42011005,-0.4177971,-0.4154529,-0.41154593,-0.40842032,-0.4099831,-0.4154529,-0.4193287,-0.4154529,-0.40454465,-0.3912921,-0.37960243,-0.37022573,-0.36009878,-0.34297055,-0.32346696,-0.30712008,-0.2915234,-0.28061515,-0.2767082,-0.28217793,-0.30165035,-0.3289367,-0.3608802,-0.3920735,-0.41701567,-0.43336248,-0.44039506,-0.4372695,-0.43026817,-0.42714262,-0.4310496,-0.43883228,-0.44427085,-0.4450522,-0.44427085,-0.4450522,-0.44661504,-0.44661504,-0.44427085,-0.44273925,-0.44583362,-0.45208478,-0.4669001,-0.49184227,-0.50662625,-0.4715572,-0.33984494,-0.09898734,0.21900988,0.5346627,0.7521411,0.8168094,0.68744135,0.36319315,-0.0974558,-0.5502907,-0.84959686,-0.9150466,-0.7755517,-0.5604176,-0.40298182,-0.34840912,-0.36556852,-0.40298182,-0.4263612,-0.4310496,-0.42557985,-0.41701567,-0.40763897,-0.39985627,-0.3951679,-0.3920735,-0.38738513,-0.3819154,-0.37803966,-0.37725824,-0.37725824,-0.37491405,-0.3679127,-0.35931736,-0.35387886,-0.34840912,-0.34297055,-0.33515662,-0.32737392,-0.32268554,-0.3180284,-0.3102144,-0.2969619,-0.28139657,-0.26736265,-0.25411016,-0.23851347,-0.21982247,-0.19875598,-0.17928368,-0.1613428,-0.14187038,-0.1161468,-0.088079035,-0.06157404,-0.038194656,-0.019503653,-0.0039069653,0.0077826977,0.01247108,0.010908246,0.0023128986,-0.011689723,-0.033537507,-0.06782526,-0.11067706,-0.15977997,-0.2081328,-0.255673,-0.30086893,-0.34218913,-0.37725824,-0.40376323,-0.42479843,-0.44273925,-0.4559605,-0.46611863,-0.4715572,-0.47624558,-0.48324686,-0.48871666,-0.4933738,-0.49415517,-0.49415517,-0.49728078,-0.49962497,-0.49962497,-0.49649936,-0.49415517,-0.4933738,-0.4933738,-0.49184227,-0.48871666,-0.48637247,-0.48715383,-0.48793525,-0.48637247,-0.48090267,-0.47624558,-0.4739014,-0.4739014,-0.47546417,-0.47311997,-0.4715572,-0.47077578,-0.47077578,-0.4684316,-0.4629931,-0.4575233,-0.4559605,-0.4575233,-0.4583047,-0.45674193,-0.45364755,-0.45208478,-0.45130336,-0.44895917,-0.44348943,-0.43883228,-0.4372695,-0.43805087,-0.4396137,-0.4364881,-0.43336248,-0.43026817,-0.4294868,-0.4287054,-0.4263612,-0.42557985,-0.42792404,-0.4317997,-0.4341439,-0.43336248,-0.43258113,-0.43258113,-0.43336248,-0.43258113,-0.42792404,-0.42245424,-0.42011005,-0.42167282,-0.42323565,-0.424017,-0.424017,-0.4263612,-0.4287054,-0.43026817,-0.42792404,-0.42557985,-0.42479843,-0.42792404,-0.4294868,-0.42714262,-0.42323565,-0.42167282,-0.42011005,-0.41701567,-0.4099831,-0.39985627,-0.3951679,-0.39751208,-0.40376323,-0.40454465,-0.40063763,-0.3936363,-0.38425958,-0.3741327,-0.3608802,-0.34140778,-0.31880975,-0.2969619,-0.27983373,-0.26658124,-0.26423705,-0.27201974,-0.286835,-0.30712008,-0.32737392,-0.35466027,-0.38738513,-0.4193287,-0.44273925,-0.45208478,-0.4497406,-0.44583362,-0.44583362,-0.4481778,-0.4497406,-0.45130336,-0.45364755,-0.4575233,-0.46143025,-0.4629931,-0.46221167,-0.4629931,-0.46377444,-0.4629931,-0.46377444,-0.47702694,-0.50584483,-0.5300057,-0.49962497,-0.3694443,-0.12627369,0.19872475,0.5323186,0.7739576,0.86438084,0.7536726,0.43333125,-0.0374133,-0.50740767,-0.82543606,-0.90882665,-0.7817716,-0.5689817,-0.40610743,-0.34606493,-0.36634994,-0.4131087,-0.44583362,-0.45364755,-0.4419579,-0.4263612,-0.4162343,-0.41154593,-0.40920174,-0.405326,-0.40063763,-0.39673066,-0.39051074,-0.38347816,-0.37256992,-0.36400574,-0.35931736,-0.35700446,-0.35466027,-0.34684634,-0.3367194,-0.3289367,-0.32190406,-0.31412143,-0.30243176,-0.29074204,-0.27905238,-0.26892543,-0.25723577,-0.24163908,-0.2236982,-0.20657003,-0.18862915,-0.16681254,-0.14187038,-0.11458403,-0.08964181,-0.06704384,-0.043664455,-0.018722296,0.0038757324,0.021035194,0.032724857,0.040507555,0.048321605,0.04910302,0.03894484,0.014783978,-0.02028507,-0.06391829,-0.113021195,-0.16524976,-0.21747828,-0.26501846,-0.30477595,-0.33906358,-0.37022573,-0.39829344,-0.42089146,-0.4372695,-0.44895917,-0.45908606,-0.469213,-0.47780836,-0.4816841,-0.48480964,-0.48637247,-0.48793525,-0.48871666,-0.48637247,-0.48324686,-0.4816841,-0.48246545,-0.48246545,-0.48015255,-0.47858977,-0.47858977,-0.47937113,-0.47937113,-0.4739014,-0.4684316,-0.46533728,-0.46533728,-0.46611863,-0.46455586,-0.4629931,-0.4629931,-0.46455586,-0.46611863,-0.46455586,-0.4606489,-0.4583047,-0.4583047,-0.4583047,-0.4552104,-0.4497406,-0.44583362,-0.4450522,-0.44427085,-0.44273925,-0.44039506,-0.4396137,-0.44117647,-0.44348943,-0.4419579,-0.4396137,-0.4364881,-0.43570673,-0.43492532,-0.4317997,-0.4287054,-0.42714262,-0.4287054,-0.43026817,-0.43026817,-0.4287054,-0.4287054,-0.4294868,-0.4310496,-0.43026817,-0.4294868,-0.4294868,-0.43258113,-0.4341439,-0.43258113,-0.43026817,-0.4294868,-0.4294868,-0.4294868,-0.42792404,-0.42792404,-0.42792404,-0.4287054,-0.4287054,-0.42557985,-0.42323565,-0.42323565,-0.42557985,-0.4263612,-0.424017,-0.42245424,-0.42089146,-0.4193287,-0.4154529,-0.40685755,-0.39751208,-0.3936363,-0.39751208,-0.40220046,-0.39985627,-0.3920735,-0.38038385,-0.36869413,-0.35700446,-0.34453332,-0.3265925,-0.3055573,-0.28527224,-0.26658124,-0.25411016,-0.25254738,-0.26189286,-0.28139657,-0.30477595,-0.3312809,-0.36322433,-0.39673066,-0.4263612,-0.44427085,-0.4481778,-0.44273925,-0.43883228,-0.44117647,-0.44583362,-0.44895917,-0.44895917,-0.450522,-0.45364755,-0.4575233,-0.4606489,-0.46221167,-0.46455586,-0.4684316,-0.4715572,-0.47858977,-0.50118774,-0.5354754,-0.54403955,-0.47546417,-0.28370947,0.02647376,0.4060762,0.7505783,0.96411824,0.975808,0.74979687,0.3055259,-0.23538792,-0.6890355,-0.919735,-0.89244866,-0.69369256,-0.48324686,-0.36713135,-0.35700446,-0.40141904,-0.44661504,-0.4676814,-0.46533728,-0.44895917,-0.4341439,-0.42557985,-0.42323565,-0.42245424,-0.4177971,-0.41076452,-0.40376323,-0.39751208,-0.39285493,-0.38425958,-0.37725824,-0.37022573,-0.36556852,-0.3608802,-0.3530975,-0.34453332,-0.3375008,-0.33049947,-0.32268554,-0.31099582,-0.2969619,-0.28370947,-0.27280122,-0.2611115,-0.24476463,-0.22760522,-0.20657003,-0.18550354,-0.16290557,-0.13408768,-0.106019855,-0.078733504,-0.0545727,-0.033537507,-0.010158181,0.011689663,0.03194356,0.048321605,0.061573982,0.067793965,0.061573982,0.04207039,0.008564115,-0.034318924,-0.078733504,-0.12861782,-0.183972,-0.24085766,-0.294649,-0.33828217,-0.37256992,-0.39907485,-0.42245424,-0.4419579,-0.4552104,-0.46611863,-0.47858977,-0.49184227,-0.50353193,-0.50975186,-0.5089705,-0.5050947,-0.50353193,-0.5027505,-0.50196916,-0.49962497,-0.49649936,-0.49571794,-0.4949366,-0.4933738,-0.49184227,-0.49262363,-0.49262363,-0.49184227,-0.48871666,-0.48480964,-0.48402828,-0.48715383,-0.4910608,-0.4902795,-0.48871666,-0.48480964,-0.4816841,-0.47937113,-0.47546417,-0.47311997,-0.47311997,-0.4739014,-0.47233856,-0.4669001,-0.46221167,-0.4606489,-0.46533728,-0.4684316,-0.4669001,-0.4629931,-0.45986748,-0.4606489,-0.4629931,-0.4629931,-0.46143025,-0.45908606,-0.4575233,-0.4559605,-0.4528662,-0.45130336,-0.45208478,-0.4552104,-0.4575233,-0.45674193,-0.4559605,-0.4575233,-0.46143025,-0.46221167,-0.4583047,-0.45364755,-0.45208478,-0.4552104,-0.45986748,-0.45908606,-0.4552104,-0.45130336,-0.45130336,-0.45364755,-0.4528662,-0.45130336,-0.4473964,-0.44661504,-0.44661504,-0.44583362,-0.44583362,-0.4481778,-0.45208478,-0.45442897,-0.4528662,-0.4497406,-0.44895917,-0.4497406,-0.4497406,-0.44427085,-0.43492532,-0.42557985,-0.42245424,-0.42323565,-0.4263612,-0.42792404,-0.42714262,-0.42323565,-0.41389012,-0.39985627,-0.38582236,-0.37491405,-0.36478716,-0.3530975,-0.33593798,-0.31646562,-0.30086893,-0.29774338,-0.30865163,-0.32815534,-0.35931736,-0.39673066,-0.4341439,-0.46143025,-0.47468275,-0.47546417,-0.4715572,-0.47233856,-0.47468275,-0.47780836,-0.48015255,-0.48246545,-0.48715383,-0.49262363,-0.49262363,-0.4902795,-0.48793525,-0.48637247,-0.48949802,-0.48949802,-0.49262363,-0.5081891,-0.53860104,-0.5518535,-0.5027505,-0.34606493,-0.083421886,0.24317062,0.5526036,0.75679815,0.7988999,0.637557,0.27201974,-0.21747828,-0.6695318,-0.9431144,-0.9735263,-0.8074952,-0.583797,-0.42479843,-0.37256992,-0.39438647,-0.44039506,-0.47077578,-0.47624558,-0.4684316,-0.45674193,-0.45130336,-0.44661504,-0.4396137,-0.4310496,-0.42479843,-0.42167282,-0.41701567,-0.4099831,-0.39985627,-0.39285493,-0.3912921,-0.39051074,-0.38504094,-0.37725824,-0.3679127,-0.3608802,-0.35387886,-0.34528345,-0.3343752,-0.3242483,-0.31490278,-0.30477595,-0.28996062,-0.27358252,-0.2587673,-0.24554604,-0.23073077,-0.21200854,-0.18706632,-0.15977997,-0.13408768,-0.108364046,-0.08185905,-0.058479667,-0.038976073,-0.026504934,-0.016378105,-0.0078139305,-0.002344191,-0.0062511563,-0.021847844,-0.050665736,-0.09042323,-0.137182,-0.18862915,-0.24242043,-0.2923048,-0.3335938,-0.3679127,-0.39829344,-0.42714262,-0.45208478,-0.4715572,-0.48559105,-0.4949366,-0.50584483,-0.516003,-0.52066016,-0.52300435,-0.52222294,-0.5237857,-0.5245671,-0.5245671,-0.52222294,-0.5190973,-0.5190973,-0.52066016,-0.52222294,-0.52300435,-0.52300435,-0.5237857,-0.5245671,-0.5237857,-0.5190973,-0.5144402,-0.51209605,-0.51131463,-0.5089705,-0.5050947,-0.50118774,-0.50118774,-0.50196916,-0.50196916,-0.49962497,-0.49415517,-0.48871666,-0.48402828,-0.47937113,-0.47858977,-0.47780836,-0.47937113,-0.48090267,-0.47858977,-0.47468275,-0.47077578,-0.47077578,-0.47077578,-0.469213,-0.4676814,-0.46533728,-0.46611863,-0.4669001,-0.4669001,-0.4669001,-0.46611863,-0.469213,-0.47233856,-0.47311997,-0.47233856,-0.47077578,-0.47077578,-0.46999443,-0.4676814,-0.46611863,-0.4676814,-0.47311997,-0.47858977,-0.47937113,-0.47780836,-0.47468275,-0.47624558,-0.47780836,-0.47702694,-0.4739014,-0.46999443,-0.469213,-0.4684316,-0.46377444,-0.4559605,-0.44583362,-0.4372695,-0.43258113,-0.43258113,-0.4341439,-0.43805087,-0.44273925,-0.44273925,-0.4364881,-0.424017,-0.40376323,-0.37960243,-0.3507533,-0.32268554,-0.30321312,-0.29930615,-0.31099582,-0.32737392,-0.34375197,-0.35931736,-0.37882107,-0.40842032,-0.44117647,-0.46999443,-0.48793525,-0.49415517,-0.49415517,-0.49184227,-0.4902795,-0.49184227,-0.4949366,-0.5004063,-0.50353193,-0.5050947,-0.5027505,-0.5027505,-0.5050947,-0.5081891,-0.5089705,-0.50662625,-0.50662625,-0.51987875,-0.5479465,-0.56666875,-0.5300057,-0.39751208,-0.15977997,0.15118456,0.45905483,0.6710633,0.7326375,0.6001439,0.27589548,-0.17772079,-0.61730325,-0.9057011,-0.96805656,-0.8293118,-0.6126461,-0.450522,-0.3920735,-0.4131087,-0.4575233,-0.48480964,-0.48793525,-0.47858977,-0.46999443,-0.46377444,-0.4583047,-0.450522,-0.4419579,-0.4364881,-0.43258113,-0.4294868,-0.42479843,-0.42089146,-0.41701567,-0.41154593,-0.40220046,-0.39285493,-0.38582236,-0.38269675,-0.37882107,-0.3717885,-0.36009878,-0.34919053,-0.34218913,-0.3343752,-0.3242483,-0.30943304,-0.2938676,-0.27983373,-0.26501846,-0.24554604,-0.22060388,-0.1948803,-0.1707195,-0.14809024,-0.12549227,-0.10211289,-0.08029628,-0.06157404,-0.043664455,-0.02728635,-0.012471139,-0.0062511563,-0.010158181,-0.026504934,-0.051447153,-0.085734844,-0.12861782,-0.17772079,-0.22838664,-0.27592677,-0.3180284,-0.35466027,-0.3889479,-0.41857845,-0.4419579,-0.45986748,-0.47624558,-0.49184227,-0.50431335,-0.51209605,-0.5136589,-0.5136589,-0.5167844,-0.52066016,-0.52222294,-0.5214416,-0.51987875,-0.5214416,-0.52222294,-0.52066016,-0.516003,-0.51209605,-0.51209605,-0.5136589,-0.5136589,-0.50975186,-0.50584483,-0.5050947,-0.50584483,-0.50584483,-0.50353193,-0.5027505,-0.5050947,-0.50740767,-0.50740767,-0.50431335,-0.49962497,-0.49806213,-0.49728078,-0.49571794,-0.49184227,-0.48637247,-0.48480964,-0.48246545,-0.48015255,-0.47780836,-0.47624558,-0.47702694,-0.47858977,-0.47702694,-0.47311997,-0.47077578,-0.469213,-0.469213,-0.4684316,-0.46611863,-0.46377444,-0.46377444,-0.46455586,-0.46455586,-0.46455586,-0.46377444,-0.46533728,-0.4669001,-0.46611863,-0.4629931,-0.46143025,-0.4629931,-0.46455586,-0.46377444,-0.46221167,-0.46143025,-0.46611863,-0.4715572,-0.47311997,-0.47077578,-0.46611863,-0.46611863,-0.469213,-0.4715572,-0.47077578,-0.469213,-0.4684316,-0.469213,-0.4676814,-0.46377444,-0.4606489,-0.4606489,-0.46377444,-0.4715572,-0.47937113,-0.47702694,-0.469213,-0.4559605,-0.44039506,-0.43026817,-0.42792404,-0.4310496,-0.43883228,-0.44661504,-0.4481778,-0.44273925,-0.43336248,-0.42167282,-0.4099831,-0.39907485,-0.38972932,-0.37882107,-0.36322433,-0.34375197,-0.32112277,-0.30243176,-0.29539913,-0.30008757,-0.3156842,-0.33593798,-0.36400574,-0.39985627,-0.43492532,-0.46143025,-0.4739014,-0.47546417,-0.4739014,-0.47311997,-0.4739014,-0.47468275,-0.47702694,-0.4816841,-0.48559105,-0.48715383,-0.48480964,-0.4816841,-0.48246545,-0.48480964,-0.48559105,-0.48637247,-0.4933738,-0.518316,-0.5502907,-0.5471651,-0.4606489,-0.25801718,0.045977354,0.4013877,0.7045696,0.87372625,0.8472214,0.5985811,0.15821719,-0.34684634,-0.7482653,-0.93220603,-0.87607056,-0.6734388,-0.47546417,-0.37491405,-0.37491405,-0.42089146,-0.46143025,-0.47468275,-0.46611863,-0.45130336,-0.4419579,-0.4372695,-0.43570673,-0.4317997,-0.42557985,-0.4193287,-0.4123273,-0.40454465,-0.3959493,-0.3889479,-0.38582236,-0.38347816,-0.38038385,-0.3741327,-0.36634994,-0.35931736,-0.3507533,-0.34140778,-0.32737392,-0.31412143,-0.30321312,-0.294649,-0.28449088,-0.26970685,-0.25411016,-0.2369507,-0.21982247,-0.20031881,-0.17615801,-0.14965308,-0.12471086,-0.100550115,-0.07638931,-0.050665736,-0.026504934,-0.007032573,0.008564115,0.021816492,0.033506274,0.039726138,0.035069108,0.017909527,-0.0109395385,-0.04757142,-0.09276742,-0.14577734,-0.20031881,-0.25176603,-0.2969619,-0.33593798,-0.37256992,-0.40376323,-0.4287054,-0.44583362,-0.4575233,-0.469213,-0.48015255,-0.48949802,-0.49415517,-0.49649936,-0.49806213,-0.5004063,-0.50118774,-0.50118774,-0.50118774,-0.50353193,-0.5050947,-0.50431335,-0.50118774,-0.49806213,-0.49884355,-0.5004063,-0.50196916,-0.49884355,-0.49415517,-0.49184227,-0.4910608,-0.4910608,-0.48949802,-0.48715383,-0.48480964,-0.48324686,-0.4816841,-0.47702694,-0.47624558,-0.47858977,-0.48015255,-0.48015255,-0.47468275,-0.469213,-0.4676814,-0.4684316,-0.4684316,-0.46611863,-0.46143025,-0.45908606,-0.4583047,-0.45908606,-0.45908606,-0.4606489,-0.4629931,-0.46533728,-0.46533728,-0.46143025,-0.4575233,-0.4552104,-0.45442897,-0.45442897,-0.450522,-0.44661504,-0.4450522,-0.44583362,-0.4481778,-0.4481778,-0.4473964,-0.4473964,-0.4473964,-0.4481778,-0.44895917,-0.450522,-0.45364755,-0.4559605,-0.4552104,-0.45130336,-0.4473964,-0.44661504,-0.4481778,-0.4497406,-0.4473964,-0.44583362,-0.44583362,-0.4473964,-0.4473964,-0.44427085,-0.4419579,-0.4419579,-0.44427085,-0.44583362,-0.44427085,-0.44117647,-0.4396137,-0.44039506,-0.44039506,-0.43805087,-0.43570673,-0.43570673,-0.43570673,-0.43492532,-0.4294868,-0.42245424,-0.4162343,-0.41154593,-0.40920174,-0.4099831,-0.4131087,-0.4193287,-0.42245424,-0.41701567,-0.40220046,-0.38504094,-0.37100708,-0.36009878,-0.34919053,-0.3312809,-0.30787027,-0.28839785,-0.2751453,-0.27280122,-0.27983373,-0.29539913,-0.31880975,-0.35153466,-0.39051074,-0.424017,-0.45130336,-0.4669001,-0.46999443,-0.46611863,-0.45908606,-0.45674193,-0.45986748,-0.4669001,-0.47468275,-0.47624558,-0.47624558,-0.47702694,-0.47858977,-0.47780836,-0.4715572,-0.46455586,-0.4606489,-0.46999443,-0.49962497,-0.53391266,-0.5300057,-0.44117647,-0.23073077,0.08651626,0.457492,0.7677065,0.9306121,0.88463473,0.6118336,0.14962173,-0.37022573,-0.7770832,-0.95714825,-0.8885416,-0.6695318,-0.45986748,-0.3530975,-0.35153466,-0.39751208,-0.43492532,-0.4473964,-0.44427085,-0.4364881,-0.43026817,-0.42479843,-0.41857845,-0.4131087,-0.40842032,-0.40298182,-0.3951679,-0.38816655,-0.38269675,-0.37882107,-0.3741327,-0.36400574,-0.35466027,-0.3499719,-0.34684634,-0.34297055,-0.3335938,-0.32112277,-0.30943304,-0.30008757,-0.29308623,-0.28217793,-0.26970685,-0.25411016,-0.23851347,-0.22213537,-0.20266306,-0.18319064,-0.16290557,-0.14187038,-0.118490994,-0.09042323,-0.06157404,-0.03510028,-0.013252556,0.005438566,0.022597909,0.036631823,0.04441452,0.04441452,0.03428769,0.01712823,-0.0109395385,-0.049102962,-0.09667438,-0.14887166,-0.1995374,-0.24785894,-0.2915234,-0.3320623,-0.36869413,-0.39829344,-0.424017,-0.44583362,-0.46377444,-0.47624558,-0.4816841,-0.48559105,-0.48871666,-0.4949366,-0.50196916,-0.5050947,-0.5050947,-0.50431335,-0.50431335,-0.50431335,-0.50196916,-0.49806213,-0.4949366,-0.49415517,-0.49262363,-0.48949802,-0.48871666,-0.48871666,-0.49184227,-0.4949366,-0.49415517,-0.4910608,-0.48949802,-0.48871666,-0.48715383,-0.48246545,-0.47858977,-0.47702694,-0.47780836,-0.47702694,-0.47546417,-0.4715572,-0.46999443,-0.4684316,-0.4676814,-0.46455586,-0.46143025,-0.45908606,-0.45908606,-0.4583047,-0.4552104,-0.4528662,-0.45208478,-0.45364755,-0.4559605,-0.4552104,-0.4528662,-0.45130336,-0.4528662,-0.45442897,-0.45364755,-0.45208478,-0.450522,-0.45208478,-0.45364755,-0.4528662,-0.450522,-0.4481778,-0.4473964,-0.44661504,-0.44427085,-0.44273925,-0.44348943,-0.44583362,-0.44895917,-0.44895917,-0.44895917,-0.45130336,-0.45130336,-0.44895917,-0.44427085,-0.43883228,-0.43805087,-0.44039506,-0.44348943,-0.44348943,-0.4419579,-0.44117647,-0.4419579,-0.4419579,-0.4396137,-0.4364881,-0.4341439,-0.43336248,-0.4341439,-0.43336248,-0.4341439,-0.4364881,-0.43805087,-0.4372695,-0.4317997,-0.424017,-0.4162343,-0.4099831,-0.40610743,-0.40141904,-0.40220046,-0.40920174,-0.4154529,-0.4154529,-0.40685755,-0.3936363,-0.38116527,-0.37335128,-0.36244297,-0.34297055,-0.3180284,-0.29539913,-0.27905238,-0.27358252,-0.274364,-0.28370947,-0.30086893,-0.32737392,-0.36166155,-0.3959493,-0.424017,-0.44427085,-0.45442897,-0.4552104,-0.450522,-0.44661504,-0.44661504,-0.45130336,-0.45908606,-0.46221167,-0.46377444,-0.46533728,-0.4684316,-0.4715572,-0.47077578,-0.4676814,-0.46611863,-0.46611863,-0.47546417,-0.49728078,-0.51987875,-0.50353193,-0.40141904,-0.18862915,0.110677004,0.4286741,0.66562474,0.76226795,0.68040884,0.41229606,-0.011689723,-0.4715572,-0.8199663,-0.95402265,-0.8635994,-0.6508408,-0.46221167,-0.37335128,-0.37491405,-0.41389012,-0.4450522,-0.4552104,-0.44895917,-0.43805087,-0.42714262,-0.41857845,-0.41467148,-0.4123273,-0.40920174,-0.40220046,-0.3959493,-0.3920735,-0.38972932,-0.3866037,-0.37803966,-0.3679127,-0.3608802,-0.35700446,-0.3530975,-0.34684634,-0.33984494,-0.3320623,-0.32581115,-0.31880975,-0.30712008,-0.29074204,-0.2767082,-0.2634557,-0.24942183,-0.23073077,-0.20891422,-0.18784773,-0.16837531,-0.15199721,-0.13174343,-0.108364046,-0.08498466,-0.06235546,-0.040538907,-0.02028507,-0.002344191,0.010908246,0.01712823,0.017909527,0.013221145,-0.0031255484,-0.03275615,-0.07482654,-0.1239295,-0.17303246,-0.21982247,-0.26423705,-0.30712008,-0.34606493,-0.37725824,-0.40376323,-0.42557985,-0.44583362,-0.46143025,-0.47233856,-0.4816841,-0.4902795,-0.49884355,-0.50353193,-0.50353193,-0.5004063,-0.49962497,-0.50196916,-0.50431335,-0.5027505,-0.49962497,-0.49806213,-0.5004063,-0.50353193,-0.50353193,-0.50118774,-0.49962497,-0.49962497,-0.49962497,-0.49728078,-0.4949366,-0.49262363,-0.49262363,-0.49184227,-0.48871666,-0.48559105,-0.48480964,-0.48559105,-0.48480964,-0.48090267,-0.47624558,-0.47311997,-0.47311997,-0.47233856,-0.4676814,-0.4629931,-0.45986748,-0.45986748,-0.45986748,-0.4575233,-0.45442897,-0.45208478,-0.4528662,-0.4528662,-0.450522,-0.44583362,-0.44273925,-0.44348943,-0.4450522,-0.44427085,-0.44348943,-0.44273925,-0.44273925,-0.44348943,-0.44348943,-0.44348943,-0.44583362,-0.44895917,-0.45130336,-0.4497406,-0.4481778,-0.4481778,-0.44895917,-0.4497406,-0.44661504,-0.4419579,-0.43883228,-0.4396137,-0.44273925,-0.44348943,-0.44273925,-0.4419579,-0.44348943,-0.44348943,-0.4419579,-0.4396137,-0.43805087,-0.43805087,-0.43570673,-0.42792404,-0.41701567,-0.40610743,-0.39907485,-0.3951679,-0.39285493,-0.39051074,-0.39051074,-0.3936363,-0.3959493,-0.3920735,-0.37960243,-0.3577546,-0.33049947,-0.30165035,-0.27827096,-0.26579982,-0.268144,-0.28061515,-0.29774338,-0.31412143,-0.33049947,-0.35231608,-0.3819154,-0.41467148,-0.44117647,-0.45986748,-0.4684316,-0.47077578,-0.4684316,-0.46533728,-0.46455586,-0.4669001,-0.4715572,-0.4739014,-0.47311997,-0.47233856,-0.4715572,-0.47546417,-0.47937113,-0.47937113,-0.47780836,-0.48324686,-0.50584483,-0.5346941,-0.5269113,-0.4364881,-0.2322936,0.06935668,0.4146403,0.69991255,0.84487724,0.7949929,0.53153706,0.08882916,-0.40220046,-0.7817716,-0.9431144,-0.87063205,-0.66253054,-0.46377444,-0.36556852,-0.36556852,-0.41154593,-0.45130336,-0.46455586,-0.4559605,-0.44117647,-0.43026817,-0.42479843,-0.42011005,-0.4162343,-0.41076452,-0.40685755,-0.40141904,-0.3951679,-0.38738513,-0.38116527,-0.37803966,-0.3741327,-0.3679127,-0.36009878,-0.35231608,-0.34684634,-0.34062636,-0.33281243,-0.32190406,-0.31177723,-0.30399454,-0.29308623,-0.27905238,-0.26189286,-0.24476463,-0.229168,-0.21200854,-0.1917547,-0.16603112,-0.13952619,-0.115365386,-0.091986,-0.06782526,-0.04288304,-0.017940879,0.0023128986,0.016346812,0.028036475,0.035069108,0.03741324,0.028817892,0.010908246,-0.016378105,-0.05535412,-0.10211289,-0.15512282,-0.20891422,-0.25801718,-0.30165035,-0.34062636,-0.37569547,-0.405326,-0.42714262,-0.44348943,-0.45674193,-0.47077578,-0.48246545,-0.48949802,-0.49262363,-0.49415517,-0.49571794,-0.49728078,-0.49728078,-0.4949366,-0.4933738,-0.49415517,-0.4949366,-0.49571794,-0.49571794,-0.49728078,-0.49962497,-0.50118774,-0.49884355,-0.4933738,-0.48949802,-0.48871666,-0.48871666,-0.48637247,-0.48324686,-0.4816841,-0.48324686,-0.48637247,-0.48637247,-0.48246545,-0.47858977,-0.47624558,-0.47546417,-0.4739014,-0.47077578,-0.4684316,-0.4684316,-0.4684316,-0.46611863,-0.4629931,-0.46143025,-0.46221167,-0.46377444,-0.4629931,-0.45986748,-0.4583047,-0.45908606,-0.45908606,-0.4575233,-0.45442897,-0.45364755,-0.4559605,-0.45908606,-0.45908606,-0.4552104,-0.45208478,-0.4528662,-0.4552104,-0.45674193,-0.4552104,-0.45364755,-0.45364755,-0.45364755,-0.4528662,-0.45130336,-0.450522,-0.45364755,-0.4559605,-0.45674193,-0.45442897,-0.4528662,-0.45442897,-0.4559605,-0.4559605,-0.45208478,-0.4473964,-0.44273925,-0.4364881,-0.4263612,-0.4154529,-0.40763897,-0.40842032,-0.4099831,-0.40920174,-0.40842032,-0.40763897,-0.40685755,-0.40220046,-0.3866037,-0.3577546,-0.32268554,-0.29308623,-0.27358252,-0.26892543,-0.2751453,-0.28761643,-0.30633873,-0.32815534,-0.35231608,-0.38116527,-0.41467148,-0.4481778,-0.47468275,-0.48871666,-0.4902795,-0.48637247,-0.48637247,-0.48793525,-0.4902795,-0.4910608,-0.49262363,-0.49649936,-0.49962497,-0.5004063,-0.49806213,-0.49571794,-0.49571794,-0.49728078,-0.49884355,-0.5105332,-0.5378196,-0.56741893,-0.5502907,-0.43492532,-0.19409889,0.14340186,0.510502,0.79733706,0.9251734,0.83787596,0.5237545,0.029599309,-0.48871666,-0.8605051,-0.98521596,-0.87141347,-0.6430268,-0.4497406,-0.36713135,-0.37803966,-0.42557985,-0.46221167,-0.47233856,-0.4629931,-0.4481778,-0.4396137,-0.43805087,-0.4372695,-0.43258113,-0.424017,-0.4154529,-0.40920174,-0.40454465,-0.39673066,-0.38972932,-0.38425958,-0.38116527,-0.37725824,-0.3694443,-0.35700446,-0.34684634,-0.34140778,-0.33828217,-0.3312809,-0.31880975,-0.30321312,-0.28839785,-0.274364,-0.2587673,-0.24085766,-0.22291678,-0.20735139,-0.18941051,-0.16681254,-0.13952619,-0.10992682,-0.0842033,-0.060823917,-0.035881698,-0.0109395385,0.01247108,0.03194356,0.04441452,0.050634503,0.04988432,0.038163424,0.014002562,-0.018722296,-0.059261084,-0.10523844,-0.1559043,-0.21122712,-0.26423705,-0.30865163,-0.34528345,-0.37491405,-0.40376323,-0.4287054,-0.4497406,-0.46455586,-0.47546417,-0.48637247,-0.49571794,-0.50118774,-0.5027505,-0.50353193,-0.5050947,-0.50662625,-0.50584483,-0.50353193,-0.50118774,-0.50196916,-0.5027505,-0.5027505,-0.5004063,-0.49806213,-0.49962497,-0.50118774,-0.5004063,-0.49571794,-0.49184227,-0.49184227,-0.4933738,-0.4933738,-0.4910608,-0.48559105,-0.4816841,-0.48015255,-0.47780836,-0.47468275,-0.47311997,-0.47311997,-0.4715572,-0.4684316,-0.46377444,-0.45986748,-0.46143025,-0.46377444,-0.46377444,-0.45908606,-0.45442897,-0.45364755,-0.4552104,-0.4559605,-0.4528662,-0.4497406,-0.44895917,-0.4481778,-0.4481778,-0.4473964,-0.4481778,-0.450522,-0.4528662,-0.4528662,-0.450522,-0.4497406,-0.4528662,-0.45442897,-0.45364755,-0.44895917,-0.4450522,-0.44583362,-0.4473964,-0.4481778,-0.44661504,-0.4450522,-0.4450522,-0.44427085,-0.43805087,-0.4287054,-0.4193287,-0.4123273,-0.40842032,-0.40685755,-0.40298182,-0.40220046,-0.405326,-0.40763897,-0.40454465,-0.3912921,-0.36556852,-0.3335938,-0.30243176,-0.27983373,-0.2704882,-0.27748954,-0.2938676,-0.3125586,-0.3297181,-0.34528345,-0.36713135,-0.39985627,-0.43492532,-0.46377444,-0.47780836,-0.47858977,-0.47468275,-0.4715572,-0.4715572,-0.47311997,-0.47468275,-0.47937113,-0.48402828,-0.48637247,-0.48715383,-0.48793525,-0.4902795,-0.49415517,-0.49262363,-0.48559105,-0.48324686,-0.49806213,-0.5300057,-0.5393824,-0.47077578,-0.28761643,-0.0007814169,0.34137654,0.6406826,0.8175907,0.81137085,0.59079826,0.174564,-0.3265925,-0.7482653,-0.96180534,-0.93298745,-0.73813844,-0.52222294,-0.39438647,-0.3694443,-0.40610743,-0.450522,-0.4739014,-0.47233856,-0.45908606,-0.4473964,-0.4396137,-0.43492532,-0.4294868,-0.42323565,-0.4193287,-0.4154529,-0.4099831,-0.39985627,-0.38972932,-0.38425958,-0.38116527,-0.37882107,-0.37256992,-0.36400574,-0.3554417,-0.3476277,-0.33906358,-0.3297181,-0.31880975,-0.3102144,-0.30243176,-0.28996062,-0.27280122,-0.25489157,-0.2369507,-0.21982247,-0.20031881,-0.17693943,-0.15277863,-0.13096207,-0.10914552,-0.08729768,-0.06235546,-0.0374133,-0.018722296,-0.0039069653,0.0046571493,0.011689663,0.010908246,0.0007814169,-0.02028507,-0.051447153,-0.088079035,-0.1333062,-0.183972,-0.2369507,-0.28839785,-0.3320623,-0.37022573,-0.40298182,-0.43026817,-0.45130336,-0.46533728,-0.47624558,-0.48715383,-0.49649936,-0.50431335,-0.50740767,-0.5105332,-0.5136589,-0.5144402,-0.51287746,-0.50975186,-0.50740767,-0.5089705,-0.50975186,-0.50740767,-0.50353193,-0.49962497,-0.49962497,-0.50118774,-0.50118774,-0.49806213,-0.4949366,-0.49415517,-0.49415517,-0.49415517,-0.49262363,-0.49184227,-0.4933738,-0.4933738,-0.49184227,-0.48637247,-0.48015255,-0.47937113,-0.48015255,-0.47937113,-0.47624558,-0.47233856,-0.46999443,-0.46999443,-0.4676814,-0.4606489,-0.4552104,-0.4552104,-0.4575233,-0.46143025,-0.45986748,-0.4559605,-0.45442897,-0.4552104,-0.4575233,-0.4583047,-0.4575233,-0.4559605,-0.45442897,-0.45364755,-0.45130336,-0.450522,-0.45364755,-0.45674193,-0.4575233,-0.45442897,-0.450522,-0.450522,-0.45130336,-0.4528662,-0.45208478,-0.4481778,-0.44427085,-0.44039506,-0.4341439,-0.42479843,-0.41701567,-0.41389012,-0.4154529,-0.41701567,-0.4154529,-0.41467148,-0.41467148,-0.41154593,-0.40063763,-0.3741327,-0.33984494,-0.3102144,-0.28996062,-0.28370947,-0.28839785,-0.29930615,-0.31646562,-0.3375008,-0.36009878,-0.38582236,-0.4162343,-0.4481778,-0.47546417,-0.4902795,-0.4902795,-0.48480964,-0.48015255,-0.48015255,-0.48324686,-0.48480964,-0.48715383,-0.49184227,-0.49649936,-0.49806213,-0.49571794,-0.49262363,-0.4910608,-0.48949802,-0.4910608,-0.49728078,-0.52066016,-0.55341625,-0.55419767,-0.47311997,-0.274364,0.022597909,0.36084902,0.6422453,0.7942114,0.766925,0.5346627,0.1184597,-0.3679127,-0.763862,-0.94858414,-0.8986998,-0.7007252,-0.5004063,-0.3912921,-0.37647688,-0.4099831,-0.4473964,-0.46533728,-0.46377444,-0.45208478,-0.4396137,-0.43258113,-0.4294868,-0.4287054,-0.42479843,-0.41701567,-0.41076452,-0.40376323,-0.3959493,-0.3889479,-0.38269675,-0.37882107,-0.37569547,-0.37022573,-0.3608802,-0.3507533,-0.34297055,-0.33593798,-0.3297181,-0.3203413,-0.30943304,-0.29930615,-0.28761643,-0.27358252,-0.25489157,-0.23382509,-0.21435273,-0.19566166,-0.1753766,-0.15043443,-0.12314808,-0.0974558,-0.07404512,-0.053009927,-0.030411959,-0.010158181,0.005438566,0.01712823,0.022597909,0.022597909,0.013221145,-0.007032573,-0.040538907,-0.08264047,-0.12861782,-0.17928368,-0.23073077,-0.27983373,-0.32190406,-0.35622305,-0.38425958,-0.40842032,-0.4310496,-0.450522,-0.4629931,-0.47311997,-0.4816841,-0.48949802,-0.4949366,-0.49649936,-0.49649936,-0.49649936,-0.49728078,-0.49728078,-0.49649936,-0.49415517,-0.4933738,-0.4949366,-0.4949366,-0.49184227,-0.48949802,-0.48715383,-0.48559105,-0.48324686,-0.47937113,-0.47702694,-0.47858977,-0.4816841,-0.4816841,-0.47780836,-0.4739014,-0.47233856,-0.47311997,-0.47311997,-0.4684316,-0.46455586,-0.4629931,-0.46377444,-0.4629931,-0.45908606,-0.45442897,-0.45364755,-0.4552104,-0.45674193,-0.4552104,-0.45130336,-0.4481778,-0.4481778,-0.44895917,-0.4481778,-0.44583362,-0.44583362,-0.44583362,-0.44583362,-0.44427085,-0.44348943,-0.44583362,-0.44895917,-0.4497406,-0.44661504,-0.4419579,-0.4396137,-0.44039506,-0.4419579,-0.44117647,-0.44039506,-0.44039506,-0.44117647,-0.44273925,-0.44117647,-0.44039506,-0.44117647,-0.44348943,-0.4450522,-0.44427085,-0.44117647,-0.4396137,-0.44039506,-0.44039506,-0.43805087,-0.43570673,-0.43570673,-0.43805087,-0.4396137,-0.43805087,-0.43492532,-0.43026817,-0.42479843,-0.4177971,-0.4099831,-0.4099831,-0.41701567,-0.4263612,-0.4294868,-0.42089146,-0.405326,-0.38972932,-0.37960243,-0.3717885,-0.35931736,-0.34062636,-0.31959116,-0.29930615,-0.28370947,-0.27592677,-0.27983373,-0.294649,-0.31959116,-0.35153466,-0.38504094,-0.41467148,-0.43805087,-0.45130336,-0.4528662,-0.4481778,-0.44348943,-0.44348943,-0.4481778,-0.45364755,-0.4559605,-0.4575233,-0.45908606,-0.4629931,-0.46533728,-0.46611863,-0.46455586,-0.46533728,-0.469213,-0.48246545,-0.5081891,-0.5378196,-0.5292555,-0.43570673,-0.22060388,0.10286307,0.47308862,0.7809589,0.9399575,0.891636,0.62039757,0.16056132,-0.35466027,-0.75526667,-0.9290805,-0.85737956,-0.6469338,-0.45208478,-0.35931736,-0.36244297,-0.40454465,-0.44039506,-0.4528662,-0.4497406,-0.44039506,-0.4294868,-0.42089146,-0.41701567,-0.4154529,-0.41154593,-0.40454465,-0.39751208,-0.3920735,-0.3889479,-0.38582236,-0.37882107,-0.3717885,-0.36634994,-0.36322433,-0.358536,-0.3507533,-0.34218913,-0.3335938,-0.32502973,-0.31646562,-0.30243176,-0.28761643,-0.27358252,-0.26033008,-0.24707758,-0.22838664,-0.20657003,-0.18319064,-0.15977997,-0.13561922,-0.108364046,-0.07951492,-0.053009927,-0.028067768,-0.004688382,0.018690944,0.039726138,0.05376005,0.060011268,0.058448434,0.04988432,0.031162143,0.0007814169,-0.04210168,-0.09276742,-0.14655876,-0.20266306,-0.25801718,-0.30787027,-0.34919053,-0.37882107,-0.40298182,-0.42557985,-0.44661504,-0.46455586,-0.47546417,-0.4816841,-0.48793525,-0.4949366,-0.50118774,-0.5027505,-0.50353193,-0.50353193,-0.50353193,-0.50196916,-0.49649936,-0.4910608,-0.48715383,-0.48715383,-0.48871666,-0.48715383,-0.48637247,-0.48637247,-0.48793525,-0.48793525,-0.48559105,-0.4816841,-0.48015255,-0.48015255,-0.48015255,-0.47780836,-0.47468275,-0.4739014,-0.4739014,-0.47311997,-0.4684316,-0.46221167,-0.4575233,-0.4575233,-0.4575233,-0.45674193,-0.4559605,-0.4559605,-0.4552104,-0.45442897,-0.450522,-0.44661504,-0.4450522,-0.4473964,-0.44895917,-0.4473964,-0.44348943,-0.44039506,-0.44039506,-0.44273925,-0.44427085,-0.4450522,-0.44583362,-0.44661504,-0.44661504,-0.44427085,-0.44348943,-0.44427085,-0.44583362,-0.44583362,-0.4419579,-0.43805087,-0.43805087,-0.4396137,-0.44117647,-0.4396137,-0.4372695,-0.4364881,-0.4372695,-0.4372695,-0.4341439,-0.43026817,-0.4287054,-0.4294868,-0.43026817,-0.4287054,-0.42714262,-0.4263612,-0.4287054,-0.4310496,-0.4294868,-0.42714262,-0.42714262,-0.42792404,-0.42714262,-0.42323565,-0.41857845,-0.41857845,-0.42167282,-0.4263612,-0.42714262,-0.42479843,-0.42323565,-0.424017,-0.42479843,-0.42245424,-0.4193287,-0.41857845,-0.42011005,-0.42245424,-0.42167282,-0.4193287,-0.4177971,-0.41857845,-0.41857845,-0.41701567,-0.41389012,-0.4099831,-0.40610743,-0.39751208,-0.38582236,-0.37725824,-0.37725824,-0.38504094,-0.39285493,-0.39051074,-0.37882107,-0.3608802,-0.34297055,-0.32502973,-0.30477595,-0.28295934,-0.26267427,-0.25020313,-0.24476463,-0.24707758,-0.25723577,-0.27592677,-0.30086893,-0.3289367,-0.3554417,-0.38347816,-0.4099831,-0.43258113,-0.4473964,-0.4497406,-0.4473964,-0.44427085,-0.44583362,-0.4481778,-0.44895917,-0.450522,-0.4528662,-0.4559605,-0.4606489,-0.46143025,-0.46143025,-0.46143025,-0.46143025,-0.46221167,-0.4669001,-0.48637247,-0.5214416,-0.5354754,-0.47468275,-0.29308623,0.0077826977,0.3834468,0.72719884,0.9446459,0.9680252,0.75679815,0.32890534,-0.20500726,-0.66562486,-0.91195226,-0.9002313,-0.70694506,-0.48871666,-0.3577546,-0.3335938,-0.37022573,-0.4154529,-0.44273925,-0.44583362,-0.43570673,-0.42323565,-0.41467148,-0.41076452,-0.40763897,-0.40141904,-0.39438647,-0.38816655,-0.3819154,-0.37647688,-0.36869413,-0.36166155,-0.3577546,-0.35622305,-0.3507533,-0.34140778,-0.33049947,-0.32112277,-0.31646562,-0.31099582,-0.30086893,-0.286835,-0.27280122,-0.26033008,-0.24629617,-0.22994941,-0.20966434,-0.18706632,-0.16681254,-0.14421457,-0.11927241,-0.093548775,-0.06782526,-0.043664455,-0.021066487,0.0023128986,0.025692344,0.045977354,0.060011268,0.06857526,0.07248235,0.067793965,0.052197337,0.025692344,-0.0109395385,-0.053009927,-0.100550115,-0.15277863,-0.20735139,-0.25954866,-0.30399454,-0.33828217,-0.36634994,-0.3920735,-0.41389012,-0.4294868,-0.44117647,-0.45208478,-0.46377444,-0.4739014,-0.47858977,-0.48090267,-0.48090267,-0.48324686,-0.48559105,-0.48324686,-0.47937113,-0.47624558,-0.47624558,-0.47702694,-0.47780836,-0.47780836,-0.47624558,-0.47546417,-0.47311997,-0.46999443,-0.46611863,-0.46611863,-0.4684316,-0.46999443,-0.4684316,-0.46611863,-0.46377444,-0.46455586,-0.46455586,-0.46143025,-0.45674193,-0.45442897,-0.4528662,-0.45208478,-0.44895917,-0.44583362,-0.44583362,-0.4497406,-0.45130336,-0.44895917,-0.44348943,-0.43883228,-0.43805087,-0.4364881,-0.43336248,-0.4294868,-0.4287054,-0.4317997,-0.43570673,-0.4364881,-0.43336248,-0.4310496,-0.4317997,-0.43258113,-0.4294868,-0.4263612,-0.42557985,-0.4263612,-0.4310496,-0.4317997,-0.43026817,-0.4287054,-0.4310496,-0.43258113,-0.4317997,-0.4294868,-0.42714262,-0.42792404,-0.4294868,-0.43026817,-0.4294868,-0.4287054,-0.43026817,-0.43258113,-0.4317997,-0.4287054,-0.42479843,-0.42167282,-0.42089146,-0.4193287,-0.4177971,-0.4177971,-0.42167282,-0.42557985,-0.42714262,-0.42714262,-0.42479843,-0.42245424,-0.42011005,-0.41701567,-0.4154529,-0.41467148,-0.4162343,-0.4177971,-0.41701567,-0.4154529,-0.41467148,-0.41701567,-0.41857845,-0.4177971,-0.4154529,-0.4131087,-0.41154593,-0.4099831,-0.405326,-0.39829344,-0.3912921,-0.3889479,-0.38504094,-0.38269675,-0.38425958,-0.38582236,-0.38738513,-0.38504094,-0.37647688,-0.36322433,-0.3476277,-0.33281243,-0.31177723,-0.28839785,-0.26736265,-0.2533288,-0.25254738,-0.2611115,-0.27201974,-0.2891792,-0.30943304,-0.33515662,-0.36400574,-0.38972932,-0.41076452,-0.42714262,-0.4372695,-0.44039506,-0.43805087,-0.43492532,-0.43492532,-0.44117647,-0.44661504,-0.44661504,-0.44427085,-0.44273925,-0.44427085,-0.4473964,-0.44661504,-0.4419579,-0.43883228,-0.44273925,-0.46143025,-0.4902795,-0.4933738,-0.42714262,-0.25489157,0.014783978,0.33512533,0.6133963,0.77552044,0.77083194,0.57129467,0.19172347,-0.27827096,-0.68590987,-0.9064825,-0.8908858,-0.7053823,-0.4910608,-0.36009878,-0.3320623,-0.36478716,-0.40454465,-0.424017,-0.42245424,-0.41389012,-0.40454465,-0.3951679,-0.38816655,-0.3819154,-0.37803966,-0.37569547,-0.37100708,-0.36400574,-0.358536,-0.35387886,-0.34840912,-0.34297055,-0.3343752,-0.32815534,-0.32268554,-0.3180284,-0.3102144,-0.30086893,-0.2923048,-0.28527224,-0.27592677,-0.26267427,-0.24554604,-0.22838664,-0.2159155,-0.20266306,-0.18706632,-0.16837531,-0.14730889,-0.12549227,-0.10133147,-0.07482654,-0.046790004,-0.021066487,-0.0007814169,0.01712823,0.035069108,0.04988432,0.058448434,0.056104302,0.045195937,0.028036475,0.0023128986,-0.031974733,-0.07638931,-0.12627369,-0.17381382,-0.21982247,-0.26501846,-0.30712008,-0.34606493,-0.37647688,-0.39673066,-0.41389012,-0.4294868,-0.44348943,-0.45442897,-0.4606489,-0.46533728,-0.47077578,-0.47468275,-0.47624558,-0.47624558,-0.47780836,-0.48015255,-0.48402828,-0.48402828,-0.48090267,-0.47546417,-0.4739014,-0.4715572,-0.469213,-0.469213,-0.469213,-0.4715572,-0.47233856,-0.4676814,-0.46143025,-0.45908606,-0.4606489,-0.46377444,-0.46377444,-0.4583047,-0.4528662,-0.450522,-0.450522,-0.45130336,-0.44895917,-0.4473964,-0.44895917,-0.44895917,-0.4473964,-0.44273925,-0.4364881,-0.43258113,-0.43026817,-0.42792404,-0.424017,-0.42089146,-0.42011005,-0.41857845,-0.41467148,-0.41154593,-0.4099831,-0.4123273,-0.4154529,-0.4154529,-0.41389012,-0.41076452,-0.41154593,-0.41389012,-0.41467148,-0.4131087,-0.41154593,-0.4131087,-0.4154529,-0.41701567,-0.4162343,-0.41467148,-0.4162343,-0.4177971,-0.41701567,-0.41467148,-0.41154593,-0.41076452,-0.41154593,-0.41154593,-0.4099831,-0.40842032,-0.4099831,-0.40920174,-0.40763897,-0.405326,-0.405326,-0.4099831,-0.4131087,-0.4131087,-0.40920174,-0.405326,-0.40454465,-0.40454465,-0.405326,-0.40454465,-0.40376323,-0.405326,-0.405326,-0.40454465,-0.40141904,-0.39985627,-0.39985627,-0.39829344,-0.3936363,-0.38582236,-0.37725824,-0.3717885,-0.3694443,-0.3717885,-0.37491405,-0.37803966,-0.37725824,-0.37100708,-0.35931736,-0.34453332,-0.33049947,-0.3180284,-0.30321312,-0.28449088,-0.26423705,-0.24942183,-0.24707758,-0.255673,-0.27123833,-0.28996062,-0.31099582,-0.33828217,-0.36713135,-0.3936363,-0.41154593,-0.42167282,-0.4263612,-0.42792404,-0.42792404,-0.4263612,-0.42792404,-0.4317997,-0.43570673,-0.43805087,-0.4364881,-0.43570673,-0.4364881,-0.43883228,-0.43883228,-0.43570673,-0.43805087,-0.45442897,-0.48715383,-0.50662625,-0.46533728,-0.32346696,-0.073263705,0.25407887,0.5814215,0.81215227,0.8838533,0.7513596,0.41542172,-0.056916893,-0.51287746,-0.8129649,-0.8838845,-0.7506095,-0.5409452,-0.38347816,-0.32815534,-0.3499719,-0.39438647,-0.424017,-0.4287054,-0.42011005,-0.41154593,-0.405326,-0.39985627,-0.39438647,-0.39051074,-0.38738513,-0.38425958,-0.37803966,-0.3679127,-0.35931736,-0.35466027,-0.35153466,-0.34606493,-0.3375008,-0.32815534,-0.32112277,-0.31646562,-0.3102144,-0.30243176,-0.294649,-0.286835,-0.27827096,-0.26658124,-0.2509846,-0.23382509,-0.21825969,-0.20422584,-0.18628496,-0.16446835,-0.14108896,-0.118490994,-0.09667438,-0.07251364,-0.046790004,-0.021847844,0.0007814169,0.020253778,0.036631823,0.05141592,0.060011268,0.058448434,0.047540188,0.027255177,-0.002344191,-0.04288304,-0.093548775,-0.14965308,-0.20422584,-0.25020313,-0.29074204,-0.32737392,-0.35931736,-0.38738513,-0.4099831,-0.4287054,-0.44427085,-0.4575233,-0.46611863,-0.47077578,-0.47546417,-0.4816841,-0.48637247,-0.48715383,-0.48246545,-0.47858977,-0.47780836,-0.48015255,-0.4816841,-0.47937113,-0.47624558,-0.47702694,-0.47858977,-0.47937113,-0.47858977,-0.47624558,-0.47546417,-0.47546417,-0.47546417,-0.4739014,-0.4715572,-0.46999443,-0.47077578,-0.47077578,-0.4684316,-0.4676814,-0.46999443,-0.4715572,-0.4715572,-0.4684316,-0.46377444,-0.4606489,-0.4575233,-0.45364755,-0.44895917,-0.44583362,-0.44583362,-0.4473964,-0.4473964,-0.4450522,-0.44273925,-0.44273925,-0.44348943,-0.44117647,-0.43570673,-0.43026817,-0.43026817,-0.4317997,-0.4341439,-0.43258113,-0.4317997,-0.43336248,-0.43570673,-0.4372695,-0.43570673,-0.4317997,-0.4310496,-0.4294868,-0.4294868,-0.4287054,-0.4294868,-0.4317997,-0.43336248,-0.43336248,-0.43026817,-0.42792404,-0.4294868,-0.4310496,-0.4294868,-0.42479843,-0.4193287,-0.4177971,-0.4193287,-0.42245424,-0.42323565,-0.42245424,-0.42245424,-0.42167282,-0.42089146,-0.41701567,-0.4154529,-0.4177971,-0.42167282,-0.42479843,-0.42323565,-0.42011005,-0.4177971,-0.4162343,-0.4154529,-0.4131087,-0.41154593,-0.4123273,-0.4154529,-0.4162343,-0.41467148,-0.41154593,-0.40842032,-0.405326,-0.40063763,-0.3936363,-0.3866037,-0.38425958,-0.3866037,-0.3912921,-0.3912921,-0.38738513,-0.37960243,-0.36869413,-0.35622305,-0.34218913,-0.3242483,-0.30086893,-0.27827096,-0.2587673,-0.24707758,-0.24785894,-0.25954866,-0.27983373,-0.30321312,-0.32737392,-0.35466027,-0.38504094,-0.4131087,-0.43336248,-0.44117647,-0.4419579,-0.44039506,-0.44117647,-0.44427085,-0.44661504,-0.4497406,-0.4552104,-0.46221167,-0.46533728,-0.46377444,-0.46143025,-0.4606489,-0.45986748,-0.4606489,-0.46143025,-0.47077578,-0.49806213,-0.5269113,-0.50975186,-0.39829344,-0.16524976,0.16599977,0.52922416,0.816028,0.9508971,0.8760705,0.57754576,0.10051882,-0.40920174,-0.7841158,-0.9251735,-0.831656,-0.61499035,-0.42714262,-0.34218913,-0.3530975,-0.40298182,-0.44117647,-0.4528662,-0.4419579,-0.4263612,-0.4162343,-0.4123273,-0.41076452,-0.40610743,-0.39907485,-0.39285493,-0.3866037,-0.38038385,-0.3717885,-0.36478716,-0.36166155,-0.36009878,-0.358536,-0.35153466,-0.34140778,-0.3320623,-0.32502973,-0.31880975,-0.31099582,-0.30165035,-0.2915234,-0.28139657,-0.26892543,-0.25176603,-0.23382509,-0.21669692,-0.19875598,-0.18084645,-0.15824848,-0.13408768,-0.10914552,-0.083421886,-0.056916893,-0.028067768,-0.002344191,0.020253778,0.038163424,0.052978635,0.0646683,0.06935668,0.06310558,0.043633223,0.014002562,-0.024160802,-0.07173222,-0.12471086,-0.1785022,-0.229168,-0.27280122,-0.31177723,-0.3499719,-0.38425958,-0.41154593,-0.43026817,-0.4450522,-0.45674193,-0.4684316,-0.47702694,-0.4816841,-0.48480964,-0.48949802,-0.49262363,-0.4933738,-0.48949802,-0.48715383,-0.48949802,-0.49649936,-0.50196916,-0.50118774,-0.49649936,-0.49184227,-0.48949802,-0.48871666,-0.48793525,-0.48793525,-0.48871666,-0.48793525,-0.48559105,-0.48090267,-0.47546417,-0.4739014,-0.47468275,-0.47468275,-0.47077578,-0.4684316,-0.4676814,-0.4676814,-0.469213,-0.46611863,-0.46221167,-0.4629931,-0.46377444,-0.46455586,-0.46221167,-0.4575233,-0.45442897,-0.45208478,-0.44895917,-0.44427085,-0.4396137,-0.4396137,-0.44348943,-0.4450522,-0.44273925,-0.44039506,-0.43805087,-0.43883228,-0.44117647,-0.44117647,-0.4396137,-0.44039506,-0.4419579,-0.4419579,-0.43883228,-0.4372695,-0.43883228,-0.4419579,-0.44583362,-0.4450522,-0.4419579,-0.44273925,-0.4450522,-0.44895917,-0.4497406,-0.4481778,-0.44661504,-0.44583362,-0.4450522,-0.4419579,-0.43883228,-0.43883228,-0.44039506,-0.44117647,-0.4364881,-0.43258113,-0.43492532,-0.44039506,-0.44661504,-0.44661504,-0.44039506,-0.43492532,-0.43336248,-0.4364881,-0.4372695,-0.4364881,-0.4341439,-0.43258113,-0.43336248,-0.4310496,-0.4287054,-0.4287054,-0.4294868,-0.4310496,-0.4317997,-0.4310496,-0.4317997,-0.43336248,-0.43336248,-0.43026817,-0.42714262,-0.42714262,-0.4287054,-0.43026817,-0.42792404,-0.42479843,-0.42479843,-0.4263612,-0.42479843,-0.4177971,-0.40610743,-0.39285493,-0.38347816,-0.38269675,-0.38738513,-0.39285493,-0.39673066,-0.39285493,-0.38116527,-0.36322433,-0.34218913,-0.31880975,-0.294649,-0.274364,-0.25954866,-0.25801718,-0.268144,-0.28370947,-0.30165035,-0.31646562,-0.3312809,-0.3530975,-0.3819154,-0.4131087,-0.43805087,-0.4528662,-0.45674193,-0.4552104,-0.4528662,-0.44895917,-0.4481778,-0.450522,-0.4552104,-0.45986748,-0.46221167,-0.46455586,-0.4669001,-0.46999443,-0.47233856,-0.469213,-0.4684316,-0.47780836,-0.50584483,-0.5370382,-0.5214416,-0.41389012,-0.18941051,0.1254611,0.4676503,0.74045146,0.87216353,0.8074639,0.530787,0.07404518,-0.42557985,-0.80436957,-0.95714825,-0.87219477,-0.6547165,-0.4552104,-0.36009878,-0.36322433,-0.41076452,-0.450522,-0.46221167,-0.4528662,-0.43883228,-0.4287054,-0.424017,-0.41857845,-0.4131087,-0.4099831,-0.40763897,-0.40685755,-0.40220046,-0.3959493,-0.3912921,-0.38582236,-0.37882107,-0.3694443,-0.358536,-0.3499719,-0.34606493,-0.34375197,-0.33828217,-0.3297181,-0.31880975,-0.30712008,-0.294649,-0.27827096,-0.26033008,-0.24398327,-0.22994941,-0.21435273,-0.19566166,-0.17303246,-0.15121585,-0.12861782,-0.10523844,-0.08029628,-0.0545727,-0.029630542,-0.009376764,0.010126829,0.028036475,0.03741324,0.038163424,0.027255177,0.009345531,-0.014815271,-0.04757142,-0.08964181,-0.14108896,-0.19566166,-0.24864036,-0.2961806,-0.33906358,-0.37803966,-0.40920174,-0.4317997,-0.4497406,-0.46533728,-0.48015255,-0.49184227,-0.49649936,-0.50118774,-0.5050947,-0.5081891,-0.51131463,-0.50975186,-0.50662625,-0.50662625,-0.50975186,-0.51287746,-0.51287746,-0.51131463,-0.5089705,-0.5081891,-0.50662625,-0.5027505,-0.50118774,-0.49962497,-0.5004063,-0.50118774,-0.49962497,-0.49728078,-0.49571794,-0.4949366,-0.49415517,-0.4902795,-0.48793525,-0.48715383,-0.48871666,-0.48871666,-0.48559105,-0.48090267,-0.47780836,-0.47468275,-0.46999443,-0.46533728,-0.46221167,-0.46221167,-0.46533728,-0.46611863,-0.46221167,-0.4559605,-0.4528662,-0.45364755,-0.4552104,-0.45442897,-0.45442897,-0.45442897,-0.4559605,-0.4552104,-0.4481778,-0.44427085,-0.4419579,-0.44661504,-0.45208478,-0.45364755,-0.45208478,-0.450522,-0.45130336,-0.4528662,-0.450522,-0.44661504,-0.44427085,-0.44348943,-0.44427085,-0.44273925,-0.44039506,-0.43883228,-0.43805087,-0.4396137,-0.4372695,-0.43570673,-0.4364881,-0.43883228,-0.44039506,-0.44039506,-0.4396137,-0.4396137,-0.44039506,-0.44039506,-0.43570673,-0.43258113,-0.43026817,-0.4317997,-0.4341439,-0.43336248,-0.43258113,-0.43258113,-0.43258113,-0.4317997,-0.4294868,-0.42792404,-0.4294868,-0.4341439,-0.4364881,-0.43492532,-0.4310496,-0.42792404,-0.42557985,-0.42245424,-0.41701567,-0.40763897,-0.39829344,-0.39051074,-0.3866037,-0.38582236,-0.38582236,-0.38425958,-0.37882107,-0.36478716,-0.34062636,-0.31334,-0.286835,-0.26579982,-0.25489157,-0.25176603,-0.25723577,-0.26970685,-0.286835,-0.30321312,-0.31724697,-0.33281243,-0.3530975,-0.38269675,-0.41389012,-0.43883228,-0.45208478,-0.4559605,-0.4559605,-0.4559605,-0.4583047,-0.46221167,-0.4669001,-0.4715572,-0.4739014,-0.4715572,-0.469213,-0.4684316,-0.46999443,-0.47233856,-0.47311997,-0.47468275,-0.48246545,-0.5050947,-0.53313124,-0.5292555,-0.45130336,-0.268144,0.0046571493,0.32034135,0.58532846,0.7326375,0.7155092,0.510502,0.13405633,-0.32581115,-0.72254175,-0.93533164,-0.91895354,-0.73579425,-0.5237857,-0.3936363,-0.36556852,-0.39985627,-0.44273925,-0.46221167,-0.45986748,-0.4473964,-0.4372695,-0.43026817,-0.42479843,-0.42011005,-0.4177971,-0.41701567,-0.4154529,-0.40685755,-0.39673066,-0.3866037,-0.37960243,-0.3741327,-0.3694443,-0.36244297,-0.35466027,-0.34840912,-0.34297055,-0.33281243,-0.32346696,-0.3156842,-0.30865163,-0.30165035,-0.28839785,-0.2704882,-0.2509846,-0.2322936,-0.21435273,-0.19409889,-0.17150092,-0.14809024,-0.12549227,-0.10133147,-0.075607955,-0.049102962,-0.02494216,-0.0062511563,0.009345531,0.023379445,0.03428769,0.039726138,0.03428769,0.01947236,-0.0031255484,-0.036631882,-0.08029628,-0.1333062,-0.18784773,-0.23929489,-0.28449088,-0.32581115,-0.36478716,-0.3959493,-0.4193287,-0.43570673,-0.450522,-0.46455586,-0.47780836,-0.48637247,-0.49184227,-0.49649936,-0.50118774,-0.50431335,-0.50431335,-0.50196916,-0.50118774,-0.5027505,-0.50196916,-0.49806213,-0.4933738,-0.4910608,-0.4910608,-0.49184227,-0.48949802,-0.48637247,-0.48559105,-0.48793525,-0.48949802,-0.48871666,-0.48402828,-0.48246545,-0.48559105,-0.48793525,-0.48793525,-0.48559105,-0.48324686,-0.48246545,-0.4816841,-0.47780836,-0.47311997,-0.4684316,-0.46611863,-0.46377444,-0.4606489,-0.45674193,-0.4552104,-0.4552104,-0.45442897,-0.45208478,-0.4481778,-0.44661504,-0.4481778,-0.44895917,-0.4481778,-0.44583362,-0.4450522,-0.4473964,-0.44895917,-0.44583362,-0.44117647,-0.4372695,-0.43883228,-0.44039506,-0.4419579,-0.44117647,-0.4396137,-0.43805087,-0.4372695,-0.4364881,-0.4372695,-0.4396137,-0.44583362,-0.44895917,-0.44661504,-0.4419579,-0.43883228,-0.44039506,-0.44273925,-0.44348943,-0.4419579,-0.44039506,-0.4396137,-0.43883228,-0.43570673,-0.4317997,-0.43026817,-0.43258113,-0.43570673,-0.4364881,-0.43336248,-0.4294868,-0.42792404,-0.42792404,-0.4287054,-0.4294868,-0.4310496,-0.4341439,-0.43492532,-0.4317997,-0.42557985,-0.42011005,-0.4177971,-0.41701567,-0.41154593,-0.39985627,-0.3866037,-0.37569547,-0.37100708,-0.37100708,-0.3717885,-0.37256992,-0.3679127,-0.35387886,-0.3265925,-0.2923048,-0.25801718,-0.2346065,-0.22604245,-0.2322936,-0.24864036,-0.26970685,-0.2923048,-0.31099582,-0.32581115,-0.34140778,-0.36478716,-0.39751208,-0.43026817,-0.4552104,-0.4676814,-0.46999443,-0.46999443,-0.4684316,-0.4684316,-0.4684316,-0.47077578,-0.47624558,-0.48090267,-0.48246545,-0.48090267,-0.47937113,-0.47858977,-0.47937113,-0.47780836,-0.47937113,-0.49184227,-0.52222294,-0.5502907,-0.52534854,-0.40685755,-0.16915673,0.1597799,0.51284623,0.7864286,0.9103582,0.8292806,0.5338813,0.067793965,-0.42714262,-0.7926799,-0.9298619,-0.83634436,-0.62277305,-0.4364881,-0.3530975,-0.36322433,-0.4123273,-0.450522,-0.46143025,-0.45364755,-0.4396137,-0.4287054,-0.42245424,-0.41701567,-0.4131087,-0.4099831,-0.40763897,-0.40220046,-0.3936363,-0.38347816,-0.37491405,-0.37100708,-0.3679127,-0.36244297,-0.3554417,-0.34840912,-0.34297055,-0.3367194,-0.3265925,-0.31412143,-0.30321312,-0.29539913,-0.28761643,-0.2751453,-0.25954866,-0.24085766,-0.22291678,-0.20422584,-0.18240923,-0.15824848,-0.13252491,-0.10758269,-0.08029628,-0.051447153,-0.024160802,-0.0007814169,0.015565395,0.029599309,0.04441452,0.05922985,0.067793965,0.06310558,0.04675877,0.01947236,-0.017940879,-0.06548107,-0.12161654,-0.17772079,-0.22994941,-0.2751453,-0.3156842,-0.3530975,-0.38504094,-0.4099831,-0.43026817,-0.44583362,-0.46143025,-0.47311997,-0.47937113,-0.48090267,-0.48324686,-0.48793525,-0.4933738,-0.49649936,-0.49649936,-0.4949366,-0.49571794,-0.49649936,-0.49571794,-0.49262363,-0.48949802,-0.48949802,-0.48949802,-0.48949802,-0.48871666,-0.48871666,-0.4910608,-0.4910608,-0.48559105,-0.47858977,-0.47311997,-0.4739014,-0.47702694,-0.47780836,-0.47546417,-0.47233856,-0.47077578,-0.469213,-0.46611863,-0.46143025,-0.4575233,-0.45674193,-0.4575233,-0.4575233,-0.4552104,-0.45208478,-0.45130336,-0.450522,-0.4473964,-0.44348943,-0.44039506,-0.4396137,-0.44039506,-0.43883228,-0.4372695,-0.4372695,-0.44117647,-0.44348943,-0.44273925,-0.4364881,-0.4317997,-0.43336248,-0.4364881,-0.43883228,-0.43805087,-0.43570673,-0.43492532,-0.4364881,-0.4364881,-0.43492532,-0.43258113,-0.43258113,-0.43336248,-0.43258113,-0.43258113,-0.4317997,-0.4341439,-0.43570673,-0.4341439,-0.4317997,-0.4294868,-0.4287054,-0.42792404,-0.4263612,-0.42479843,-0.42557985,-0.42792404,-0.4287054,-0.42714262,-0.42323565,-0.42011005,-0.42167282,-0.42011005,-0.41701567,-0.4123273,-0.41076452,-0.4154529,-0.42245424,-0.42557985,-0.42323565,-0.42011005,-0.4177971,-0.4193287,-0.42011005,-0.4154529,-0.40610743,-0.3936363,-0.37803966,-0.36244297,-0.3476277,-0.34062636,-0.34062636,-0.33828217,-0.32815534,-0.30633873,-0.27905238,-0.25254738,-0.23073077,-0.2159155,-0.21122712,-0.22213537,-0.24629617,-0.2751453,-0.2961806,-0.30787027,-0.31724697,-0.3312809,-0.3530975,-0.38116527,-0.40920174,-0.4341439,-0.4559605,-0.46999443,-0.4739014,-0.46999443,-0.4676814,-0.469213,-0.47311997,-0.47780836,-0.47780836,-0.47780836,-0.47858977,-0.47780836,-0.47624558,-0.47311997,-0.4715572,-0.47468275,-0.48402828,-0.50431335,-0.5346941,-0.5479465,-0.49415517,-0.3265925,-0.04210168,0.32265425,0.6687192,0.8931987,0.9376446,0.7638308,0.38035262,-0.13096207,-0.606395,-0.8994812,-0.9407702,-0.77477026,-0.54872787,-0.39673066,-0.3554417,-0.3889479,-0.4372695,-0.46611863,-0.47233856,-0.46221167,-0.4473964,-0.43336248,-0.424017,-0.42245424,-0.42245424,-0.42089146,-0.4154529,-0.40685755,-0.39907485,-0.3912921,-0.38269675,-0.3741327,-0.36869413,-0.36634994,-0.36244297,-0.35387886,-0.33984494,-0.32581115,-0.31412143,-0.3055573,-0.29539913,-0.28295934,-0.26970685,-0.25801718,-0.24398327,-0.22682375,-0.20500726,-0.18162787,-0.16056138,-0.13874477,-0.1161468,-0.08886045,-0.060823917,-0.03510028,-0.010158181,0.014002562,0.038163424,0.058448434,0.07170093,0.07870233,0.07870233,0.07170093,0.052978635,0.01947236,-0.024160802,-0.075607955,-0.12861782,-0.18162787,-0.2346065,-0.28295934,-0.32346696,-0.3577546,-0.38738513,-0.41467148,-0.43883228,-0.4559605,-0.46455586,-0.469213,-0.47311997,-0.47780836,-0.48246545,-0.48480964,-0.48559105,-0.48793525,-0.4902795,-0.49184227,-0.4910608,-0.4902795,-0.4902795,-0.4902795,-0.48871666,-0.48402828,-0.4816841,-0.48090267,-0.48090267,-0.48090267,-0.47780836,-0.47546417,-0.47546417,-0.47468275,-0.4739014,-0.47077578,-0.4684316,-0.469213,-0.4715572,-0.47311997,-0.46999443,-0.46611863,-0.4629931,-0.45986748,-0.4552104,-0.450522,-0.4473964,-0.4481778,-0.450522,-0.450522,-0.4473964,-0.44348943,-0.44348943,-0.4450522,-0.44583362,-0.44427085,-0.44273925,-0.44348943,-0.4450522,-0.44661504,-0.44427085,-0.4419579,-0.4419579,-0.44273925,-0.4419579,-0.43883228,-0.43805087,-0.43883228,-0.44039506,-0.44117647,-0.43883228,-0.43570673,-0.4364881,-0.43883228,-0.44117647,-0.44117647,-0.44039506,-0.44117647,-0.44273925,-0.4419579,-0.44039506,-0.43805087,-0.44039506,-0.44348943,-0.44427085,-0.4419579,-0.4396137,-0.4396137,-0.4419579,-0.4419579,-0.4372695,-0.4317997,-0.4287054,-0.43026817,-0.4294868,-0.42557985,-0.42089146,-0.42089146,-0.42323565,-0.42323565,-0.4177971,-0.405326,-0.39051074,-0.37491405,-0.36478716,-0.3577546,-0.35153466,-0.34453332,-0.33049947,-0.30633873,-0.27748954,-0.2509846,-0.2322936,-0.22604245,-0.2322936,-0.24554604,-0.26579982,-0.28605366,-0.30086893,-0.3125586,-0.3242483,-0.34606493,-0.37647688,-0.41076452,-0.43805087,-0.4559605,-0.4629931,-0.46611863,-0.46533728,-0.46533728,-0.46377444,-0.46455586,-0.4684316,-0.47311997,-0.47624558,-0.47780836,-0.48015255,-0.48402828,-0.48793525,-0.48871666,-0.48402828,-0.47937113,-0.48480964,-0.50662625,-0.5300057,-0.51209605,-0.40610743,-0.18862915,0.11611545,0.4419266,0.6920986,0.801244,0.72172904,0.44505215,0.008564115,-0.46611863,-0.82309186,-0.9625868,-0.874539,-0.6609677,-0.46377444,-0.36634994,-0.36244297,-0.40298182,-0.44039506,-0.4552104,-0.4528662,-0.44427085,-0.43492532,-0.42557985,-0.4162343,-0.40842032,-0.40454465,-0.40220046,-0.39907485,-0.39051074,-0.38116527,-0.37491405,-0.37100708,-0.36634994,-0.36009878,-0.3530975,-0.34840912,-0.34453332,-0.33906358,-0.32737392,-0.3125586,-0.29930615,-0.28839785,-0.2767082,-0.2634557,-0.24864036,-0.23382509,-0.21747828,-0.1995374,-0.17693943,-0.15356004,-0.13174343,-0.10914552,-0.08498466,-0.05769831,-0.03275615,-0.012471139,0.005438566,0.021816492,0.035850525,0.04441452,0.042851806,0.033506274,0.01712823,-0.005469799,-0.038194656,-0.0842033,-0.14030755,-0.19875598,-0.24942183,-0.2938676,-0.33281243,-0.36713135,-0.39673066,-0.4193287,-0.4396137,-0.45674193,-0.46999443,-0.4816841,-0.48715383,-0.4902795,-0.4949366,-0.49728078,-0.49649936,-0.49262363,-0.48871666,-0.48793525,-0.48949802,-0.4902795,-0.48793525,-0.48637247,-0.48637247,-0.48871666,-0.48949802,-0.48637247,-0.48402828,-0.48324686,-0.48324686,-0.48246545,-0.47780836,-0.47311997,-0.4715572,-0.4739014,-0.47546417,-0.47311997,-0.46999443,-0.4684316,-0.469213,-0.469213,-0.46377444,-0.4583047,-0.45674193,-0.45908606,-0.4629931,-0.46221167,-0.4575233,-0.450522,-0.44583362,-0.4419579,-0.43805087,-0.4364881,-0.43805087,-0.44039506,-0.4419579,-0.4396137,-0.43570673,-0.4341439,-0.43570673,-0.4372695,-0.4372695,-0.4372695,-0.43883228,-0.44039506,-0.4419579,-0.44117647,-0.44117647,-0.44273925,-0.4450522,-0.44583362,-0.4419579,-0.4372695,-0.43570673,-0.4372695,-0.43883228,-0.43883228,-0.43883228,-0.43805087,-0.43805087,-0.43805087,-0.4341439,-0.4317997,-0.4341439,-0.4364881,-0.43883228,-0.43883228,-0.43805087,-0.4372695,-0.4364881,-0.43336248,-0.424017,-0.4131087,-0.40298182,-0.3959493,-0.38972932,-0.38347816,-0.37960243,-0.38038385,-0.38582236,-0.38972932,-0.38347816,-0.36478716,-0.33515662,-0.30086893,-0.26970685,-0.25254738,-0.25254738,-0.26892543,-0.29074204,-0.30943304,-0.32190406,-0.3335938,-0.35153466,-0.37882107,-0.41154593,-0.43805087,-0.45674193,-0.4676814,-0.47077578,-0.4684316,-0.46533728,-0.46455586,-0.4684316,-0.4739014,-0.47858977,-0.47780836,-0.47468275,-0.4739014,-0.47468275,-0.47624558,-0.47624558,-0.47546417,-0.4816841,-0.50196916,-0.53313124,-0.5448209,-0.4902795,-0.3297181,-0.06235546,0.27589548,0.5946741,0.8004626,0.83787596,0.67262614,0.31096458,-0.16837531,-0.6134275,-0.8877602,-0.9251735,-0.7669563,-0.5510721,-0.40454465,-0.36478716,-0.3951679,-0.44039506,-0.46377444,-0.46377444,-0.4528662,-0.44273925,-0.43570673,-0.43026817,-0.42479843,-0.4177971,-0.41076452,-0.40454465,-0.39907485,-0.3951679,-0.3920735,-0.3889479,-0.38347816,-0.37335128,-0.36634994,-0.3608802,-0.358536,-0.3554417,-0.34606493,-0.3335938,-0.32268554,-0.31334,-0.30399454,-0.28996062,-0.2751453,-0.26033008,-0.24629617,-0.23073077,-0.20966434,-0.18550354,-0.15902984,-0.1333062,-0.10680127,-0.08029628,-0.053791344,-0.030411959,-0.0109395385,0.007001281,0.025692344,0.039726138,0.047540188,0.045195937,0.033506274,0.013221145,-0.016378105,-0.056916893,-0.106019855,-0.15824848,-0.20891422,-0.25645435,-0.30008757,-0.34062636,-0.3741327,-0.40220046,-0.42714262,-0.4481778,-0.4669001,-0.47780836,-0.4816841,-0.4816841,-0.48402828,-0.48793525,-0.49262363,-0.4949366,-0.49649936,-0.49649936,-0.49571794,-0.4933738,-0.48715383,-0.48324686,-0.48324686,-0.48559105,-0.48871666,-0.48793525,-0.48480964,-0.48246545,-0.48324686,-0.48402828,-0.4816841,-0.47780836,-0.47624558,-0.47546417,-0.47468275,-0.47233856,-0.4684316,-0.46611863,-0.46533728,-0.46533728,-0.4629931,-0.4583047,-0.45442897,-0.4528662,-0.4528662,-0.45208478,-0.45364755,-0.45674193,-0.45908606,-0.45986748,-0.4552104,-0.4497406,-0.44583362,-0.44583362,-0.4481778,-0.4497406,-0.4497406,-0.4497406,-0.450522,-0.4481778,-0.44348943,-0.44039506,-0.44039506,-0.44427085,-0.4481778,-0.4481778,-0.44661504,-0.44348943,-0.44273925,-0.44273925,-0.44117647,-0.43883228,-0.44039506,-0.44348943,-0.4450522,-0.4450522,-0.4419579,-0.44117647,-0.4419579,-0.44348943,-0.44273925,-0.4419579,-0.4419579,-0.4419579,-0.4419579,-0.43805087,-0.4341439,-0.4341439,-0.43805087,-0.4419579,-0.4419579,-0.4396137,-0.4372695,-0.43805087,-0.43883228,-0.4372695,-0.43336248,-0.43026817,-0.42323565,-0.4123273,-0.3951679,-0.37803966,-0.36556852,-0.36166155,-0.36244297,-0.35931736,-0.3530975,-0.34218913,-0.32502973,-0.30165035,-0.27358252,-0.24476463,-0.22604245,-0.22604245,-0.2400763,-0.2611115,-0.28139657,-0.2961806,-0.30865163,-0.3242483,-0.34375197,-0.3717885,-0.40610743,-0.43883228,-0.4629931,-0.47311997,-0.4739014,-0.47077578,-0.46999443,-0.47311997,-0.47702694,-0.48015255,-0.48402828,-0.48793525,-0.48949802,-0.48715383,-0.48402828,-0.48090267,-0.4816841,-0.48324686,-0.48324686,-0.4902795,-0.5152216,-0.5502907,-0.5526349,-0.4684316,-0.2611115,0.05454147,0.42632997,0.74901545,0.93608177,0.9259548,0.6882229,0.24473333,-0.28217793,-0.7155092,-0.9314247,-0.8955742,-0.6952554,-0.48402828,-0.36634994,-0.35466027,-0.39829344,-0.4450522,-0.4669001,-0.46377444,-0.4497406,-0.4372695,-0.4310496,-0.42792404,-0.42323565,-0.4162343,-0.40920174,-0.40454465,-0.39907485,-0.3912921,-0.38269675,-0.37569547,-0.37100708,-0.36556852,-0.35700446,-0.3476277,-0.34062636,-0.3367194,-0.33281243,-0.32190406,-0.30787027,-0.294649,-0.28295934,-0.27201974,-0.2587673,-0.24085766,-0.22060388,-0.20110017,-0.18084645,-0.15746707,-0.1333062,-0.10758269,-0.08264047,-0.056916893,-0.029630542,0.0,0.025692344,0.045977354,0.060792685,0.07091963,0.0771395,0.07404518,0.058448434,0.031162143,-0.0039069653,-0.04757142,-0.0974558,-0.15277863,-0.2081328,-0.2587673,-0.30243176,-0.34062636,-0.37491405,-0.405326,-0.4294868,-0.44895917,-0.46611863,-0.48015255,-0.48793525,-0.4902795,-0.48871666,-0.48871666,-0.49262363,-0.49649936,-0.49962497,-0.49884355,-0.49728078,-0.49728078,-0.49571794,-0.49184227,-0.48871666,-0.48715383,-0.48949802,-0.4910608,-0.48871666,-0.48402828,-0.4816841,-0.4816841,-0.48246545,-0.48090267,-0.47780836,-0.47468275,-0.47311997,-0.47233856,-0.469213,-0.46455586,-0.46143025,-0.46221167,-0.46221167,-0.45986748,-0.4575233,-0.45674193,-0.4583047,-0.46221167,-0.46143025,-0.45674193,-0.4528662,-0.45130336,-0.45130336,-0.44895917,-0.44427085,-0.44039506,-0.44117647,-0.44348943,-0.4450522,-0.44427085,-0.44273925,-0.4419579,-0.44273925,-0.44427085,-0.4450522,-0.4473964,-0.450522,-0.45130336,-0.44895917,-0.4450522,-0.44273925,-0.44273925,-0.44427085,-0.44273925,-0.4396137,-0.44039506,-0.4450522,-0.45130336,-0.4528662,-0.4497406,-0.44427085,-0.44117647,-0.44039506,-0.44039506,-0.44039506,-0.4419579,-0.44661504,-0.45130336,-0.45130336,-0.4473964,-0.44273925,-0.4419579,-0.44117647,-0.43883228,-0.4364881,-0.43336248,-0.4317997,-0.4341439,-0.43336248,-0.4317997,-0.4287054,-0.4263612,-0.42011005,-0.40842032,-0.39285493,-0.37803966,-0.36713135,-0.3608802,-0.35622305,-0.3476277,-0.33515662,-0.31880975,-0.2969619,-0.27201974,-0.24785894,-0.23073077,-0.22604245,-0.23538792,-0.2533288,-0.27358252,-0.2915234,-0.3055573,-0.3203413,-0.33828217,-0.36009878,-0.38972932,-0.42323565,-0.45364755,-0.4739014,-0.4816841,-0.48015255,-0.47858977,-0.47937113,-0.4816841,-0.48324686,-0.48480964,-0.48715383,-0.4910608,-0.4933738,-0.4933738,-0.49184227,-0.4910608,-0.48871666,-0.48637247,-0.48637247,-0.49571794,-0.5245671,-0.55572927,-0.5424768,-0.43492532,-0.20891422,0.10989559,0.45983624,0.7381072,0.8760705,0.8175907,0.54169536,0.082609296,-0.42792404,-0.8191849,-0.981309,-0.90179414,-0.6851285,-0.48324686,-0.38269675,-0.37803966,-0.42011005,-0.45908606,-0.47311997,-0.46611863,-0.45208478,-0.44273925,-0.4372695,-0.43492532,-0.43258113,-0.42714262,-0.42167282,-0.41467148,-0.405326,-0.39751208,-0.39051074,-0.38738513,-0.38347816,-0.37647688,-0.3694443,-0.36244297,-0.3577546,-0.35153466,-0.34218913,-0.32737392,-0.3125586,-0.29930615,-0.286835,-0.27358252,-0.26033008,-0.24629617,-0.23382509,-0.21982247,-0.19797462,-0.17150092,-0.14343315,-0.1161468,-0.09042323,-0.06469965,-0.036631882,-0.011689723,0.007001281,0.021816492,0.035069108,0.045195937,0.04988432,0.043633223,0.027255177,0.0007814169,-0.03510028,-0.08185905,-0.13874477,-0.1971932,-0.25020313,-0.29308623,-0.3297181,-0.36322433,-0.39438647,-0.42167282,-0.4419579,-0.45986748,-0.47546417,-0.48793525,-0.4949366,-0.49649936,-0.49649936,-0.5004063,-0.5027505,-0.5027505,-0.49962497,-0.49728078,-0.49962497,-0.50353193,-0.50584483,-0.50431335,-0.50196916,-0.5027505,-0.5027505,-0.5004063,-0.49571794,-0.49415517,-0.49806213,-0.5027505,-0.50353193,-0.49884355,-0.49262363,-0.4902795,-0.4910608,-0.4910608,-0.48871666,-0.48402828,-0.4816841,-0.48015255,-0.47780836,-0.47546417,-0.47233856,-0.47233856,-0.4715572,-0.469213,-0.46533728,-0.46143025,-0.4606489,-0.46143025,-0.4606489,-0.4583047,-0.4552104,-0.45674193,-0.4575233,-0.4575233,-0.45442897,-0.4497406,-0.4481778,-0.4473964,-0.44583362,-0.44273925,-0.44117647,-0.44273925,-0.44427085,-0.44583362,-0.44661504,-0.44895917,-0.45442897,-0.45908606,-0.4583047,-0.45208478,-0.4473964,-0.44583362,-0.4473964,-0.450522,-0.450522,-0.45208478,-0.4528662,-0.45208478,-0.4497406,-0.4450522,-0.44039506,-0.44117647,-0.4419579,-0.4419579,-0.4419579,-0.4419579,-0.4450522,-0.4481778,-0.44895917,-0.44661504,-0.44427085,-0.44348943,-0.44348943,-0.44273925,-0.43883228,-0.43258113,-0.42557985,-0.41389012,-0.39829344,-0.38038385,-0.3679127,-0.36400574,-0.36166155,-0.3554417,-0.34062636,-0.31724697,-0.2938676,-0.27123833,-0.25176603,-0.23851347,-0.23929489,-0.25645435,-0.28527224,-0.31099582,-0.32502973,-0.33281243,-0.34218913,-0.3608802,-0.38816655,-0.41857845,-0.44661504,-0.469213,-0.4816841,-0.48480964,-0.4816841,-0.47937113,-0.4816841,-0.48715383,-0.4902795,-0.49184227,-0.4949366,-0.49962497,-0.50431335,-0.50353193,-0.5004063,-0.49649936,-0.49649936,-0.49962497,-0.5089705,-0.5284741,-0.5526349,-0.5409452,-0.44583362,-0.23773211,0.0646683,0.39826214,0.65937364,0.7864286,0.73498166,0.49024808,0.07248235,-0.405326,-0.7841158,-0.95167845,-0.88544726,-0.68044007,-0.48715383,-0.39051074,-0.3866037,-0.42323565,-0.4583047,-0.47546417,-0.47468275,-0.46533728,-0.45364755,-0.44348943,-0.43805087,-0.43336248,-0.4287054,-0.42089146,-0.4131087,-0.40763897,-0.40298182,-0.39751208,-0.3889479,-0.3819154,-0.37647688,-0.37100708,-0.36556852,-0.35700446,-0.34840912,-0.34297055,-0.3367194,-0.32815534,-0.31490278,-0.30008757,-0.28605366,-0.27201974,-0.25645435,-0.2369507,-0.21669692,-0.19797462,-0.1785022,-0.15668559,-0.13018066,-0.102894306,-0.07717073,-0.05535412,-0.03275615,-0.009376764,0.010908246,0.02494216,0.033506274,0.038163424,0.038163424,0.027255177,0.0023128986,-0.0374133,-0.08651626,-0.137182,-0.18862915,-0.23929489,-0.28449088,-0.3242483,-0.358536,-0.38972932,-0.41857845,-0.4419579,-0.4559605,-0.46221167,-0.46533728,-0.47233856,-0.4816841,-0.4902795,-0.4949366,-0.49728078,-0.49962497,-0.50196916,-0.50353193,-0.50118774,-0.49649936,-0.49571794,-0.49571794,-0.49649936,-0.49571794,-0.49415517,-0.4933738,-0.4933738,-0.49184227,-0.48793525,-0.48402828,-0.48324686,-0.48402828,-0.48402828,-0.48090267,-0.47858977,-0.48015255,-0.48090267,-0.48015255,-0.47468275,-0.469213,-0.4676814,-0.469213,-0.469213,-0.46611863,-0.4606489,-0.45674193,-0.4559605,-0.4559605,-0.45364755,-0.4528662,-0.45364755,-0.45364755,-0.45130336,-0.44661504,-0.44117647,-0.4396137,-0.44117647,-0.44348943,-0.44348943,-0.4419579,-0.4419579,-0.44348943,-0.44348943,-0.4396137,-0.4364881,-0.43336248,-0.43570673,-0.4396137,-0.44273925,-0.44427085,-0.44661504,-0.4481778,-0.4481778,-0.44661504,-0.4450522,-0.4450522,-0.44661504,-0.4473964,-0.44427085,-0.44039506,-0.43883228,-0.44117647,-0.44427085,-0.4450522,-0.44427085,-0.44427085,-0.44427085,-0.44273925,-0.4396137,-0.4364881,-0.4372695,-0.44039506,-0.44273925,-0.44117647,-0.4364881,-0.43336248,-0.4317997,-0.43336248,-0.43258113,-0.4317997,-0.43258113,-0.4341439,-0.43336248,-0.42479843,-0.4099831,-0.3920735,-0.37491405,-0.36009878,-0.3499719,-0.34606493,-0.34453332,-0.34062636,-0.32737392,-0.30399454,-0.2767082,-0.25176603,-0.23307496,-0.22526097,-0.22760522,-0.24476463,-0.26970685,-0.29308623,-0.30865163,-0.3180284,-0.3312809,-0.3530975,-0.38347816,-0.41701567,-0.44348943,-0.4629931,-0.47702694,-0.48402828,-0.48559105,-0.4816841,-0.47937113,-0.4816841,-0.48793525,-0.4949366,-0.49962497,-0.50118774,-0.50118774,-0.50118774,-0.49884355,-0.49415517,-0.4902795,-0.49184227,-0.50431335,-0.5354754,-0.5697631,-0.56741893,-0.47858977,-0.26579982,0.056104302,0.43333125,0.7536726,0.92904925,0.90101266,0.6484654,0.20028746,-0.31880975,-0.73813844,-0.93998873,-0.8901044,-0.6820029,-0.47311997,-0.3679127,-0.3679127,-0.41701567,-0.45908606,-0.47311997,-0.4684316,-0.4575233,-0.4481778,-0.43883228,-0.4310496,-0.42792404,-0.42479843,-0.42245424,-0.41701567,-0.40842032,-0.40063763,-0.39438647,-0.38816655,-0.38038385,-0.37256992,-0.36713135,-0.36166155,-0.35622305,-0.34528345,-0.3343752,-0.32502973,-0.31646562,-0.30633873,-0.2923048,-0.2767082,-0.2611115,-0.24476463,-0.22838664,-0.20657003,-0.18319064,-0.1613428,-0.13874477,-0.11458403,-0.08651626,-0.058479667,-0.031974733,-0.008595347,0.013221145,0.035850525,