-0.42925304,-0.44868022,-0.46112227,-0.4720053,-0.485227,-0.49533033,-0.5023466,-0.5046853,-0.5039058,-0.5062444,-0.5093316,-0.5085521,-0.5085521,-0.5093316,-0.5108908,-0.5132295,-0.5108908,-0.5054649,-0.501567,-0.49922824,-0.5000078,-0.50312614,-0.5046853,-0.5062444,-0.5085521,-0.50777245,-0.501567,-0.49302274,-0.48834527,-0.4875657,-0.48912483,-0.48990446,-0.48834527,-0.485227,-0.48288822,-0.4813602,-0.47668272,-0.4704461,-0.46657938,-0.46657938,-0.46891814,-0.4704461,-0.4704461,-0.4720053,-0.47434402,-0.47122568,-0.46424067,-0.4619019,-0.46112227,-0.46424067,-0.46966654,-0.46657938,-0.46034276,-0.4556964,-0.45491683,-0.45491683,-0.45491683,-0.45647597,-0.45878357,-0.46268147,-0.46424067,-0.4619019,-0.45956314,-0.46034276,-0.46034276,-0.46034276,-0.458004,-0.45413727,-0.4533577,-0.4556964,-0.45491683,-0.4533577,-0.45023936,-0.45023936,-0.4533577,-0.45722437,-0.458004,-0.45257813,-0.4448135,-0.4393564,-0.43623805,-0.4346789,-0.4331197,-0.43081218,-0.42691427,-0.41992927,-0.41213346,-0.40901512,-0.41213346,-0.41837007,-0.42145717,-0.41837007,-0.40901512,-0.39657295,-0.38491046,-0.37016076,-0.3437174,-0.3141557,-0.29161018,-0.28150684,-0.28615314,-0.29550815,-0.30639106,-0.31883317,-0.3382603,-0.3647037,-0.39657295,-0.4276939,-0.45413727,-0.47122568,-0.4790215,-0.47590315,-0.47278482,-0.47122568,-0.47590315,-0.4813602,-0.4813602,-0.47980106,-0.47746235,-0.47668272,-0.47824192,-0.47980106,-0.4813602,-0.4836678,-0.48678613,-0.4961099,-0.51556826,-0.5443192,-0.5489967,-0.47980106,-0.29937482,-0.012457728,0.33202362,0.6376505,0.8180456,0.8180456,0.6104276,0.20994115,-0.2838456,-0.70372796,-0.92148054,-0.8950372,-0.70297956,-0.49688947,-0.38491046,-0.37558663,-0.41603136,-0.45413727,-0.46891814,-0.46657938,-0.45956314,-0.45023936,-0.44403392,-0.43857682,-0.4331197,-0.4276939,-0.42301637,-0.42067766,-0.41837007,-0.41213346,-0.40125048,-0.38724917,-0.3779254,-0.3771459,-0.37948453,-0.37870502,-0.36938125,-0.35849822,-0.34914327,-0.34059906,-0.3343624,-0.3250386,-0.31727397,-0.30717063,-0.29628766,-0.28228635,-0.26360768,-0.2387234,-0.21539831,-0.19285285,-0.16796863,-0.1430844,-0.11975932,-0.096434295,-0.07310921,-0.050563693,-0.026427865,-0.0038823485,0.013206005,0.024088979,0.028766513,0.026427746,0.013985634,-0.01089865,-0.047445357,-0.09253639,-0.13840693,-0.18817532,-0.2410621,-0.28849185,-0.33049572,-0.36314458,-0.38880837,-0.4136926,-0.43779725,-0.45956314,-0.47434402,-0.4836678,-0.4914636,-0.49533033,-0.4961099,-0.49380237,-0.49224323,-0.4961099,-0.50312614,-0.50777245,-0.5054649,-0.49922824,-0.49455076,-0.49455076,-0.4961099,-0.49533033,-0.4914636,-0.48834527,-0.4875657,-0.4914636,-0.49455076,-0.49455076,-0.49224323,-0.48834527,-0.48288822,-0.47746235,-0.47512358,-0.47512358,-0.47746235,-0.47824192,-0.47668272,-0.47356445,-0.4704461,-0.46966654,-0.4720053,-0.47434402,-0.47356445,-0.47356445,-0.4704461,-0.46657938,-0.4619019,-0.4619019,-0.46502024,-0.4657998,-0.46424067,-0.45878357,-0.4517985,-0.44868022,-0.45101893,-0.45413727,-0.45413727,-0.45491683,-0.45722437,-0.45878357,-0.45647597,-0.45023936,-0.4448135,-0.44403392,-0.44868022,-0.4556964,-0.458004,-0.45722437,-0.458004,-0.45956314,-0.45878357,-0.45722437,-0.4533577,-0.4517985,-0.45257813,-0.45491683,-0.4556964,-0.4556964,-0.45878357,-0.4619019,-0.45956314,-0.45257813,-0.44403392,-0.43701768,-0.43389934,-0.43701768,-0.43857682,-0.43779725,-0.43701768,-0.43545854,-0.43237138,-0.42691427,-0.4222368,-0.42301637,-0.4276939,-0.43081218,-0.42925304,-0.42067766,-0.40979463,-0.39735258,-0.38569003,-0.37168878,-0.3592466,-0.34449697,-0.32737738,-0.30947816,-0.29238975,-0.2853735,-0.29238975,-0.30947816,-0.33592153,-0.36626285,-0.40125048,-0.43545854,-0.46034276,-0.4704461,-0.47122568,-0.46966654,-0.46891814,-0.47122568,-0.47356445,-0.47122568,-0.4720053,-0.47278482,-0.47746235,-0.47824192,-0.47512358,-0.47122568,-0.4704461,-0.47356445,-0.48210865,-0.49922824,-0.53109753,-0.5567613,-0.53109753,-0.40280962,-0.15084898,0.19827867,0.56299794,0.83204687,0.93080425,0.8133681,0.47512352,-0.021001935,-0.5194349,-0.8600496,-0.954909,-0.8242824,-0.59876513,-0.423796,-0.36158538,-0.38260287,-0.43237138,-0.46657938,-0.47668272,-0.46966654,-0.45722437,-0.4455619,-0.43701768,-0.43237138,-0.4315918,-0.4284734,-0.42301637,-0.41681087,-0.40670753,-0.3981322,-0.39270627,-0.38646966,-0.38260287,-0.37948453,-0.37246835,-0.36392415,-0.3577187,-0.35304117,-0.34680456,-0.3382603,-0.32425898,-0.3125965,-0.30327266,-0.2939489,-0.27994764,-0.2597409,-0.2387234,-0.22319418,-0.20373577,-0.18352908,-0.15474695,-0.12287766,-0.09877294,-0.07388872,-0.050563693,-0.022561193,0.003882289,0.024088979,0.035751462,0.040428996,0.040428996,0.030325651,0.011646867,-0.01710409,-0.055209935,-0.09799343,-0.14854145,-0.20295626,-0.2597409,-0.30872977,-0.34992284,-0.38491046,-0.41291302,-0.43701768,-0.45491683,-0.4657998,-0.47434402,-0.48444736,-0.49380237,-0.49844867,-0.501567,-0.5054649,-0.50777245,-0.5093316,-0.5085521,-0.5046853,-0.5007874,-0.5007874,-0.5039058,-0.5062444,-0.5054649,-0.5046853,-0.5023466,-0.5000078,-0.49766904,-0.49302274,-0.49068403,-0.48912483,-0.48912483,-0.49068403,-0.48678613,-0.48678613,-0.48912483,-0.48600656,-0.4805807,-0.4704461,-0.46112227,-0.4619019,-0.46657938,-0.4720053,-0.47122568,-0.46813852,-0.46502024,-0.46424067,-0.46502024,-0.46346104,-0.46424067,-0.4657998,-0.46424067,-0.4619019,-0.458004,-0.45647597,-0.46034276,-0.46268147,-0.46268147,-0.45722437,-0.45101893,-0.44868022,-0.45257813,-0.46268147,-0.46502024,-0.46268147,-0.45647597,-0.44868022,-0.4479006,-0.4517985,-0.45647597,-0.46112227,-0.4619019,-0.45956314,-0.45647597,-0.45491683,-0.45647597,-0.45878357,-0.45878357,-0.4556964,-0.45257813,-0.45413727,-0.45491683,-0.45878357,-0.46034276,-0.45647597,-0.4533577,-0.44868022,-0.44247472,-0.43779725,-0.43857682,-0.44403392,-0.44712102,-0.44403392,-0.43545854,-0.42457557,-0.41837007,-0.42067766,-0.4276939,-0.43237138,-0.43389934,-0.43237138,-0.42457557,-0.41057426,-0.39579344,-0.38104373,-0.37246835,-0.36314458,-0.34914327,-0.32815695,-0.30717063,-0.29472852,-0.29628766,-0.31103736,-0.33592153,-0.36938125,-0.40592796,-0.44013596,-0.46112227,-0.46657938,-0.46424067,-0.46034276,-0.45956314,-0.4619019,-0.46346104,-0.46502024,-0.46813852,-0.47122568,-0.4720053,-0.47122568,-0.47122568,-0.47278482,-0.47746235,-0.47980106,-0.47824192,-0.4836678,-0.5039058,-0.52723086,-0.5093316,-0.40125048,-0.17963117,0.12674427,0.45410597,0.7052871,0.8203844,0.7480705,0.47356427,0.026427746,-0.45956314,-0.825062,-0.9650124,-0.8717121,-0.6547391,-0.46112227,-0.36704248,-0.36626285,-0.40979463,-0.44712102,-0.46112227,-0.45257813,-0.43857682,-0.4276939,-0.42535514,-0.4261347,-0.42145717,-0.41213346,-0.40436882,-0.3989117,-0.39735258,-0.39735258,-0.39270627,-0.38569003,-0.37948453,-0.3709404,-0.3608058,-0.35304117,-0.34449697,-0.33670115,-0.32815695,-0.31727397,-0.3040523,-0.29005104,-0.27760887,-0.26906466,-0.2612689,-0.25038588,-0.2387234,-0.22319418,-0.20217663,-0.17963117,-0.15630609,-0.13454014,-0.110435486,-0.0871104,-0.061446667,-0.038869977,-0.021781564,-0.007780254,0.0023231506,0.010867357,0.013206005,0.0046617985,-0.013985753,-0.04354745,-0.08009422,-0.12053889,-0.1648503,-0.21228004,-0.2597409,-0.30093396,-0.33903992,-0.36938125,-0.39657295,-0.42067766,-0.44169515,-0.46034276,-0.47434402,-0.48444736,-0.49302274,-0.49688947,-0.49922824,-0.50312614,-0.5054649,-0.5069929,-0.5054649,-0.5039058,-0.5046853,-0.5054649,-0.5062444,-0.5054649,-0.50312614,-0.5046853,-0.5062444,-0.50777245,-0.5054649,-0.5023466,-0.49844867,-0.49455076,-0.49224323,-0.48990446,-0.48600656,-0.485227,-0.4836678,-0.48288822,-0.4805807,-0.47980106,-0.47980106,-0.47746235,-0.47278482,-0.46735895,-0.46502024,-0.4657998,-0.46966654,-0.4704461,-0.46502024,-0.458004,-0.4533577,-0.45413727,-0.45413727,-0.4517985,-0.45023936,-0.45101893,-0.45413727,-0.45722437,-0.45878357,-0.4556964,-0.45257813,-0.45101893,-0.4494598,-0.44868022,-0.45023936,-0.4533577,-0.45491683,-0.45413727,-0.45101893,-0.44868022,-0.4494598,-0.4517985,-0.4533577,-0.45413727,-0.45413727,-0.45647597,-0.45722437,-0.45647597,-0.4533577,-0.44868022,-0.44634145,-0.4455619,-0.4455619,-0.44325435,-0.44091558,-0.43857682,-0.43701768,-0.43389934,-0.4261347,-0.41837007,-0.41213346,-0.41057426,-0.4136926,-0.4136926,-0.41291302,-0.41291302,-0.4113539,-0.4074871,-0.3981322,-0.38260287,-0.3608058,-0.33670115,-0.3149352,-0.3001544,-0.29628766,-0.30717063,-0.32117188,-0.33592153,-0.34605616,-0.35693908,-0.38026416,-0.41057426,-0.44247472,-0.46502024,-0.47278482,-0.47434402,-0.4704461,-0.4657998,-0.46112227,-0.46034276,-0.46346104,-0.47122568,-0.4790215,-0.48210865,-0.48210865,-0.48210865,-0.48288822,-0.48288822,-0.47980106,-0.4813602,-0.49688947,-0.5248921,-0.535775,-0.48444736,-0.333614,-0.08477175,0.22472203,0.51244974,0.69986105,0.73562837,0.586323,0.25272465,-0.19983786,-0.6275473,-0.8965963,-0.9401282,-0.7900432,-0.5762197,-0.42145717,-0.36860162,-0.39114708,-0.43389934,-0.46268147,-0.46657938,-0.45647597,-0.44712102,-0.44169515,-0.44013596,-0.43623805,-0.42925304,-0.42145717,-0.41291302,-0.40436882,-0.3981322,-0.3919267,-0.38880837,-0.38646966,-0.38104373,-0.37168878,-0.36236495,-0.35615945,-0.35304117,-0.34758407,-0.33903992,-0.32815695,-0.31883317,-0.30947816,-0.29937482,-0.28615314,-0.27218306,-0.26048928,-0.24804717,-0.23251796,-0.21075201,-0.18430865,-0.15552646,-0.12908304,-0.10497844,-0.08165336,-0.05988747,-0.041208744,-0.023340702,-0.0070007443,0.005441427,0.010867357,0.006221056,-0.009339452,-0.033444107,-0.0637542,-0.102639675,-0.14932102,-0.19830996,-0.24729878,-0.29005104,-0.32893652,-0.3647037,-0.39579344,-0.42301637,-0.44325435,-0.45956314,-0.47434402,-0.48600656,-0.49302274,-0.4961099,-0.4961099,-0.49766904,-0.5007874,-0.5046853,-0.5039058,-0.5007874,-0.49766904,-0.4961099,-0.4961099,-0.49688947,-0.49766904,-0.49844867,-0.49844867,-0.49766904,-0.49688947,-0.49533033,-0.49302274,-0.48990446,-0.485227,-0.4813602,-0.47980106,-0.4813602,-0.4836678,-0.48444736,-0.48288822,-0.4813602,-0.4813602,-0.47980106,-0.47746235,-0.47278482,-0.46966654,-0.46966654,-0.4704461,-0.47122568,-0.46813852,-0.46502024,-0.46346104,-0.46268147,-0.46034276,-0.4556964,-0.4517985,-0.44868022,-0.4479006,-0.44712102,-0.4448135,-0.44247472,-0.4448135,-0.44712102,-0.45023936,-0.45101893,-0.4494598,-0.45101893,-0.45413727,-0.45647597,-0.4533577,-0.45023936,-0.44712102,-0.44712102,-0.45023936,-0.45023936,-0.4479006,-0.4455619,-0.4448135,-0.44403392,-0.44247472,-0.4393564,-0.43857682,-0.44169515,-0.44091558,-0.43701768,-0.42691427,-0.41525173,-0.40280962,-0.39504504,-0.3919267,-0.3919267,-0.39657295,-0.40203005,-0.40280962,-0.39504504,-0.38104373,-0.36002624,-0.33283442,-0.3040523,-0.27916807,-0.26906466,-0.27218306,-0.2853735,-0.30093396,-0.31571484,-0.33514202,-0.36158538,-0.3942654,-0.42691427,-0.45023936,-0.46502024,-0.47122568,-0.4704461,-0.46735895,-0.46424067,-0.46346104,-0.46891814,-0.47746235,-0.48210865,-0.4813602,-0.4790215,-0.47746235,-0.4790215,-0.48288822,-0.48444736,-0.48600656,-0.49380237,-0.51556826,-0.5466579,-0.5497763,-0.47590315,-0.2892714,0.005441427,0.36236477,0.681962,0.8732399,0.87557864,0.66253483,0.24960613,-0.25740218,-0.69128585,-0.92690647,-0.9168031,-0.7301714,-0.5147887,-0.3880288,-0.36938125,-0.41057426,-0.45491683,-0.47434402,-0.47122568,-0.45878357,-0.4479006,-0.4393564,-0.4315918,-0.42691427,-0.4261347,-0.4261347,-0.42535514,-0.41992927,-0.41291302,-0.40592796,-0.3989117,-0.39270627,-0.38335127,-0.37558663,-0.37168878,-0.36938125,-0.3647037,-0.35537994,-0.34449697,-0.33127528,-0.3203923,-0.30947816,-0.29628766,-0.28228635,-0.26906466,-0.25272465,-0.23251796,-0.20763367,-0.18196994,-0.15864486,-0.13609934,-0.11352265,-0.0871104,-0.060667038,-0.039649546,-0.021001935,-0.0046619177,0.010118842,0.021001816,0.026427746,0.024868608,0.013206005,-0.007780254,-0.040429115,-0.0871104,-0.14230484,-0.19753033,-0.24882674,-0.29781568,-0.34527653,-0.38260287,-0.41057426,-0.42925304,-0.44169515,-0.45647597,-0.47356445,-0.4875657,-0.49533033,-0.5007874,-0.5046853,-0.5062444,-0.5069929,-0.5039058,-0.501567,-0.50312614,-0.5062444,-0.5069929,-0.50312614,-0.49844867,-0.49688947,-0.49844867,-0.5000078,-0.49844867,-0.49455076,-0.49302274,-0.49302274,-0.49224323,-0.48990446,-0.485227,-0.4836678,-0.48288822,-0.4813602,-0.47824192,-0.47668272,-0.47824192,-0.47980106,-0.4805807,-0.47590315,-0.47122568,-0.4704461,-0.4704461,-0.47122568,-0.4704461,-0.46735895,-0.46735895,-0.46813852,-0.46735895,-0.46424067,-0.45878357,-0.458004,-0.45878357,-0.45878357,-0.45647597,-0.4533577,-0.45101893,-0.4494598,-0.4517985,-0.45413727,-0.4556964,-0.45878357,-0.4619019,-0.46112227,-0.45491683,-0.4494598,-0.44634145,-0.4455619,-0.45023936,-0.4533577,-0.45647597,-0.458004,-0.45647597,-0.45413727,-0.45101893,-0.44868022,-0.4494598,-0.45023936,-0.44712102,-0.43779725,-0.42691427,-0.4175905,-0.41057426,-0.4051484,-0.40280962,-0.40280962,-0.40280962,-0.40436882,-0.40280962,-0.39657295,-0.38958794,-0.3779254,-0.3592466,-0.33049572,-0.29628766,-0.27218306,-0.2643872,-0.27218306,-0.28849185,-0.3040523,-0.3203923,-0.34215826,-0.37246835,-0.4082355,-0.4393564,-0.46268147,-0.47590315,-0.47746235,-0.47278482,-0.4657998,-0.4619019,-0.46813852,-0.47668272,-0.48444736,-0.48834527,-0.48912483,-0.48678613,-0.4836678,-0.48288822,-0.47980106,-0.47980106,-0.48210865,-0.49380237,-0.51868653,-0.552115,-0.56065917,-0.49455076,-0.30872977,-0.0054415464,0.37402725,0.721627,0.93778944,0.9533498,0.7340692,0.3001542,-0.23560506,-0.6983021,-0.94792396,-0.93778944,-0.7418339,-0.5171274,-0.38491046,-0.36158538,-0.40125048,-0.4455619,-0.46813852,-0.46966654,-0.46112227,-0.45101893,-0.44169515,-0.43623805,-0.43389934,-0.4315918,-0.4276939,-0.41914964,-0.41057426,-0.40358925,-0.3981322,-0.3942654,-0.39270627,-0.38880837,-0.38335127,-0.37480712,-0.36236495,-0.3483637,-0.33748078,-0.33049572,-0.3250386,-0.32117188,-0.31337607,-0.3001544,-0.2838456,-0.26594633,-0.24729878,-0.22862005,-0.20763367,-0.18661618,-0.16173196,-0.1376273,-0.11274308,-0.0871104,-0.062226236,-0.037342012,-0.013237298,0.010118842,0.027207375,0.035751462,0.03653109,0.029546022,0.015544772,-0.0070007443,-0.042767882,-0.087858856,-0.13996607,-0.19363242,-0.2441805,-0.29238975,-0.33592153,-0.37324792,-0.40203005,-0.42457557,-0.44325435,-0.45956314,-0.47356445,-0.485227,-0.49380237,-0.5000078,-0.5046853,-0.5069929,-0.5069929,-0.5062444,-0.5054649,-0.50312614,-0.5023466,-0.49922824,-0.5000078,-0.50312614,-0.5085521,-0.50777245,-0.5046853,-0.5007874,-0.5000078,-0.50312614,-0.5046853,-0.5007874,-0.4961099,-0.49533033,-0.49844867,-0.5023466,-0.50312614,-0.5007874,-0.49766904,-0.4961099,-0.49380237,-0.49068403,-0.48600656,-0.48210865,-0.4805807,-0.47824192,-0.47512358,-0.47278482,-0.47122568,-0.47122568,-0.47122568,-0.46891814,-0.46813852,-0.46813852,-0.46735895,-0.4657998,-0.4619019,-0.45956314,-0.45956314,-0.46112227,-0.46112227,-0.45956314,-0.45878357,-0.46034276,-0.4619019,-0.46112227,-0.45722437,-0.45491683,-0.45722437,-0.46034276,-0.4657998,-0.4657998,-0.46346104,-0.46268147,-0.46034276,-0.45647597,-0.45257813,-0.45101893,-0.45257813,-0.4533577,-0.45413727,-0.45023936,-0.4494598,-0.4479006,-0.44247472,-0.43237138,-0.42067766,-0.41447216,-0.41681087,-0.42145717,-0.41992927,-0.41525173,-0.40979463,-0.40670753,-0.40280962,-0.3919267,-0.36704248,-0.33670115,-0.3079502,-0.2892714,-0.2853735,-0.29161018,-0.3040523,-0.3203923,-0.33670115,-0.3577187,-0.38646966,-0.4175905,-0.44868022,-0.4704461,-0.4790215,-0.47590315,-0.4704461,-0.46891814,-0.4704461,-0.47278482,-0.47356445,-0.4720053,-0.47356445,-0.47824192,-0.4836678,-0.48678613,-0.48834527,-0.48912483,-0.48678613,-0.485227,-0.48990446,-0.5085521,-0.535775,-0.53034914,-0.44325435,-0.2387234,0.060635805,0.39345443,0.665622,0.8087218,0.77526224,0.54042125,0.1244055,-0.36392415,-0.76515895,-0.95646816,-0.9105976,-0.71386254,-0.50777245,-0.38958794,-0.367822,-0.4004709,-0.44247472,-0.46502024,-0.46502024,-0.45023936,-0.43623805,-0.43237138,-0.4331197,-0.4315918,-0.42535514,-0.41681087,-0.40979463,-0.4051484,-0.40203005,-0.39735258,-0.39348584,-0.39036757,-0.38646966,-0.38260287,-0.37636626,-0.36860162,-0.36002624,-0.35070246,-0.3382603,-0.32737738,-0.31883317,-0.31181693,-0.30171353,-0.2853735,-0.26360768,-0.2402826,-0.22007579,-0.20217663,-0.18430865,-0.16251153,-0.14074558,-0.11975932,-0.097213805,-0.07388872,-0.05131209,-0.03032583,-0.014765322,-0.0046619177,0.0015435219,0.0046617985,-1.5616417e-05,-0.015544832,-0.042767882,-0.07853502,-0.124436796,-0.17495364,-0.23095876,-0.28615314,-0.33283442,-0.3647037,-0.38646966,-0.4051484,-0.423796,-0.44712102,-0.46657938,-0.48288822,-0.49224323,-0.49922824,-0.50312614,-0.5039058,-0.5039058,-0.5039058,-0.50312614,-0.49922824,-0.49455076,-0.4914636,-0.49302274,-0.49688947,-0.5007874,-0.501567,-0.5000078,-0.501567,-0.5023466,-0.5000078,-0.4961099,-0.49380237,-0.49224323,-0.49302274,-0.49302274,-0.48990446,-0.48678613,-0.48678613,-0.485227,-0.48288822,-0.47746235,-0.47356445,-0.4720053,-0.47356445,-0.47512358,-0.47356445,-0.4704461,-0.46657938,-0.46346104,-0.46034276,-0.458004,-0.458004,-0.46034276,-0.46268147,-0.46268147,-0.45878357,-0.4556964,-0.45491683,-0.4533577,-0.4533577,-0.4494598,-0.44712102,-0.4479006,-0.45023936,-0.45257813,-0.4533577,-0.45101893,-0.4517985,-0.45491683,-0.45722437,-0.45722437,-0.4533577,-0.45023936,-0.44868022,-0.4479006,-0.44712102,-0.44712102,-0.44868022,-0.4494598,-0.4494598,-0.4448135,-0.43779725,-0.4315918,-0.4261347,-0.42301637,-0.41837007,-0.41447216,-0.41057426,-0.4074871,-0.40592796,-0.40436882,-0.40203005,-0.39657295,-0.38104373,-0.35615945,-0.32581824,-0.30093396,-0.2892714,-0.29005104,-0.29781568,-0.30639106,-0.3203923,-0.34059906,-0.36860162,-0.40358925,-0.4346789,-0.45956314,-0.47434402,-0.47746235,-0.47590315,-0.47122568,-0.47122568,-0.47512358,-0.4805807,-0.48444736,-0.48600656,-0.4875657,-0.48912483,-0.49068403,-0.48834527,-0.48288822,-0.4790215,-0.47980106,-0.48444736,-0.5023466,-0.5318771,-0.54743755,-0.5054649,-0.36236495,-0.110435486,0.21150029,0.5178757,0.72006786,0.76671803,0.62364936,0.2923895,-0.16407067,-0.6011039,-0.8818155,-0.9300248,-0.77916026,-0.5668959,-0.4175905,-0.37246835,-0.39657295,-0.43779725,-0.46112227,-0.46502024,-0.45878357,-0.45023936,-0.44247472,-0.43545854,-0.4315918,-0.42691427,-0.42067766,-0.4136926,-0.40592796,-0.40280962,-0.40125048,-0.39969134,-0.39504504,-0.3880288,-0.3818233,-0.3740275,-0.36548334,-0.35537994,-0.34605616,-0.33903992,-0.3343624,-0.32893652,-0.31883317,-0.3079502,-0.29706728,-0.28306597,-0.2643872,-0.24262124,-0.21695751,-0.19519156,-0.17573327,-0.15474695,-0.13142186,-0.10809684,-0.08477175,-0.062226236,-0.039649546,-0.017883658,-0.0023232698,0.0070005655,0.010867357,0.0070005655,-0.0023232698,-0.023340702,-0.0591079,-0.10419887,-0.15474695,-0.20373577,-0.25038588,-0.29550815,-0.33592153,-0.3709404,-0.3989117,-0.42301637,-0.44634145,-0.46966654,-0.48834527,-0.49533033,-0.49455076,-0.49224323,-0.48990446,-0.49068403,-0.49533033,-0.5007874,-0.5046853,-0.5062444,-0.5039058,-0.5000078,-0.49766904,-0.5000078,-0.5023466,-0.5023466,-0.49844867,-0.49380237,-0.49224323,-0.49224323,-0.49302274,-0.49224323,-0.48990446,-0.49068403,-0.49068403,-0.49068403,-0.4875657,-0.48444736,-0.4836678,-0.4836678,-0.48210865,-0.47668272,-0.47434402,-0.47824192,-0.48210865,-0.48210865,-0.47590315,-0.46502024,-0.458004,-0.45722437,-0.46034276,-0.4619019,-0.4619019,-0.46346104,-0.46502024,-0.46424067,-0.46112227,-0.458004,-0.45722437,-0.45722437,-0.4556964,-0.4517985,-0.4479006,-0.4479006,-0.45101893,-0.45491683,-0.45722437,-0.45956314,-0.46112227,-0.4619019,-0.45878357,-0.4533577,-0.4494598,-0.44868022,-0.45101893,-0.45257813,-0.4517985,-0.45023936,-0.45257813,-0.45491683,-0.45491683,-0.45023936,-0.4455619,-0.44403392,-0.44634145,-0.45101893,-0.4533577,-0.4533577,-0.45023936,-0.4448135,-0.43623805,-0.4261347,-0.41914964,-0.41992927,-0.4276939,-0.43545854,-0.43779725,-0.43237138,-0.42145717,-0.40670753,-0.39270627,-0.3818233,-0.37246835,-0.36626285,-0.35693908,-0.3398195,-0.31727397,-0.29706728,-0.2892714,-0.29628766,-0.31571484,-0.34059906,-0.37324792,-0.4082355,-0.43857682,-0.458004,-0.46346104,-0.46112227,-0.45956314,-0.4619019,-0.46424067,-0.4657998,-0.4657998,-0.4657998,-0.46735895,-0.46966654,-0.47122568,-0.4720053,-0.47434402,-0.47512358,-0.47512358,-0.47668272,-0.49068403,-0.52021456,-0.5450988,-0.5163478,-0.38646966,-0.1430844,0.18583655,0.5349952,0.79936683,0.91134596,0.81570697,0.49610972,0.010118842,-0.4836678,-0.8227232,-0.9199214,-0.79627985,-0.57855844,-0.4113539,-0.3522616,-0.37870502,-0.43081218,-0.46346104,-0.46891814,-0.4556964,-0.44325435,-0.43857682,-0.43857682,-0.43701768,-0.42925304,-0.42067766,-0.41447216,-0.40979463,-0.40436882,-0.39579344,-0.38569003,-0.37948453,-0.37636626,-0.37324792,-0.36938125,-0.36236495,-0.3538208,-0.34449697,-0.33592153,-0.32581824,-0.31649446,-0.30872977,-0.29781568,-0.2846251,-0.2682851,-0.2511655,-0.23638463,-0.21851665,-0.19675076,-0.1710869,-0.14386398,-0.11820012,-0.0933159,-0.069211304,-0.04432702,-0.021001935,-0.00079518557,0.016324282,0.03188479,0.041988254,0.042767763,0.03110516,0.009339333,-0.021001935,-0.060667038,-0.110435486,-0.167189,-0.22472215,-0.27604973,-0.31961274,-0.35693908,-0.38958794,-0.41914964,-0.44091558,-0.45722437,-0.4720053,-0.48444736,-0.49533033,-0.5000078,-0.5000078,-0.49844867,-0.49922824,-0.5023466,-0.5039058,-0.501567,-0.49766904,-0.49688947,-0.49766904,-0.49844867,-0.4961099,-0.49224323,-0.49068403,-0.49224323,-0.49455076,-0.49380237,-0.49302274,-0.49380237,-0.49302274,-0.4914636,-0.4875657,-0.48288822,-0.47980106,-0.47746235,-0.47434402,-0.47278482,-0.47356445,-0.47824192,-0.48210865,-0.47980106,-0.46966654,-0.46268147,-0.46112227,-0.46346104,-0.46502024,-0.46268147,-0.45878357,-0.458004,-0.46034276,-0.46346104,-0.46346104,-0.46112227,-0.45956314,-0.45722437,-0.4533577,-0.4494598,-0.44712102,-0.4494598,-0.45257813,-0.45413727,-0.4533577,-0.45101893,-0.45257813,-0.4533577,-0.4533577,-0.45023936,-0.44868022,-0.4517985,-0.45647597,-0.45878357,-0.4556964,-0.4517985,-0.45257813,-0.45722437,-0.45956314,-0.45413727,-0.4479006,-0.44325435,-0.44247472,-0.44712102,-0.44868022,-0.44868022,-0.4494598,-0.45023936,-0.45023936,-0.44634145,-0.44247472,-0.44013596,-0.4393564,-0.44013596,-0.44169515,-0.44325435,-0.44712102,-0.4494598,-0.4479006,-0.44403392,-0.44169515,-0.44247472,-0.44325435,-0.44247472,-0.43779725,-0.43389934,-0.43545854,-0.43779725,-0.43623805,-0.42925304,-0.41914964,-0.41213346,-0.41057426,-0.41525173,-0.41914964,-0.42301637,-0.42067766,-0.41291302,-0.3981322,-0.3818233,-0.3709404,-0.3647037,-0.3592466,-0.34680456,-0.32659775,-0.30561143,-0.2892714,-0.28228635,-0.2892714,-0.30561143,-0.33127528,-0.36626285,-0.4004709,-0.4284734,-0.44403392,-0.45101893,-0.45101893,-0.44712102,-0.44325435,-0.44325435,-0.44868022,-0.4556964,-0.46112227,-0.46112227,-0.45878357,-0.45878357,-0.46424067,-0.47122568,-0.47278482,-0.47122568,-0.47278482,-0.48834527,-0.5171274,-0.53265667,-0.4836678,-0.32737738,-0.056769192,0.29391766,0.6415173,0.88259494,0.9494519,0.79160213,0.41681087,-0.0933159,-0.5715422,-0.87015295,-0.9238193,-0.7698364,-0.5505558,-0.39735258,-0.35615945,-0.39114708,-0.4393564,-0.46502024,-0.46034276,-0.4448135,-0.43389934,-0.43003255,-0.4276939,-0.42301637,-0.41914964,-0.4175905,-0.41447216,-0.4074871,-0.39504504,-0.38491046,-0.37948453,-0.37558663,-0.3709404,-0.3647037,-0.3592466,-0.3577187,-0.35615945,-0.35148203,-0.34137863,-0.32893652,-0.3180536,-0.30561143,-0.2908306,-0.27293146,-0.25584304,-0.24184173,-0.22706085,-0.21075201,-0.18817532,-0.16329116,-0.1376273,-0.11430222,-0.09019756,-0.06453383,-0.039649546,-0.017883658,0.0007638931,0.016324282,0.027986884,0.03188479,0.027986884,0.014765263,-0.0070007443,-0.037342012,-0.07697588,-0.12596476,-0.18041068,-0.23017919,-0.27527016,-0.31727397,-0.35537994,-0.39036757,-0.41914964,-0.44013596,-0.45647597,-0.46966654,-0.4805807,-0.48678613,-0.4914636,-0.49688947,-0.50312614,-0.5069929,-0.5101112,-0.5093316,-0.50777245,-0.5069929,-0.5062444,-0.5046853,-0.5007874,-0.49922824,-0.5000078,-0.5007874,-0.501567,-0.5000078,-0.49766904,-0.49533033,-0.49302274,-0.48990446,-0.48912483,-0.4914636,-0.49533033,-0.49766904,-0.49533033,-0.4875657,-0.4805807,-0.4790215,-0.4813602,-0.4836678,-0.4836678,-0.47980106,-0.47512358,-0.47122568,-0.4704461,-0.46735895,-0.46424067,-0.46346104,-0.46346104,-0.46346104,-0.46346104,-0.46346104,-0.46346104,-0.46034276,-0.45647597,-0.4517985,-0.45023936,-0.45413727,-0.45722437,-0.458004,-0.45491683,-0.45257813,-0.4556964,-0.45878357,-0.46112227,-0.45722437,-0.4494598,-0.44247472,-0.44013596,-0.44169515,-0.45023936,-0.45956314,-0.46891814,-0.47356445,-0.4720053,-0.46813852,-0.46268147,-0.46034276,-0.45647597,-0.45491683,-0.45257813,-0.4517985,-0.45491683,-0.45413727,-0.4517985,-0.4455619,-0.44091558,-0.44169515,-0.44403392,-0.44634145,-0.44634145,-0.44325435,-0.44169515,-0.44013596,-0.4393564,-0.44013596,-0.44325435,-0.44634145,-0.44634145,-0.44325435,-0.4346789,-0.4284734,-0.4276939,-0.42691427,-0.42691427,-0.42691427,-0.4276939,-0.43237138,-0.43545854,-0.42925304,-0.41213346,-0.3919267,-0.3779254,-0.37016076,-0.36704248,-0.3546003,-0.33514202,-0.31337607,-0.2939489,-0.28771228,-0.29706728,-0.31571484,-0.34758407,-0.38335127,-0.41681087,-0.44169515,-0.4533577,-0.45722437,-0.4533577,-0.4455619,-0.4393564,-0.44013596,-0.4455619,-0.4517985,-0.45722437,-0.45878357,-0.46034276,-0.46657938,-0.4720053,-0.47278482,-0.46813852,-0.46346104,-0.46502024,-0.4805807,-0.5054649,-0.5046853,-0.4331197,-0.26048928,0.005441427,0.31415558,0.5738808,0.7169496,0.69986105,0.49688935,0.1244055,-0.32737738,-0.7146421,-0.91836226,-0.8958168,-0.7130829,-0.50777245,-0.38260287,-0.35615945,-0.38880837,-0.43081218,-0.4517985,-0.4517985,-0.44091558,-0.4261347,-0.41681087,-0.41057426,-0.4082355,-0.4074871,-0.40436882,-0.39735258,-0.38880837,-0.3818233,-0.3818233,-0.3841309,-0.3841309,-0.3779254,-0.36860162,-0.35849822,-0.34992284,-0.34293777,-0.33514202,-0.32659775,-0.3203923,-0.3141557,-0.30483192,-0.2908306,-0.27293146,-0.25584304,-0.23716426,-0.22007579,-0.20139706,-0.18274945,-0.16562986,-0.14542311,-0.12287766,-0.09799343,-0.07466835,-0.056769192,-0.041208744,-0.02567947,-0.007780254,0.006221056,0.010867357,0.0046617985,-0.011678159,-0.03812158,-0.07388872,-0.11897975,-0.16640949,-0.21228004,-0.25584304,-0.29781568,-0.3398195,-0.3771459,-0.40670753,-0.42691427,-0.44169515,-0.4556964,-0.46966654,-0.48210865,-0.49068403,-0.49688947,-0.5007874,-0.501567,-0.49844867,-0.49455076,-0.49302274,-0.49380237,-0.4961099,-0.49766904,-0.4961099,-0.4961099,-0.49922824,-0.501567,-0.501567,-0.49844867,-0.4961099,-0.49766904,-0.5000078,-0.5007874,-0.49688947,-0.4914636,-0.48912483,-0.48834527,-0.48678613,-0.4836678,-0.4805807,-0.4805807,-0.4790215,-0.47668272,-0.47356445,-0.46966654,-0.46735895,-0.46735895,-0.4657998,-0.46034276,-0.45647597,-0.4533577,-0.45101893,-0.45023936,-0.45023936,-0.4494598,-0.4517985,-0.4517985,-0.45023936,-0.4455619,-0.44169515,-0.44091558,-0.44169515,-0.44325435,-0.44403392,-0.44247472,-0.44247472,-0.44169515,-0.44091558,-0.4393564,-0.43857682,-0.44091558,-0.44247472,-0.44247472,-0.44013596,-0.4393564,-0.44247472,-0.4448135,-0.4448135,-0.44325435,-0.4393564,-0.4393564,-0.4393564,-0.43857682,-0.43701768,-0.43545854,-0.43701768,-0.4393564,-0.43857682,-0.43545854,-0.43237138,-0.4331197,-0.43545854,-0.43623805,-0.43545854,-0.4331197,-0.43081218,-0.42691427,-0.41914964,-0.4113539,-0.4074871,-0.41291302,-0.42301637,-0.43003255,-0.4276939,-0.41992927,-0.40901512,-0.39579344,-0.38260287,-0.36860162,-0.35615945,-0.34449697,-0.33283442,-0.31727397,-0.29937482,-0.2869327,-0.2869327,-0.29781568,-0.3180536,-0.34680456,-0.38335127,-0.42145717,-0.45023936,-0.46502024,-0.46424067,-0.45722437,-0.4517985,-0.4494598,-0.45101893,-0.45257813,-0.4556964,-0.4619019,-0.4657998,-0.46657938,-0.46424067,-0.4619019,-0.46268147,-0.46424067,-0.46502024,-0.4720053,-0.49533033,-0.5209941,-0.5054649,-0.40203005,-0.18817532,0.11352253,0.43779707,0.68741906,0.8040445,0.7418339,0.48366773,0.060635805,-0.40203005,-0.75271684,-0.8926984,-0.8118403,-0.61432564,-0.44091558,-0.36314458,-0.36938125,-0.40979463,-0.44325435,-0.4533577,-0.44868022,-0.43701768,-0.4261347,-0.41914964,-0.41447216,-0.41057426,-0.40592796,-0.40203005,-0.3981322,-0.39348584,-0.38880837,-0.38335127,-0.37948453,-0.3779254,-0.3740275,-0.367822,-0.35693908,-0.34680456,-0.34059906,-0.33514202,-0.32971615,-0.32117188,-0.3125965,-0.30171353,-0.2892714,-0.27371097,-0.2542838,-0.23638463,-0.22085541,-0.20139706,-0.17963117,-0.15240812,-0.12674439,-0.10575807,-0.08633089,-0.06453383,-0.039649546,-0.015544832,0.0023231506,0.015544772,0.02330947,0.025648236,0.020222306,0.0023231506,-0.02567947,-0.0637542,-0.10731721,-0.15630609,-0.2099725,-0.26048928,-0.30561143,-0.34293777,-0.37324792,-0.40203005,-0.4284734,-0.4517985,-0.46891814,-0.4813602,-0.48990446,-0.49533033,-0.49766904,-0.49844867,-0.5007874,-0.5046853,-0.5085521,-0.5085521,-0.5046853,-0.5000078,-0.49844867,-0.4961099,-0.49533033,-0.49224323,-0.48990446,-0.49068403,-0.49302274,-0.49455076,-0.49455076,-0.49533033,-0.49766904,-0.49766904,-0.49455076,-0.48834527,-0.48288822,-0.4805807,-0.48288822,-0.48444736,-0.48210865,-0.4790215,-0.47668272,-0.47356445,-0.4720053,-0.46966654,-0.46813852,-0.46891814,-0.4704461,-0.46891814,-0.4657998,-0.46112227,-0.45956314,-0.45878357,-0.458004,-0.45647597,-0.45491683,-0.45413727,-0.4517985,-0.4479006,-0.44247472,-0.43857682,-0.44013596,-0.44169515,-0.44247472,-0.44091558,-0.44247472,-0.44634145,-0.4479006,-0.44712102,-0.44169515,-0.43701768,-0.4393564,-0.44325435,-0.4455619,-0.4455619,-0.4448135,-0.4455619,-0.44634145,-0.4455619,-0.44169515,-0.4393564,-0.44091558,-0.44325435,-0.44403392,-0.44247472,-0.43779725,-0.43701768,-0.43701768,-0.43623805,-0.43545854,-0.43389934,-0.4346789,-0.43701768,-0.43779725,-0.43545854,-0.43003255,-0.4222368,-0.41447216,-0.4082355,-0.40901512,-0.41603136,-0.4261347,-0.42925304,-0.42457557,-0.41213346,-0.39735258,-0.38646966,-0.37558663,-0.36314458,-0.34680456,-0.32737738,-0.3079502,-0.28849185,-0.27293146,-0.26906466,-0.2783885,-0.30249316,-0.33592153,-0.37324792,-0.4082355,-0.43389934,-0.45023936,-0.45647597,-0.45413727,-0.45023936,-0.4494598,-0.45413727,-0.46034276,-0.46502024,-0.46735895,-0.4704461,-0.47356445,-0.47590315,-0.47668272,-0.47356445,-0.47122568,-0.47356445,-0.48288822,-0.5054649,-0.5365546,-0.54279125,-0.47668272,-0.29781568,-0.008559823,0.35148203,0.68352115,0.89113927,0.9136846,0.7169496,0.3110373,-0.20139706,-0.6493132,-0.89737594,-0.8965963,-0.71230334,-0.49766904,-0.37480712,-0.35849822,-0.40203005,-0.4479006,-0.46813852,-0.46735895,-0.45647597,-0.4448135,-0.43389934,-0.4261347,-0.42145717,-0.41837007,-0.41525173,-0.41057426,-0.40670753,-0.4051484,-0.40203005,-0.39735258,-0.38646966,-0.37480712,-0.36938125,-0.367822,-0.36626285,-0.36158538,-0.3522616,-0.3382603,-0.32269984,-0.30639106,-0.29316938,-0.28306597,-0.27527016,-0.26750553,-0.25350428,-0.2340771,-0.2115004,-0.19051409,-0.16796863,-0.14074558,-0.110435486,-0.08165336,-0.055989563,-0.033444107,-0.013237298,0.008559704,0.026427746,0.03731072,0.041208625,0.03731072,0.024088979,-1.5616417e-05,-0.035782874,-0.083212554,-0.13454014,-0.18430865,-0.23485667,-0.28228635,-0.32659775,-0.36548334,-0.39657295,-0.4222368,-0.4448135,-0.46424067,-0.47980106,-0.49224323,-0.49922824,-0.5046853,-0.5069929,-0.50777245,-0.5062444,-0.5062444,-0.5062444,-0.5054649,-0.5046853,-0.5023466,-0.5023466,-0.50777245,-0.5132295,-0.5124499,-0.50777245,-0.5007874,-0.4961099,-0.49688947,-0.49922824,-0.5000078,-0.49922824,-0.49844867,-0.49844867,-0.4961099,-0.4914636,-0.48678613,-0.48600656,-0.4875657,-0.48912483,-0.48678613,-0.48288822,-0.4790215,-0.47746235,-0.47512358,-0.47356445,-0.4720053,-0.46891814,-0.46735895,-0.46424067,-0.4619019,-0.46034276,-0.46346104,-0.46657938,-0.46735895,-0.46268147,-0.45722437,-0.45413727,-0.45257813,-0.45491683,-0.45647597,-0.45722437,-0.458004,-0.45647597,-0.4556964,-0.45647597,-0.458004,-0.45878357,-0.45722437,-0.4517985,-0.4455619,-0.44403392,-0.44868022,-0.45257813,-0.45257813,-0.44868022,-0.4448135,-0.44403392,-0.44403392,-0.44325435,-0.44091558,-0.4393564,-0.44169515,-0.4455619,-0.44712102,-0.44712102,-0.4479006,-0.44712102,-0.44403392,-0.44013596,-0.43389934,-0.43237138,-0.43701768,-0.44247472,-0.4448135,-0.44403392,-0.43857682,-0.43237138,-0.42691427,-0.42145717,-0.42067766,-0.42535514,-0.43081218,-0.43237138,-0.4261347,-0.41291302,-0.3989117,-0.39114708,-0.38491046,-0.37870502,-0.36704248,-0.35070246,-0.333614,-0.31571484,-0.30171353,-0.29859525,-0.30872977,-0.33049572,-0.3608058,-0.3942654,-0.4222368,-0.44325435,-0.4556964,-0.45878357,-0.45413727,-0.4494598,-0.44712102,-0.45023936,-0.45257813,-0.45491683,-0.46034276,-0.46735895,-0.47278482,-0.47590315,-0.47278482,-0.46424067,-0.46034276,-0.46268147,-0.47122568,-0.49302274,-0.5163478,-0.5054649,-0.41603136,-0.21851665,0.06765199,0.38568985,0.64073765,0.76749766,0.72318614,0.48912477,0.083992004,-0.38724917,-0.7698364,-0.9448056,-0.88802093,-0.6858599,-0.485227,-0.38026416,-0.36938125,-0.40280962,-0.43389934,-0.44712102,-0.4479006,-0.4393564,-0.4315918,-0.423796,-0.4175905,-0.41603136,-0.41603136,-0.41291302,-0.40670753,-0.39969134,-0.3942654,-0.38958794,-0.38260287,-0.37636626,-0.37246835,-0.36938125,-0.36704248,-0.36158538,-0.35148203,-0.34059906,-0.32971615,-0.31883317,-0.30639106,-0.2939489,-0.28306597,-0.27604973,-0.2682851,-0.2550634,-0.2387234,-0.21773708,-0.19597119,-0.1710869,-0.14386398,-0.11352265,-0.08633089,-0.06531334,-0.047445357,-0.03188491,-0.015544832,-0.0023232698,0.005441427,0.006221056,0.0023231506,-0.010119021,-0.035782874,-0.07310921,-0.11897975,-0.16874814,-0.21851665,-0.26672596,-0.3125965,-0.35304117,-0.38260287,-0.4051484,-0.42535514,-0.44712102,-0.46657938,-0.4805807,-0.48990446,-0.49302274,-0.49844867,-0.5023466,-0.5039058,-0.5023466,-0.5000078,-0.49922824,-0.5007874,-0.5007874,-0.49844867,-0.49533033,-0.49533033,-0.49688947,-0.49844867,-0.5000078,-0.5000078,-0.49922824,-0.49922824,-0.49844867,-0.49766904,-0.4961099,-0.49766904,-0.49766904,-0.49380237,-0.48912483,-0.48210865,-0.4790215,-0.47980106,-0.4813602,-0.485227,-0.4875657,-0.4875657,-0.485227,-0.4790215,-0.47356445,-0.46966654,-0.46891814,-0.46813852,-0.46735895,-0.46346104,-0.45878357,-0.458004,-0.45722437,-0.458004,-0.45878357,-0.45956314,-0.46268147,-0.46657938,-0.4657998,-0.46502024,-0.46346104,-0.46268147,-0.46268147,-0.46034276,-0.45647597,-0.45491683,-0.45722437,-0.4619019,-0.4657998,-0.46346104,-0.45956314,-0.458004,-0.45722437,-0.45722437,-0.45878357,-0.46034276,-0.46268147,-0.46424067,-0.4619019,-0.45878357,-0.4556964,-0.4556964,-0.4556964,-0.45491683,-0.45101893,-0.44325435,-0.4346789,-0.42301637,-0.41291302,-0.4082355,-0.40358925,-0.40670753,-0.41057426,-0.41525173,-0.41837007,-0.41914964,-0.40979463,-0.38646966,-0.3546003,-0.32347947,-0.30483192,-0.30483192,-0.31727397,-0.32815695,-0.33592153,-0.3437174,-0.35849822,-0.3818233,-0.41213346,-0.44013596,-0.4619019,-0.4790215,-0.485227,-0.4836678,-0.4790215,-0.47590315,-0.47590315,-0.4790215,-0.4813602,-0.485227,-0.48990446,-0.49533033,-0.5007874,-0.501567,-0.49844867,-0.49455076,-0.49455076,-0.5054649,-0.5295695,-0.552115,-0.53034914,-0.41914964,-0.19983786,0.103419185,0.4191184,0.6500927,0.74027467,0.6493131,0.3755865,-0.04588622,-0.49068403,-0.8164866,-0.93158394,-0.8336062,-0.62910646,-0.45878357,-0.3880288,-0.39735258,-0.43701768,-0.46268147,-0.46657938,-0.45878357,-0.45023936,-0.44325435,-0.44091558,-0.44169515,-0.44247472,-0.44091558,-0.4346789,-0.423796,-0.4136926,-0.40670753,-0.4004709,-0.39579344,-0.39114708,-0.38646966,-0.38491046,-0.37948453,-0.37246835,-0.36392415,-0.35693908,-0.35070246,-0.34449697,-0.33205485,-0.31571484,-0.29859525,-0.2853735,-0.2744906,-0.2597409,-0.24262124,-0.22085541,-0.19983786,-0.17807204,-0.15474695,-0.1306423,-0.10497844,-0.08165336,-0.0591079,-0.037342012,-0.020222366,-0.010119021,-0.007780254,-0.009339452,-0.01710409,-0.033444107,-0.05988747,-0.09955257,-0.14464355,-0.19129372,-0.2387234,-0.28615314,-0.333614,-0.37324792,-0.40436882,-0.42691427,-0.44634145,-0.46502024,-0.4813602,-0.49380237,-0.5007874,-0.5062444,-0.51167035,-0.517907,-0.5194349,-0.5194349,-0.517907,-0.517907,-0.51868653,-0.5171274,-0.5132295,-0.5101112,-0.5101112,-0.5124499,-0.5147887,-0.51400906,-0.5124499,-0.51167035,-0.5093316,-0.5069929,-0.5054649,-0.5054649,-0.5085521,-0.5093316,-0.5062444,-0.501567,-0.49844867,-0.49922824,-0.501567,-0.50312614,-0.5023466,-0.5000078,-0.5000078,-0.5000078,-0.49533033,-0.48990446,-0.4836678,-0.48210865,-0.4813602,-0.48210865,-0.48210865,-0.47824192,-0.47590315,-0.47356445,-0.47122568,-0.46891814,-0.46891814,-0.4720053,-0.47434402,-0.47356445,-0.46891814,-0.46424067,-0.4619019,-0.46424067,-0.4657998,-0.4657998,-0.46424067,-0.46424067,-0.46424067,-0.4619019,-0.46034276,-0.46112227,-0.46346104,-0.4657998,-0.4657998,-0.4619019,-0.45956314,-0.45956314,-0.45878357,-0.45878357,-0.45722437,-0.4556964,-0.45647597,-0.4556964,-0.4533577,-0.4517985,-0.45023936,-0.44868022,-0.44247472,-0.4346789,-0.42457557,-0.4222368,-0.4261347,-0.42925304,-0.4261347,-0.4175905,-0.40592796,-0.3989117,-0.3942654,-0.38569003,-0.36626285,-0.34059906,-0.31727397,-0.29937482,-0.29005104,-0.29005104,-0.29937482,-0.31727397,-0.34059906,-0.367822,-0.3989117,-0.43003255,-0.45878357,-0.47824192,-0.48600656,-0.48288822,-0.47746235,-0.47356445,-0.47278482,-0.47512358,-0.47746235,-0.48210865,-0.4875657,-0.49068403,-0.49224323,-0.49380237,-0.49533033,-0.4961099,-0.49455076,-0.49533033,-0.50777245,-0.5381137,-0.5622184,-0.5256716,-0.38026416,-0.11508185,0.235605,0.5832046,0.82814896,0.9066998,0.77061594,0.4191184,-0.08009422,-0.56065917,-0.8724917,-0.93704104,-0.7892948,-0.57310134,-0.41992927,-0.37480712,-0.40436882,-0.45101893,-0.47980106,-0.48600656,-0.47746235,-0.46424067,-0.45491683,-0.4517985,-0.4479006,-0.44247472,-0.43545854,-0.42691427,-0.42301637,-0.41681087,-0.40979463,-0.40358925,-0.39969134,-0.39735258,-0.39270627,-0.3818233,-0.36704248,-0.35537994,-0.35070246,-0.34680456,-0.34059906,-0.33049572,-0.3180536,-0.30483192,-0.29005104,-0.27527016,-0.25896132,-0.24262124,-0.22550172,-0.2045154,-0.17885154,-0.15084898,-0.12287766,-0.097213805,-0.07155001,-0.046665788,-0.022561193,-0.0015748143,0.013206005,0.024088979,0.03188479,0.03188479,0.024088979,0.0023231506,-0.03188491,-0.07466835,-0.12209803,-0.17342567,-0.22784042,-0.2807272,-0.3250386,-0.36158538,-0.39270627,-0.42067766,-0.4455619,-0.4657998,-0.47980106,-0.48990446,-0.49922824,-0.5069929,-0.5093316,-0.5069929,-0.5039058,-0.5039058,-0.5062444,-0.50777245,-0.5069929,-0.5069929,-0.5093316,-0.51167035,-0.51400906,-0.5108908,-0.5069929,-0.5039058,-0.5039058,-0.50312614,-0.5000078,-0.49766904,-0.49455076,-0.49380237,-0.49302274,-0.4914636,-0.4914636,-0.49380237,-0.49455076,-0.49455076,-0.49068403,-0.48834527,-0.48912483,-0.4875657,-0.4836678,-0.47668272,-0.46966654,-0.46891814,-0.47122568,-0.47278482,-0.47122568,-0.46657938,-0.46346104,-0.46346104,-0.46502024,-0.46813852,-0.46966654,-0.47122568,-0.4704461,-0.46813852,-0.46657938,-0.46424067,-0.46346104,-0.4619019,-0.45878357,-0.4556964,-0.45491683,-0.46034276,-0.46657938,-0.46735895,-0.46346104,-0.458004,-0.4556964,-0.45878357,-0.46346104,-0.46502024,-0.46268147,-0.46034276,-0.458004,-0.45491683,-0.45257813,-0.4517985,-0.45413727,-0.4556964,-0.45491683,-0.45257813,-0.4517985,-0.45413727,-0.45647597,-0.4556964,-0.4494598,-0.44325435,-0.44091558,-0.44403392,-0.44868022,-0.44634145,-0.44013596,-0.43237138,-0.42301637,-0.41681087,-0.41525173,-0.42067766,-0.4284734,-0.4346789,-0.43081218,-0.41992927,-0.4051484,-0.3942654,-0.38724917,-0.37870502,-0.36704248,-0.3522616,-0.33592153,-0.31727397,-0.29859525,-0.28771228,-0.29161018,-0.30947816,-0.33670115,-0.36938125,-0.40358925,-0.43237138,-0.45101893,-0.45878357,-0.45722437,-0.45257813,-0.4533577,-0.458004,-0.4619019,-0.46268147,-0.46268147,-0.46502024,-0.46966654,-0.47356445,-0.47356445,-0.4704461,-0.46813852,-0.46735895,-0.47122568,-0.48210865,-0.5062444,-0.5318771,-0.51556826,-0.4074871,-0.18119031,0.14074552,0.4906839,0.76671803,0.8989036,0.8336061,0.55286324,0.09097707,-0.41681087,-0.8024853,-0.95257026,-0.86160874,-0.6415486,-0.4455619,-0.35615945,-0.36158538,-0.4074871,-0.4494598,-0.46657938,-0.46268147,-0.4455619,-0.42457557,-0.40901512,-0.40125048,-0.39969134,-0.4004709,-0.39735258,-0.39348584,-0.39036757,-0.38646966,-0.38104373,-0.37636626,-0.3709404,-0.36704248,-0.36314458,-0.3546003,-0.34527653,-0.333614,-0.32425898,-0.31649446,-0.30717063,-0.29859525,-0.2908306,-0.2838456,-0.27293146,-0.2550634,-0.23017919,-0.20763367,-0.18973458,-0.16874814,-0.14464355,-0.11508185,-0.08477175,-0.061446667,-0.041988254,-0.021781564,-0.0023232698,0.015544772,0.024868608,0.024088979,0.021001816,0.012426376,-0.0046619177,-0.032664478,-0.069211304,-0.11430222,-0.16251153,-0.21228004,-0.26204842,-0.30872977,-0.34527653,-0.3771459,-0.40592796,-0.43389934,-0.45878357,-0.47434402,-0.4836678,-0.48912483,-0.4961099,-0.5023466,-0.5062444,-0.50777245,-0.5093316,-0.5132295,-0.5163478,-0.51556826,-0.5085521,-0.50312614,-0.5023466,-0.5039058,-0.5062444,-0.5054649,-0.5007874,-0.49844867,-0.49455076,-0.4914636,-0.48990446,-0.48990446,-0.49302274,-0.49533033,-0.49224323,-0.48834527,-0.48678613,-0.48600656,-0.48444736,-0.48288822,-0.47512358,-0.4704461,-0.46966654,-0.46735895,-0.46346104,-0.46112227,-0.46034276,-0.46346104,-0.46735895,-0.46735895,-0.46424067,-0.46268147,-0.46112227,-0.45956314,-0.45722437,-0.45413727,-0.45491683,-0.46034276,-0.46268147,-0.46112227,-0.45722437,-0.4533577,-0.4556964,-0.45956314,-0.46034276,-0.458004,-0.4556964,-0.45722437,-0.46112227,-0.4657998,-0.46657938,-0.46424067,-0.4619019,-0.458004,-0.45413727,-0.45023936,-0.4479006,-0.4494598,-0.45257813,-0.4533577,-0.45101893,-0.45101893,-0.4517985,-0.45491683,-0.45722437,-0.45722437,-0.4556964,-0.45413727,-0.45101893,-0.4455619,-0.44325435,-0.4448135,-0.4517985,-0.45722437,-0.45647597,-0.45101893,-0.4448135,-0.44013596,-0.43701768,-0.43545854,-0.43779725,-0.44091558,-0.4479006,-0.44868022,-0.4393564,-0.42145717,-0.4004709,-0.38646966,-0.37558663,-0.36704248,-0.35537994,-0.34059906,-0.32737738,-0.3149352,-0.3102578,-0.3141557,-0.32737738,-0.35070246,-0.38104373,-0.40979463,-0.43389934,-0.45257813,-0.4657998,-0.4704461,-0.46891814,-0.4619019,-0.4556964,-0.45647597,-0.4619019,-0.46657938,-0.46891814,-0.46891814,-0.46891814,-0.46891814,-0.47122568,-0.47122568,-0.47122568,-0.47434402,-0.48600656,-0.5085521,-0.517907,-0.47356445,-0.33670115,-0.09955257,0.20061731,0.48444724,0.66796064,0.70450747,0.5622182,0.24418032,-0.19207323,-0.6096481,-0.8779176,-0.92459893,-0.78149897,-0.5738809,-0.42301637,-0.37480712,-0.39579344,-0.43701768,-0.46424067,-0.4720053,-0.46891814,-0.45647597,-0.4455619,-0.43701768,-0.43237138,-0.42925304,-0.42535514,-0.4175905,-0.40670753,-0.39969134,-0.39969134,-0.40125048,-0.3989117,-0.39270627,-0.38335127,-0.37558663,-0.36860162,-0.36236495,-0.3546003,-0.34527653,-0.33670115,-0.32815695,-0.3180536,-0.30639106,-0.2939489,-0.28306597,-0.26906466,-0.25194514,-0.22862005,-0.20373577,-0.18041068,-0.15786523,-0.13454014,-0.110435486,-0.087858856,-0.06999087,-0.053650796,-0.037342012,-0.021781564,-0.01089865,-0.01089865,-0.018663287,-0.029546201,-0.047445357,-0.07310921,-0.110435486,-0.15708566,-0.20763367,-0.2550634,-0.29781568,-0.3398195,-0.3771459,-0.4082355,-0.4331197,-0.4517985,-0.46657938,-0.4790215,-0.4875657,-0.49455076,-0.5007874,-0.5062444,-0.5093316,-0.5093316,-0.50777245,-0.5069929,-0.5108908,-0.5132295,-0.5108908,-0.5046853,-0.5007874,-0.501567,-0.5054649,-0.5062444,-0.50312614,-0.49688947,-0.4961099,-0.49844867,-0.50312614,-0.5039058,-0.50312614,-0.5000078,-0.4961099,-0.49224323,-0.48912483,-0.4875657,-0.48912483,-0.48912483,-0.4875657,-0.48600656,-0.48444736,-0.48210865,-0.47980106,-0.47278482,-0.46346104,-0.45956314,-0.4619019,-0.46657938,-0.46813852,-0.46657938,-0.46424067,-0.46346104,-0.46346104,-0.46346104,-0.46112227,-0.45878357,-0.46112227,-0.4619019,-0.46034276,-0.45722437,-0.45491683,-0.4556964,-0.4556964,-0.45491683,-0.45257813,-0.45101893,-0.45257813,-0.45413727,-0.45491683,-0.45413727,-0.45491683,-0.45878357,-0.46034276,-0.46112227,-0.45956314,-0.458004,-0.45878357,-0.45956314,-0.4619019,-0.46268147,-0.46268147,-0.46346104,-0.4619019,-0.458004,-0.4517985,-0.45023936,-0.4517985,-0.45257813,-0.44868022,-0.43857682,-0.4276939,-0.41992927,-0.41603136,-0.41603136,-0.41291302,-0.41057426,-0.41213346,-0.41213346,-0.40670753,-0.39579344,-0.37558663,-0.3522616,-0.32971615,-0.30947816,-0.29472852,-0.29005104,-0.29706728,-0.3102578,-0.32893652,-0.3483637,-0.3709404,-0.39969134,-0.43003255,-0.4556964,-0.4720053,-0.4813602,-0.48600656,-0.48678613,-0.4875657,-0.4875657,-0.48678613,-0.48834527,-0.4914636,-0.49302274,-0.49455076,-0.49766904,-0.501567,-0.50312614,-0.501567,-0.49922824,-0.5023466,-0.52021456,-0.5528946,-0.5715422,-0.52801037,-0.38104373,-0.12287766,0.21539819,0.555202,0.7923819,0.8654753,0.72783256,0.3833512,-0.09955257,-0.56065917,-0.8600496,-0.92459893,-0.78383774,-0.57310134,-0.4222368,-0.37948453,-0.4113539,-0.458004,-0.48444736,-0.48444736,-0.47434402,-0.46657938,-0.4619019,-0.4556964,-0.4479006,-0.4393564,-0.43389934,-0.4315918,-0.4276939,-0.42145717,-0.41291302,-0.40592796,-0.3989117,-0.39504504,-0.38880837,-0.3818233,-0.3779254,-0.37246835,-0.3647037,-0.3522616,-0.33748078,-0.3250386,-0.3149352,-0.30561143,-0.29316938,-0.27916807,-0.2643872,-0.24729878,-0.22628129,-0.20373577,-0.18119031,-0.1609835,-0.13996607,-0.11430222,-0.08633089,-0.0591079,-0.036562383,-0.017883658,0.0007638931,0.018663168,0.03110516,0.03266442,0.021781445,-1.5616417e-05,-0.033444107,-0.07775551,-0.12986267,-0.18430865,-0.23716426,-0.2846251,-0.32425898,-0.36236495,-0.39504504,-0.42145717,-0.44325435,-0.46034276,-0.47590315,-0.48990446,-0.5007874,-0.50777245,-0.5108908,-0.5147887,-0.51556826,-0.5171274,-0.5163478,-0.5132295,-0.51400906,-0.5147887,-0.51400906,-0.5132295,-0.5124499,-0.51167035,-0.5093316,-0.5054649,-0.5007874,-0.49844867,-0.49922824,-0.49922824,-0.49688947,-0.4914636,-0.48678613,-0.48678613,-0.48834527,-0.49068403,-0.48990446,-0.48834527,-0.48834527,-0.4875657,-0.48834527,-0.48600656,-0.48288822,-0.4813602,-0.47980106,-0.47668272,-0.47278482,-0.46966654,-0.46891814,-0.46813852,-0.46813852,-0.46657938,-0.4657998,-0.46735895,-0.46891814,-0.46735895,-0.46346104,-0.4619019,-0.46424067,-0.4657998,-0.4657998,-0.45956314,-0.45413727,-0.45413727,-0.458004,-0.46346104,-0.46657938,-0.46502024,-0.46424067,-0.4619019,-0.46112227,-0.46346104,-0.4657998,-0.46735895,-0.46735895,-0.4657998,-0.46424067,-0.46346104,-0.4657998,-0.46657938,-0.46268147,-0.45491683,-0.44868022,-0.44712102,-0.45023936,-0.4556964,-0.458004,-0.46034276,-0.46034276,-0.46034276,-0.45956314,-0.4556964,-0.4494598,-0.44634145,-0.44169515,-0.43623805,-0.43003255,-0.4284734,-0.4284734,-0.43237138,-0.43623805,-0.43701768,-0.4315918,-0.42301637,-0.4113539,-0.3989117,-0.3880288,-0.38026416,-0.37016076,-0.3538208,-0.33205485,-0.30947816,-0.29161018,-0.2846251,-0.2892714,-0.30327266,-0.32347947,-0.34992284,-0.3818233,-0.41291302,-0.43857682,-0.4556964,-0.4619019,-0.46424067,-0.46424067,-0.46502024,-0.46891814,-0.4720053,-0.47356445,-0.47356445,-0.4720053,-0.4704461,-0.46966654,-0.47278482,-0.47434402,-0.47356445,-0.47356445,-0.4790215,-0.49766904,-0.53265667,-0.55367416,-0.51400906,-0.36860162,-0.10887635,0.23638451,0.586323,0.8382523,0.92378795,0.79082274,0.43935633,-0.060667038,-0.54743755,-0.8670346,-0.9409077,-0.7993982,-0.57699925,-0.41447216,-0.36236495,-0.39036757,-0.43779725,-0.46346104,-0.46112227,-0.4479006,-0.4393564,-0.43779725,-0.43701768,-0.4331197,-0.42535514,-0.41914964,-0.4136926,-0.41057426,-0.40592796,-0.40203005,-0.3989117,-0.39657295,-0.39114708,-0.38335127,-0.37558663,-0.367822,-0.36002624,-0.35148203,-0.3398195,-0.32893652,-0.31961274,-0.3102578,-0.29859525,-0.2846251,-0.2682851,-0.25194514,-0.23329753,-0.2130596,-0.18973458,-0.16796863,-0.14854145,-0.12986267,-0.10731721,-0.07931465,-0.049784124,-0.024120271,-0.0046619177,0.009339333,0.020222306,0.024868608,0.021781445,0.010118842,-0.01089865,-0.040429115,-0.07931465,-0.1306423,-0.18739581,-0.2410621,-0.28849185,-0.32581824,-0.36158538,-0.3942654,-0.4222368,-0.4448135,-0.46034276,-0.47278482,-0.48210865,-0.48912483,-0.49533033,-0.5039058,-0.5132295,-0.5225533,-0.52723086,-0.5233329,-0.5163478,-0.5108908,-0.5062444,-0.50312614,-0.5054649,-0.50777245,-0.5108908,-0.5124499,-0.5093316,-0.50312614,-0.5007874,-0.501567,-0.5046853,-0.5039058,-0.49922824,-0.49533033,-0.4961099,-0.49922824,-0.5000078,-0.49922824,-0.49455076,-0.49224323,-0.4914636,-0.48834527,-0.4836678,-0.4805807,-0.4790215,-0.47746235,-0.47434402,-0.47122568,-0.4704461,-0.47590315,-0.47746235,-0.47512358,-0.46657938,-0.45878357,-0.45647597,-0.45647597,-0.45647597,-0.4533577,-0.45101893,-0.45257813,-0.45491683,-0.45413727,-0.45023936,-0.44634145,-0.4455619,-0.44868022,-0.4517985,-0.45257813,-0.4517985,-0.45101893,-0.4494598,-0.44868022,-0.44868022,-0.45257813,-0.45878357,-0.46268147,-0.46268147,-0.45722437,-0.45101893,-0.45023936,-0.45257813,-0.45257813,-0.45023936,-0.4479006,-0.44868022,-0.45023936,-0.45257813,-0.44868022,-0.44169515,-0.43701768,-0.4331197,-0.4284734,-0.4222368,-0.41603136,-0.4136926,-0.4113539,-0.40979463,-0.4082355,-0.4074871,-0.4074871,-0.40203005,-0.38335127,-0.35537994,-0.3250386,-0.30327266,-0.29316938,-0.2939489,-0.30171353,-0.3149352,-0.33283442,-0.35304117,-0.37480712,-0.4004709,-0.4261347,-0.45257813,-0.47122568,-0.47824192,-0.47122568,-0.46268147,-0.458004,-0.45878357,-0.46424067,-0.46891814,-0.4720053,-0.47746235,-0.48210865,-0.48288822,-0.47980106,-0.47512358,-0.47278482,-0.47356445,-0.4805807,-0.49922824,-0.5217737,-0.5132295,-0.4284734,-0.23950297,0.03809035,0.3429376,0.580866,0.6975224,0.65240026,0.42769372,0.042767763,-0.4051484,-0.76671815,-0.9308044,-0.8717121,-0.67809534,-0.485227,-0.38104373,-0.36548334,-0.39348584,-0.42691427,-0.44712102,-0.45023936,-0.44169515,-0.4284734,-0.41914964,-0.41525173,-0.41447216,-0.41447216,-0.40979463,-0.40358925,-0.3989117,-0.39348584,-0.3880288,-0.38104373,-0.37480712,-0.37016076,-0.36626285,-0.36158538,-0.3538208,-0.34527653,-0.33748078,-0.33049572,-0.32269984,-0.31337607,-0.3040523,-0.2939489,-0.27994764,-0.26204842,-0.24184173,-0.22241455,-0.20529497,-0.18739581,-0.16640949,-0.14152521,-0.11508185,-0.0933159,-0.07077044,-0.046665788,-0.024120271,-0.0054415464,0.003882289,0.005441427,0.0023231506,-0.0046619177,-0.021001935,-0.048224926,-0.08633089,-0.132981,-0.18196994,-0.23017919,-0.27682936,-0.31727397,-0.35148203,-0.38104373,-0.40670753,-0.4331197,-0.4533577,-0.46735895,-0.47356445,-0.47746235,-0.48210865,-0.4875657,-0.49533033,-0.49766904,-0.49844867,-0.5000078,-0.5007874,-0.5000078,-0.49766904,-0.49455076,-0.49455076,-0.49766904,-0.5007874,-0.5023466,-0.5000078,-0.5007874,-0.49922824,-0.49844867,-0.4961099,-0.49224323,-0.48912483,-0.485227,-0.4805807,-0.47668272,-0.47824192,-0.4805807,-0.4805807,-0.47746235,-0.4704461,-0.46657938,-0.46657938,-0.4657998,-0.46268147,-0.458004,-0.45647597,-0.45878357,-0.4619019,-0.46112227,-0.45647597,-0.45257813,-0.45257813,-0.4533577,-0.45413727,-0.4533577,-0.45101893,-0.45257813,-0.45257813,-0.44868022,-0.44247472,-0.43779725,-0.43779725,-0.4393564,-0.4393564,-0.43623805,-0.4346789,-0.43701768,-0.44247472,-0.4455619,-0.4455619,-0.44169515,-0.4393564,-0.43779725,-0.43701768,-0.43623805,-0.43701768,-0.44013596,-0.4455619,-0.4479006,-0.44712102,-0.44247472,-0.4393564,-0.43701768,-0.43701768,-0.43545854,-0.43237138,-0.42925304,-0.42301637,-0.4136926,-0.40125048,-0.38958794,-0.3841309,-0.38569003,-0.38958794,-0.39270627,-0.39579344,-0.39504504,-0.3880288,-0.37324792,-0.34992284,-0.32347947,-0.30093396,-0.28771228,-0.28228635,-0.2846251,-0.29472852,-0.31103736,-0.32815695,-0.34527653,-0.36626285,-0.39504504,-0.42691427,-0.45257813,-0.46735895,-0.46657938,-0.45956314,-0.45956314,-0.46502024,-0.4720053,-0.47434402,-0.47434402,-0.47512358,-0.47824192,-0.47980106,-0.47824192,-0.47590315,-0.47434402,-0.47434402,-0.47824192,-0.4914636,-0.51868653,-0.5466579,-0.53034914,-0.42145717,-0.19753033,0.11352253,0.44634128,0.7029482,0.8219435,0.7581738,0.49688935,0.06609285,-0.40436882,-0.75895345,-0.8989351,-0.8149274,-0.6158848,-0.4448135,-0.37168878,-0.3818233,-0.423796,-0.45647597,-0.46657938,-0.4619019,-0.45101893,-0.44247472,-0.43857682,-0.43779725,-0.43623805,-0.43237138,-0.42691427,-0.41914964,-0.4113539,-0.40203005,-0.3942654,-0.38880837,-0.38646966,-0.3841309,-0.3779254,-0.36860162,-0.3608058,-0.35693908,-0.3522616,-0.3437174,-0.32971615,-0.3149352,-0.30171353,-0.2908306,-0.27994764,-0.26516682,-0.24651921,-0.22862005,-0.20919287,-0.18817532,-0.16407067,-0.13918644,-0.115861356,-0.09019756,-0.06687248,-0.04510665,-0.02489984,-0.009339452,0.0031026602,0.014765263,0.019442677,0.013985634,-0.0054415464,-0.037342012,-0.07544792,-0.11897975,-0.16796863,-0.22085541,-0.27140343,-0.3149352,-0.34914327,-0.37870502,-0.4051484,-0.42925304,-0.4494598,-0.46657938,-0.47824192,-0.49068403,-0.49844867,-0.5000078,-0.49688947,-0.49533033,-0.49688947,-0.501567,-0.501567,-0.5000078,-0.49766904,-0.4961099,-0.49533033,-0.49533033,-0.49380237,-0.49533033,-0.49922824,-0.5023466,-0.5023466,-0.49844867,-0.49533033,-0.49380237,-0.49455076,-0.49302274,-0.48912483,-0.48444736,-0.48288822,-0.48288822,-0.4836678,-0.48444736,-0.485227,-0.4875657,-0.48990446,-0.4875657,-0.4805807,-0.47590315,-0.47668272,-0.47746235,-0.47746235,-0.47512358,-0.47122568,-0.4704461,-0.4720053,-0.47122568,-0.46813852,-0.46424067,-0.46268147,-0.46268147,-0.45956314,-0.45413727,-0.45023936,-0.4494598,-0.4494598,-0.45023936,-0.44868022,-0.4479006,-0.45023936,-0.45413727,-0.4556964,-0.45257813,-0.44868022,-0.4494598,-0.4533577,-0.45413727,-0.4517985,-0.44712102,-0.4455619,-0.45023936,-0.45413727,-0.45491683,-0.4517985,-0.45101893,-0.4517985,-0.45257813,-0.45023936,-0.4479006,-0.44712102,-0.4494598,-0.45101893,-0.45023936,-0.44868022,-0.44712102,-0.4448135,-0.44403392,-0.44403392,-0.44325435,-0.44712102,-0.4494598,-0.45023936,-0.44712102,-0.44247472,-0.43701768,-0.43081218,-0.42535514,-0.42145717,-0.42457557,-0.43081218,-0.43545854,-0.4315918,-0.4222368,-0.4082355,-0.39579344,-0.3841309,-0.37246835,-0.3577187,-0.3398195,-0.3203923,-0.30093396,-0.2846251,-0.2783885,-0.2853735,-0.3079502,-0.33903992,-0.37636626,-0.4136926,-0.4448135,-0.46735895,-0.47590315,-0.47278482,-0.46502024,-0.46034276,-0.46502024,-0.4704461,-0.47356445,-0.4720053,-0.46891814,-0.4704461,-0.47512358,-0.4790215,-0.47824192,-0.47434402,-0.47278482,-0.47668272,-0.49380237,-0.5248921,-0.54743755,-0.5147887,-0.38026416,-0.1275239,0.21617782,0.5731013,0.8374728,0.9401281,0.8289285,0.49533033,-0.0023232698,-0.5046853,-0.8437095,-0.9323635,-0.7947207,-0.57076263,-0.4074871,-0.36002624,-0.38880837,-0.43237138,-0.45491683,-0.45878357,-0.45257813,-0.4455619,-0.44091558,-0.43779725,-0.43701768,-0.43623805,-0.43081218,-0.41992927,-0.40901512,-0.40203005,-0.3989117,-0.3981322,-0.39504504,-0.39114708,-0.38569003,-0.37948453,-0.37168878,-0.36392415,-0.35615945,-0.3483637,-0.34059906,-0.32737738,-0.31181693,-0.29706728,-0.28615314,-0.27604973,-0.26360768,-0.24804717,-0.22862005,-0.2099725,-0.18817532,-0.16329116,-0.13454014,-0.10653758,-0.08165336,-0.05832833,-0.034223735,-0.009339452,0.010118842,0.021001816,0.024088979,0.022561073,0.01788354,0.0023231506,-0.027207375,-0.07232958,-0.12674439,-0.18274945,-0.23485667,-0.28306597,-0.32425898,-0.36002624,-0.39114708,-0.41992927,-0.4479006,-0.47356445,-0.49455076,-0.5062444,-0.51167035,-0.5132295,-0.5101112,-0.5085521,-0.5093316,-0.51167035,-0.51556826,-0.517907,-0.517907,-0.51400906,-0.51167035,-0.51167035,-0.5108908,-0.5093316,-0.50777245,-0.5069929,-0.5093316,-0.50777245,-0.5039058,-0.49922824,-0.49766904,-0.49922824,-0.5007874,-0.5000078,-0.49766904,-0.49533033,-0.49688947,-0.49688947,-0.49302274,-0.48600656,-0.4805807,-0.47824192,-0.47824192,-0.47746235,-0.47512358,-0.47512358,-0.47824192,-0.4805807,-0.4813602,-0.47668272,-0.47122568,-0.4704461,-0.4704461,-0.46891814,-0.46502024,-0.46112227,-0.4619019,-0.46502024,-0.46813852,-0.46891814,-0.46813852,-0.46813852,-0.46657938,-0.46424067,-0.45956314,-0.45647597,-0.458004,-0.46112227,-0.46424067,-0.4657998,-0.46424067,-0.46813852,-0.4720053,-0.47356445,-0.47122568,-0.46891814,-0.46735895,-0.46813852,-0.46813852,-0.46502024,-0.4619019,-0.46268147,-0.46346104,-0.46502024,-0.46424067,-0.4619019,-0.46346104,-0.46424067,-0.4657998,-0.46502024,-0.46424067,-0.46502024,-0.46424067,-0.45878357,-0.4517985,-0.44013596,-0.4331197,-0.42925304,-0.43081218,-0.4346789,-0.44013596,-0.44403392,-0.44169515,-0.43081218,-0.41525173,-0.3989117,-0.38569003,-0.3740275,-0.3592466,-0.34215826,-0.32737738,-0.3203923,-0.32347947,-0.33283442,-0.34527653,-0.36548334,-0.3942654,-0.4284734,-0.45722437,-0.47434402,-0.47746235,-0.47278482,-0.46813852,-0.46657938,-0.46813852,-0.47278482,-0.47824192,-0.48210865,-0.485227,-0.48912483,-0.4914636,-0.49302274,-0.49302274,-0.48912483,-0.4836678,-0.4875657,-0.5062444,-0.53265667,-0.5256716,-0.44013596,-0.24882674,0.029546022,0.34137857,0.593308,0.7247143,0.6905061,0.46966636,0.07853496,-0.38104373,-0.7597331,-0.94402605,-0.90202224,-0.7115238,-0.5132295,-0.39969134,-0.38260287,-0.41681087,-0.4556964,-0.4720053,-0.46502024,-0.4494598,-0.44247472,-0.4393564,-0.4393564,-0.43545854,-0.42691427,-0.41992927,-0.41525173,-0.4113539,-0.40592796,-0.3989117,-0.39579344,-0.39114708,-0.38646966,-0.38026416,-0.3740275,-0.36938125,-0.36314458,-0.3538208,-0.34059906,-0.32815695,-0.3180536,-0.30947816,-0.3001544,-0.2869327,-0.27293146,-0.25896132,-0.24340087,-0.22241455,-0.19753033,-0.1710869,-0.14542311,-0.12287766,-0.101860106,-0.08087385,-0.060667038,-0.041988254,-0.024120271,-0.0062211156,0.0070005655,0.010118842,-0.00079518557,-0.022561193,-0.052091658,-0.08555126,-0.124436796,-0.1710869,-0.22007579,-0.2682851,-0.3125965,-0.35148203,-0.38880837,-0.42067766,-0.4455619,-0.4619019,-0.47512358,-0.48834527,-0.5007874,-0.5069929,-0.5062444,-0.50312614,-0.50312614,-0.5046853,-0.5093316,-0.51167035,-0.51167035,-0.5147887,-0.5171274,-0.5171274,-0.5147887,-0.5108908,-0.5085521,-0.5093316,-0.5085521,-0.5054649,-0.50312614,-0.50312614,-0.5046853,-0.5046853,-0.5023466,-0.49922824,-0.49922824,-0.5007874,-0.5000078,-0.4961099,-0.48990446,-0.48678613,-0.48600656,-0.485227,-0.4836678,-0.4813602,-0.4813602,-0.4805807,-0.47824192,-0.47278482,-0.46891814,-0.46813852,-0.46966654,-0.46891814,-0.46502024,-0.46112227,-0.46112227,-0.46424067,-0.46657938,-0.46502024,-0.46346104,-0.46502024,-0.46657938,-0.46735895,-0.46268147,-0.45878357,-0.45878357,-0.46112227,-0.46502024,-0.46891814,-0.46813852,-0.4704461,-0.46891814,-0.4657998,-0.46112227,-0.458004,-0.45878357,-0.46034276,-0.46034276,-0.45878357,-0.458004,-0.46034276,-0.4619019,-0.46346104,-0.46268147,-0.46034276,-0.46112227,-0.46112227,-0.4556964,-0.44634145,-0.43545854,-0.42535514,-0.41837007,-0.41525173,-0.41525173,-0.4175905,-0.423796,-0.4276939,-0.42691427,-0.42067766,-0.40670753,-0.38260287,-0.35148203,-0.31883317,-0.29628766,-0.29005104,-0.29937482,-0.3149352,-0.32971615,-0.34293777,-0.35849822,-0.38104373,-0.41057426,-0.43857682,-0.46112227,-0.47590315,-0.4836678,-0.4836678,-0.4790215,-0.47434402,-0.47590315,-0.48288822,-0.49302274,-0.49844867,-0.49922824,-0.49922824,-0.5007874,-0.5039058,-0.5046853,-0.5023466,-0.50312614,-0.5171274,-0.54279125,-0.56377757,-0.5365546,-0.42067766,-0.19983786,0.10497844,0.43156052,0.68741906,0.8040445,0.73173046,0.4595629,0.021781445,-0.44868022,-0.8009573,-0.9362614,-0.8476075,-0.642297,-0.46268147,-0.38491046,-0.39735258,-0.44247472,-0.47434402,-0.47980106,-0.46966654,-0.45956314,-0.4533577,-0.4494598,-0.4448135,-0.4393564,-0.4346789,-0.43003255,-0.4276939,-0.42457557,-0.42145717,-0.42067766,-0.4175905,-0.4113539,-0.40125048,-0.39114708,-0.3841309,-0.3779254,-0.37246835,-0.3647037,-0.35615945,-0.34758407,-0.33670115,-0.32347947,-0.30872977,-0.2939489,-0.2807272,-0.26672596,-0.2511655,-0.23017919,-0.20763367,-0.18508822,-0.15942436,-0.1306423,-0.09877294,-0.07155001,-0.052871287,-0.039649546,-0.02489984,-0.010119021,0.0007638931,0.0031026602,-0.007780254,-0.029546201,-0.05754876,-0.09253639,-0.13531977,-0.18196994,-0.23251796,-0.28306597,-0.33049572,-0.37324792,-0.4082355,-0.4331197,-0.45101893,-0.46813852,-0.48600656,-0.5007874,-0.51167035,-0.5163478,-0.51868653,-0.5209941,-0.5248921,-0.52879,-0.5295695,-0.53034914,-0.53109753,-0.5295695,-0.5256716,-0.52021456,-0.5163478,-0.51556826,-0.5163478,-0.5163478,-0.5147887,-0.5132295,-0.51400906,-0.51556826,-0.51400906,-0.5085521,-0.5062444,-0.5062444,-0.5085521,-0.5108908,-0.50777245,-0.5023466,-0.5000078,-0.49844867,-0.49766904,-0.49455076,-0.4914636,-0.49068403,-0.49068403,-0.49068403,-0.48834527,-0.48600656,-0.4875657,-0.48912483,-0.48990446,-0.485227,-0.47824192,-0.47434402,-0.47278482,-0.47356445,-0.47278482,-0.47278482,-0.47434402,-0.47668272,-0.47746235,-0.47590315,-0.47356445,-0.47356445,-0.47356445,-0.47356445,-0.4720053,-0.4704461,-0.47122568,-0.4720053,-0.47512358,-0.47590315,-0.47512358,-0.47356445,-0.46735895,-0.46034276,-0.45413727,-0.4533577,-0.458004,-0.46268147,-0.46502024,-0.46424067,-0.4619019,-0.46268147,-0.46268147,-0.46268147,-0.45956314,-0.45647597,-0.45722437,-0.45878357,-0.458004,-0.45491683,-0.4494598,-0.4455619,-0.44091558,-0.43857682,-0.43779725,-0.44013596,-0.44403392,-0.44169515,-0.4346789,-0.42145717,-0.40280962,-0.3919267,-0.38260287,-0.37246835,-0.35537994,-0.33205485,-0.3102578,-0.29316938,-0.28849185,-0.29706728,-0.31571484,-0.34449697,-0.37948453,-0.4136926,-0.44013596,-0.458004,-0.46735895,-0.46966654,-0.47122568,-0.4704461,-0.4704461,-0.47356445,-0.47668272,-0.4836678,-0.48912483,-0.48990446,-0.49068403,-0.48600656,-0.4813602,-0.47824192,-0.47824192,-0.48288822,-0.49844867,-0.52801037,-0.5489967,-0.5209941,-0.39579344,-0.15474695,0.17807186,0.5310974,0.79936683,0.9097867,0.8125886,0.49766898,0.016324282,-0.48210865,-0.8367245,-0.9510111,-0.83438575,-0.6096481,-0.43081218,-0.3647037,-0.38646966,-0.43857682,-0.4790215,-0.50777245,-0.5544538,-0.5948673,-0.5801176,-0.5163478,-0.42301637,-0.34215826,-0.31961274,-0.34449697,-0.37168878,-0.38335127,-0.3841309,-0.38335127,-0.38260287,-0.38026416,-0.37558663,-0.37168878,-0.36860162,-0.3647037,-0.35693908,-0.34758407,-0.3382603,-0.32737738,-0.31649446,-0.30483192,-0.29238975,-0.2807272,-0.26750553,-0.25194514,-0.22939956,-0.2045154,-0.17963117,-0.15474695,-0.13142186,-0.10887635,-0.08633089,-0.06453383,-0.041988254,-0.018663287,0.003882289,0.021781445,0.028766513,0.027986884,0.018663168,0.0015435219,-0.027987003,-0.06999087,-0.12209803,-0.17807204,-0.23095876,-0.27682936,-0.31883317,-0.35615945,-0.38880837,-0.41603136,-0.44013596,-0.46502024,-0.48444736,-0.49688947,-0.501567,-0.50312614,-0.5062444,-0.5093316,-0.5124499,-0.5124499,-0.51167035,-0.5124499,-0.51167035,-0.5085521,-0.50312614,-0.5000078,-0.49922824,-0.501567,-0.5046853,-0.5046853,-0.50312614,-0.50312614,-0.501567,-0.49844867,-0.49533033,-0.49302274,-0.49302274,-0.48990446,-0.4875657,-0.4836678,-0.48210865,-0.485227,-0.48600656,-0.48288822,-0.47434402,-0.46657938,-0.46424067,-0.46657938,-0.46966654,-0.46813852,-0.46424067,-0.4619019,-0.46112227,-0.45956314,-0.46112227,-0.46346104,-0.46735895,-0.46966654,-0.46966654,-0.46346104,-0.45722437,-0.45722437,-0.458004,-0.458004,-0.45413727,-0.45101893,-0.4517985,-0.45491683,-0.45722437,-0.4556964,-0.4533577,-0.45257813,-0.45413727,-0.4556964,-0.45491683,-0.45413727,-0.4556964,-0.458004,-0.46034276,-0.458004,-0.45491683,-0.45413727,-0.45413727,-0.45101893,-0.44712102,-0.44325435,-0.44325435,-0.4448135,-0.4455619,-0.44169515,-0.43389934,-0.42535514,-0.41681087,-0.41057426,-0.4051484,-0.40670753,-0.4113539,-0.41447216,-0.41525173,-0.40979463,-0.40125048,-0.39348584,-0.38026416,-0.3592466,-0.33205485,-0.3079502,-0.29316938,-0.29238975,-0.30171353,-0.3125965,-0.32425898,-0.34293777,-0.367822,-0.3989117,-0.42925304,-0.45257813,-0.46502024,-0.46813852,-0.46657938,-0.46268147,-0.46112227,-0.46502024,-0.46891814,-0.4720053,-0.47356445,-0.47434402,-0.47746235,-0.4813602,-0.48444736,-0.4836678,-0.48210865,-0.48288822,-0.48444736,-0.49688947,-0.51868653,-0.52801037,-0.48288822,-0.33748078,-0.08633089,0.2324866,0.5310974,0.72318614,0.75895333,0.6057501,0.26828504,-0.19129372,-0.6329732,-0.9105976,-0.9502315,-0.7900432,-0.5692035,-0.4175905,-0.3740275,-0.40280962,-0.4455619,-0.46891814,-0.47122568,-0.4619019,-0.4517985,-0.44169515,-0.43623805,-0.4331197,-0.42925304,-0.423796,-0.41447216,-0.40358925,-0.39735258,-0.39504504,-0.39348584,-0.39114708,-0.3880288,-0.38335127,-0.38026416,-0.37636626,-0.36626285,-0.35304117,-0.3437174,-0.33514202,-0.32581824,-0.31337607,-0.3001544,-0.28615314,-0.27527016,-0.26204842,-0.24340087,-0.22241455,-0.20217663,-0.18274945,-0.16251153,-0.13996607,-0.115861356,-0.0933159,-0.07232958,-0.052091658,-0.03110534,-0.013237298,-0.0038823485,-0.00079518557,-0.0062211156,-0.018663287,-0.042767882,-0.07697588,-0.11820012,-0.16173196,-0.20607454,-0.2511655,-0.3001544,-0.34605616,-0.38491046,-0.4136926,-0.43623805,-0.45491683,-0.4704461,-0.48210865,-0.48912483,-0.49380237,-0.49922824,-0.5046853,-0.5093316,-0.51167035,-0.5147887,-0.5171274,-0.5163478,-0.51400906,-0.50777245,-0.5039058,-0.5046853,-0.5054649,-0.5062444,-0.5023466,-0.49922824,-0.5023466,-0.5062444,-0.50777245,-0.5046853,-0.49688947,-0.49380237,-0.49380237,-0.4961099,-0.49533033,-0.49302274,-0.49068403,-0.48912483,-0.48678613,-0.48210865,-0.47824192,-0.47746235,-0.47980106,-0.48210865,-0.47824192,-0.4720053,-0.4657998,-0.4619019,-0.46268147,-0.46424067,-0.46657938,-0.46813852,-0.46813852,-0.46502024,-0.45878357,-0.4533577,-0.4517985,-0.4533577,-0.45647597,-0.4556964,-0.4533577,-0.4533577,-0.458004,-0.46268147,-0.46424067,-0.46502024,-0.46346104,-0.46034276,-0.45647597,-0.4517985,-0.44868022,-0.45101893,-0.45722437,-0.45956314,-0.458004,-0.45023936,-0.44169515,-0.43237138,-0.423796,-0.41681087,-0.41525173,-0.4175905,-0.42067766,-0.423796,-0.4222368,-0.41914964,-0.41447216,-0.40125048,-0.3771459,-0.3437174,-0.31103736,-0.29005104,-0.28615314,-0.29706728,-0.31103736,-0.32659775,-0.34605616,-0.36860162,-0.39579344,-0.42457557,-0.45101893,-0.47278482,-0.4836678,-0.48678613,-0.4813602,-0.47512358,-0.47434402,-0.4790215,-0.48444736,-0.48912483,-0.49068403,-0.49302274,-0.49533033,-0.49533033,-0.4914636,-0.48678613,-0.485227,-0.4875657,-0.5007874,-0.52645123,-0.552115,-0.53733414,-0.43779725,-0.22706085,0.074637055,0.39969122,0.6461948,0.75271666,0.6772845,0.41291285,-0.0046619177,-0.46034276,-0.8017369,-0.9347023,-0.8452687,-0.6415486,-0.4619019,-0.3818233,-0.38880837,-0.4284734,-0.45956314,-0.4704461,-0.46502024,-0.45722437,-0.44634145,-0.43857682,-0.4331197,-0.4276939,-0.42301637,-0.41681087,-0.4113539,-0.4074871,-0.40436882,-0.39969134,-0.3919267,-0.38569003,-0.38104373,-0.37948453,-0.37480712,-0.36860162,-0.3608058,-0.3546003,-0.34914327,-0.3382603,-0.32269984,-0.30561143,-0.29316938,-0.2807272,-0.26750553,-0.24804717,-0.22550172,-0.20529497,-0.18739581,-0.16874814,-0.14854145,-0.12518519,-0.102639675,-0.07853502,-0.052871287,-0.027987003,-0.010119021,-0.0015748143,-1.5616417e-05,-0.0038823485,-0.013237298,-0.03188491,-0.062226236,-0.10030097,-0.14230484,-0.18586779,-0.23173833,-0.27994764,-0.3250386,-0.36314458,-0.39114708,-0.41525173,-0.43779725,-0.458004,-0.47590315,-0.485227,-0.4914636,-0.49688947,-0.501567,-0.5046853,-0.5062444,-0.5069929,-0.50777245,-0.50777245,-0.50777245,-0.5085521,-0.5085521,-0.5101112,-0.5108908,-0.5085521,-0.5039058,-0.501567,-0.501567,-0.501567,-0.50312614,-0.501567,-0.49922824,-0.49844867,-0.49533033,-0.49224323,-0.48834527,-0.485227,-0.485227,-0.48678613,-0.48834527,-0.48912483,-0.49068403,-0.48912483,-0.4875657,-0.48288822,-0.47668272,-0.47434402,-0.47746235,-0.4813602,-0.4836678,-0.47980106,-0.47512358,-0.47122568,-0.47122568,-0.47278482,-0.4720053,-0.46966654,-0.46813852,-0.46735895,-0.46657938,-0.4619019,-0.45722437,-0.4533577,-0.45257813,-0.45491683,-0.4556964,-0.45722437,-0.45722437,-0.458004,-0.45878357,-0.45878357,-0.45956314,-0.45956314,-0.46034276,-0.46112227,-0.458004,-0.45413727,-0.45101893,-0.4448135,-0.43701768,-0.4261347,-0.4175905,-0.41447216,-0.4175905,-0.4222368,-0.423796,-0.42535514,-0.42457557,-0.41681087,-0.40125048,-0.37246835,-0.33592153,-0.30327266,-0.2807272,-0.27293146,-0.27760887,-0.29161018,-0.31181693,-0.33283442,-0.35537994,-0.37948453,-0.41057426,-0.4448135,-0.47590315,-0.49533033,-0.5007874,-0.49922824,-0.4961099,-0.49533033,-0.49766904,-0.49922824,-0.501567,-0.5046853,-0.5062444,-0.5062444,-0.50312614,-0.5039058,-0.5085521,-0.5108908,-0.5108908,-0.5124499,-0.5295695,-0.5653367,-0.5816456,-0.52723086,-0.3546003,-0.0637542,0.3001542,0.64307654,0.8654753,0.9020221,0.7138312,0.3118167,-0.20919287,-0.6687404,-0.92768604,-0.93548185,-0.75895345,-0.54743755,-0.42067766,-0.3989117,-0.43779725,-0.4805807,-0.5000078,-0.49844867,-0.48600656,-0.47434402,-0.46813852,-0.46112227,-0.45101893,-0.4393564,-0.42925304,-0.4261347,-0.4284734,-0.4284734,-0.42067766,-0.41213346,-0.40592796,-0.4004709,-0.39579344,-0.38724917,-0.37558663,-0.36626285,-0.3592466,-0.3546003,-0.34680456,-0.33748078,-0.32893652,-0.31883317,-0.3040523,-0.2838456,-0.26204842,-0.24184173,-0.22241455,-0.20217663,-0.1772924,-0.14932102,-0.12365723,-0.09877294,-0.07466835,-0.050563693,-0.027987003,-0.011678159,0.003882289,0.01710391,0.027986884,0.029546022,0.016324282,-0.013237298,-0.054430425,-0.10030097,-0.15006948,-0.20373577,-0.2550634,-0.30327266,-0.34527653,-0.37948453,-0.40901512,-0.43237138,-0.45023936,-0.46268147,-0.47356445,-0.48444736,-0.49302274,-0.5000078,-0.5046853,-0.5085521,-0.5132295,-0.5171274,-0.5163478,-0.51556826,-0.5147887,-0.51400906,-0.51400906,-0.5108908,-0.5039058,-0.5000078,-0.501567,-0.5039058,-0.5062444,-0.5054649,-0.501567,-0.49844867,-0.49533033,-0.49224323,-0.48990446,-0.4914636,-0.4914636,-0.48990446,-0.48444736,-0.47434402,-0.46891814,-0.46735895,-0.46966654,-0.47122568,-0.46966654,-0.46813852,-0.4704461,-0.47356445,-0.47512358,-0.46891814,-0.4619019,-0.4556964,-0.45257813,-0.45413727,-0.45491683,-0.45491683,-0.45956314,-0.46112227,-0.4619019,-0.45878357,-0.45413727,-0.4533577,-0.4533577,-0.4533577,-0.45023936,-0.44712102,-0.44868022,-0.45101893,-0.4533577,-0.45413727,-0.4556964,-0.45956314,-0.46346104,-0.46268147,-0.4556964,-0.4479006,-0.44325435,-0.44247472,-0.44403392,-0.44169515,-0.43545854,-0.42925304,-0.42301637,-0.4175905,-0.41213346,-0.40979463,-0.41213346,-0.4136926,-0.4136926,-0.4113539,-0.4082355,-0.40436882,-0.39579344,-0.3779254,-0.35070246,-0.31571484,-0.28615314,-0.2682851,-0.26516682,-0.27371097,-0.29238975,-0.31571484,-0.33903992,-0.3608058,-0.3841309,-0.41057426,-0.43779725,-0.45878357,-0.4704461,-0.47122568,-0.46735895,-0.46735895,-0.4720053,-0.4790215,-0.485227,-0.48912483,-0.49224323,-0.48990446,-0.48600656,-0.47980106,-0.47356445,-0.47356445,-0.47746235,-0.485227,-0.5007874,-0.53109753,-0.552115,-0.5171274,-0.3818233,-0.1306423,0.20451522,0.5388931,0.77916014,0.8577106,0.7301713,0.39267504,-0.09175676,-0.5668959,-0.8802563,-0.9533499,-0.81339943,-0.5948673,-0.43003255,-0.367822,-0.38026416,-0.41914964,-0.44712102,-0.45647597,-0.4494598,-0.43857682,-0.42925304,-0.42457557,-0.423796,-0.42067766,-0.41447216,-0.40670753,-0.4004709,-0.3942654,-0.38646966,-0.37870502,-0.3709404,-0.36704248,-0.36392415,-0.36158538,-0.35537994,-0.34680456,-0.3382603,-0.32581824,-0.3102578,-0.29706728,-0.28771228,-0.28228635,-0.2744906,-0.2612689,-0.24340087,-0.22241455,-0.20061749,-0.17963117,-0.15630609,-0.13142186,-0.10653758,-0.082432985,-0.05832833,-0.03812158,-0.019442797,-0.0046619177,0.0077801943,0.021001816,0.029546022,0.029546022,0.011646867,-0.019442797,-0.05754876,-0.09955257,-0.13996607,-0.18352908,-0.23095876,-0.2783885,-0.32192034,-0.3577187,-0.38724917,-0.41291302,-0.4331197,-0.4479006,-0.45722437,-0.46657938,-0.47746235,-0.48834527,-0.49455076,-0.49533033,-0.49455076,-0.49533033,-0.49766904,-0.49922824,-0.49533033,-0.49068403,-0.49068403,-0.49302274,-0.49455076,-0.49302274,-0.49068403,-0.49068403,-0.49068403,-0.49068403,-0.4875657,-0.4836678,-0.48288822,-0.4836678,-0.48288822,-0.4813602,-0.4790215,-0.47824192,-0.47746235,-0.47434402,-0.46891814,-0.4657998,-0.46735895,-0.46891814,-0.46891814,-0.4657998,-0.45956314,-0.45647597,-0.45413727,-0.4533577,-0.4533577,-0.4517985,-0.45101893,-0.44868022,-0.44634145,-0.4455619,-0.44712102,-0.4494598,-0.4517985,-0.4494598,-0.44403392,-0.44169515,-0.44091558,-0.44091558,-0.44247472,-0.44013596,-0.4393564,-0.44247472,-0.4448135,-0.4455619,-0.44325435,-0.44403392,-0.44634145,-0.4479006,-0.44634145,-0.4393564,-0.43237138,-0.4284734,-0.4276939,-0.42535514,-0.41837007,-0.4113539,-0.4082355,-0.4082355,-0.40979463,-0.41057426,-0.41213346,-0.4136926,-0.41057426,-0.39735258,-0.36938125,-0.33283442,-0.30171353,-0.28228635,-0.27760887,-0.28615314,-0.30249316,-0.32347947,-0.3437174,-0.36626285,-0.3880288,-0.41291302,-0.4393564,-0.45878357,-0.46813852,-0.46735895,-0.46502024,-0.4657998,-0.4704461,-0.47590315,-0.47746235,-0.4790215,-0.48210865,-0.48678613,-0.48990446,-0.48912483,-0.48834527,-0.48912483,-0.49068403,-0.49302274,-0.5007874,-0.5225533,-0.55133545,-0.5450988,-0.45413727,-0.25038588,0.047445297,0.3755865,0.63917863,0.7744826,0.73173046,0.49377108,0.08087373,-0.3919267,-0.7659385,-0.92846566,-0.86160874,-0.6601962,-0.46966654,-0.37636626,-0.37558663,-0.41681087,-0.45491683,-0.4720053,-0.47278482,-0.4619019,-0.45101893,-0.44325435,-0.43545854,-0.4284734,-0.42301637,-0.41837007,-0.41447216,-0.41213346,-0.4082355,-0.4004709,-0.3919267,-0.38646966,-0.37948453,-0.37246835,-0.3647037,-0.3577187,-0.35304117,-0.34758407,-0.34059906,-0.32893652,-0.3141557,-0.30249316,-0.29161018,-0.2783885,-0.26204842,-0.24340087,-0.22472215,-0.2068541,-0.18586779,-0.16251153,-0.13840693,-0.117420614,-0.09487504,-0.07310921,-0.046665788,-0.021781564,-0.0046619177,0.0070005655,0.013985634,0.013985634,0.003882289,-0.021001935,-0.055989563,-0.096434295,-0.13918644,-0.18196994,-0.23017919,-0.27916807,-0.3250386,-0.36158538,-0.3919267,-0.41837007,-0.44247472,-0.46034276,-0.47122568,-0.47746235,-0.485227,-0.4914636,-0.49766904,-0.49844867,-0.49688947,-0.49766904,-0.5000078,-0.5023466,-0.5039058,-0.5039058,-0.5054649,-0.5062444,-0.50312614,-0.49766904,-0.49533033,-0.49302274,-0.49455076,-0.49380237,-0.48990446,-0.48444736,-0.48210865,-0.4813602,-0.4813602,-0.47980106,-0.47980106,-0.48210865,-0.4836678,-0.4836678,-0.48288822,-0.47668272,-0.47512358,-0.47356445,-0.47434402,-0.47434402,-0.47590315,-0.47824192,-0.47512358,-0.47122568,-0.4657998,-0.46268147,-0.46268147,-0.46346104,-0.46112227,-0.45647597,-0.4533577,-0.4533577,-0.45647597,-0.46034276,-0.45956314,-0.45722437,-0.4556964,-0.4556964,-0.45647597,-0.45647597,-0.45722437,-0.45878357,-0.46034276,-0.46268147,-0.46112227,-0.46034276,-0.45956314,-0.45878357,-0.458004,-0.45491683,-0.45647597,-0.45956314,-0.4619019,-0.46112227,-0.45722437,-0.45491683,-0.4556964,-0.45956314,-0.46346104,-0.46424067,-0.458004,-0.45101893,-0.44013596,-0.42925304,-0.423796,-0.42691427,-0.4346789,-0.4393564,-0.43623805,-0.42457557,-0.40901512,-0.39735258,-0.38880837,-0.3779254,-0.35849822,-0.33514202,-0.31337607,-0.29628766,-0.28849185,-0.29161018,-0.30717063,-0.33205485,-0.36704248,-0.40280962,-0.43237138,-0.45413727,-0.46657938,-0.47122568,-0.4720053,-0.47278482,-0.47356445,-0.47668272,-0.47980106,-0.4805807,-0.4790215,-0.4805807,-0.4836678,-0.4875657,-0.49068403,-0.49224323,-0.49224323,-0.49380237,-0.5000078,-0.5194349,-0.5489967,-0.5583205,-0.5023466,-0.33283442,-0.048224926,0.31415558,0.6578573,0.8802562,0.91134596,0.7177291,0.3118167,-0.20529497,-0.6617553,-0.920701,-0.92690647,-0.7449522,-0.52801037,-0.39579344,-0.37246835,-0.41213346,-0.45647597,-0.47824192,-0.4790215,-0.4704461,-0.4619019,-0.4533577,-0.4479006,-0.4448135,-0.44325435,-0.43857682,-0.4284734,-0.41603136,-0.4051484,-0.3981322,-0.3942654,-0.3942654,-0.39114708,-0.38724917,-0.38104373,-0.37246835,-0.36314458,-0.3546003,-0.34680456,-0.3382603,-0.32815695,-0.31571484,-0.30483192,-0.29472852,-0.28150684,-0.26282805,-0.2410621,-0.21929622,-0.19983786,-0.17885154,-0.15396732,-0.12287766,-0.09097719,-0.06531334,-0.041988254,-0.019442797,0.0046617985,0.024088979,0.029546022,0.024088979,0.011646867,-0.0031027794,-0.026427865,-0.0591079,-0.10419887,-0.15630609,-0.20763367,-0.25896132,-0.30717063,-0.34914327,-0.38569003,-0.4136926,-0.43623805,-0.46112227,-0.4813602,-0.4961099,-0.5039058,-0.5085521,-0.51400906,-0.51868653,-0.5209941,-0.5194349,-0.5194349,-0.5209941,-0.52411246,-0.5256716,-0.52411246,-0.5217737,-0.5209941,-0.52021456,-0.5163478,-0.5093316,-0.5023466,-0.5000078,-0.501567,-0.50312614,-0.5039058,-0.5039058,-0.5023466,-0.5007874,-0.49688947,-0.49224323,-0.49224323,-0.49533033,-0.5000078,-0.501567,-0.49455076,-0.485227,-0.47824192,-0.47668272,-0.4790215,-0.48288822,-0.485227,-0.4836678,-0.48288822,-0.47980106,-0.47746235,-0.47434402,-0.47278482,-0.47278482,-0.47278482,-0.47356445,-0.47512358,-0.47980106,-0.47824192,-0.47278482,-0.46424067,-0.458004,-0.458004,-0.46112227,-0.46424067,-0.46424067,-0.46268147,-0.4657998,-0.46891814,-0.46966654,-0.46735895,-0.46424067,-0.4657998,-0.46891814,-0.4720053,-0.46966654,-0.46424067,-0.46034276,-0.45722437,-0.4556964,-0.45491683,-0.45491683,-0.4556964,-0.45722437,-0.45722437,-0.4556964,-0.4533577,-0.45491683,-0.4556964,-0.4556964,-0.45491683,-0.4533577,-0.4533577,-0.4556964,-0.45413727,-0.4455619,-0.43623805,-0.42691427,-0.42535514,-0.43003255,-0.43701768,-0.44091558,-0.43857682,-0.43003255,-0.41525173,-0.3989117,-0.38646966,-0.37948453,-0.37246835,-0.36002624,-0.3398195,-0.31883317,-0.3040523,-0.30249316,-0.3125965,-0.33127528,-0.36002624,-0.39735258,-0.43237138,-0.458004,-0.46966654,-0.47278482,-0.4704461,-0.46891814,-0.46424067,-0.46034276,-0.45956314,-0.46424067,-0.4704461,-0.47590315,-0.47512358,-0.47356445,-0.47590315,-0.4790215,-0.48210865,-0.48210865,-0.4875657,-0.5093316,-0.53967285,-0.53967285,-0.45956314,-0.26672596,0.020222306,0.35382068,0.63917863,0.8017056,0.78692484,0.5653055,0.15318763,-0.333614,-0.73874676,-0.9393486,-0.9035814,-0.7107442,-0.5046853,-0.3841309,-0.36392415,-0.40280962,-0.44712102,-0.46813852,-0.46346104,-0.44712102,-0.43081218,-0.42145717,-0.41837007,-0.4175905,-0.41525173,-0.40979463,-0.40436882,-0.39969134,-0.3981322,-0.3989117,-0.39579344,-0.38880837,-0.37870502,-0.36938125,-0.36314458,-0.3608058,-0.35693908,-0.3483637,-0.3398195,-0.33283442,-0.32581824,-0.31571484,-0.3001544,-0.27760887,-0.25662255,-0.2387234,-0.22319418,-0.20373577,-0.17885154,-0.15552646,-0.13376057,-0.11430222,-0.09253639,-0.06687248,-0.037342012,-0.012457728,0.0031026602,0.013206005,0.016324282,0.014765263,0.005441427,-0.011678159,-0.040429115,-0.07853502,-0.12596476,-0.17807204,-0.22784042,-0.27371097,-0.31181693,-0.34758407,-0.38104373,-0.40979463,-0.43389934,-0.45257813,-0.46657938,-0.47512358,-0.48210865,-0.48444736,-0.48600656,-0.48912483,-0.4961099,-0.5039058,-0.5039058,-0.5007874,-0.49455076,-0.48990446,-0.49068403,-0.49302274,-0.49224323,-0.48912483,-0.4875657,-0.48444736,-0.48210865,-0.4805807,-0.4813602,-0.48678613,-0.49380237,-0.49766904,-0.49224323,-0.4836678,-0.47746235,-0.47278482,-0.47278482,-0.47356445,-0.47278482,-0.47434402,-0.47590315,-0.47590315,-0.47356445,-0.47122568,-0.46966654,-0.46735895,-0.46502024,-0.46034276,-0.458004,-0.4619019,-0.47122568,-0.47824192,-0.47668272,-0.46891814,-0.458004,-0.44712102,-0.44169515,-0.43857682,-0.43857682,-0.44247472,-0.4479006,-0.4517985,-0.45257813,-0.4517985,-0.45101893,-0.45257813,-0.4517985,-0.4479006,-0.44325435,-0.44247472,-0.44403392,-0.44712102,-0.45023936,-0.4533577,-0.45413727,-0.45413727,-0.45023936,-0.4448135,-0.4455619,-0.44868022,-0.4517985,-0.4517985,-0.4479006,-0.44712102,-0.4494598,-0.4517985,-0.45023936,-0.4455619,-0.44169515,-0.44325435,-0.4448135,-0.44634145,-0.44169515,-0.43623805,-0.43389934,-0.43701768,-0.44247472,-0.4455619,-0.4448135,-0.44091558,-0.43237138,-0.42145717,-0.40592796,-0.3919267,-0.37948453,-0.36704248,-0.35148203,-0.333614,-0.3149352,-0.30483192,-0.30483192,-0.3102578,-0.32269984,-0.34527653,-0.37870502,-0.41525173,-0.44325435,-0.45413727,-0.45647597,-0.4533577,-0.45413727,-0.458004,-0.458004,-0.45647597,-0.4556964,-0.45722437,-0.45956314,-0.46034276,-0.4619019,-0.46502024,-0.46966654,-0.47356445,-0.47122568,-0.4720053,-0.48678613,-0.51167035,-0.5124499,-0.44091558,-0.26204842,0.010867357,0.32503843,0.5855433,0.72318614,0.69284487,0.47899008,0.10108042,-0.34449697,-0.71230334,-0.8958168,-0.85927,-0.67497706,-0.47746235,-0.3647037,-0.35070246,-0.39114708,-0.43545854,-0.45647597,-0.45491683,-0.44247472,-0.4315918,-0.42457557,-0.41992927,-0.4136926,-0.40979463,-0.4082355,-0.40358925,-0.3989117,-0.3919267,-0.38104373,-0.37168878,-0.36314458,-0.35537994,-0.3483637,-0.34527653,-0.34215826,-0.33514202,-0.3250386,-0.3141557,-0.30483192,-0.29937482,-0.2939489,-0.2846251,-0.26906466,-0.2511655,-0.23485667,-0.21773708,-0.1990583,-0.17651278,-0.15396732,-0.13220143,-0.110435486,-0.08633089,-0.061446667,-0.03812158,-0.018663287,-0.0062211156,0.003882289,0.012426376,0.01710391,0.011646867,-0.0038823485,-0.03188491,-0.06765211,-0.110435486,-0.15786523,-0.20607454,-0.24960637,-0.28771228,-0.32269984,-0.3538208,-0.3841309,-0.40901512,-0.4276939,-0.44169515,-0.45413727,-0.46346104,-0.4704461,-0.47278482,-0.47356445,-0.47590315,-0.47746235,-0.47746235,-0.47590315,-0.47746235,-0.4813602,-0.48600656,-0.4914636,-0.4914636,-0.48834527,-0.48678613,-0.4836678,-0.4805807,-0.47668272,-0.47434402,-0.47356445,-0.47512358,-0.47668272,-0.47746235,-0.47668272,-0.47824192,-0.47668272,-0.47356445,-0.46813852,-0.46424067,-0.46346104,-0.46502024,-0.4657998,-0.46502024,-0.46346104,-0.46268147,-0.4619019,-0.46034276,-0.4533577,-0.44634145,-0.44325435,-0.44169515,-0.44169515,-0.44091558,-0.4393564,-0.43779725,-0.4393564,-0.4393564,-0.43779725,-0.43623805,-0.43701768,-0.44169515,-0.4455619,-0.4455619,-0.44247472,-0.4393564,-0.43779725,-0.44013596,-0.44325435,-0.44325435,-0.44091558,-0.43779725,-0.43623805,-0.43701768,-0.44013596,-0.44403392,-0.4455619,-0.44634145,-0.44169515,-0.44013596,-0.44169515,-0.44712102,-0.45023936,-0.44634145,-0.44247472,-0.44013596,-0.43779725,-0.4393564,-0.43389934,-0.4284734,-0.42457557,-0.423796,-0.42535514,-0.4261347,-0.42535514,-0.423796,-0.41992927,-0.4136926,-0.4082355,-0.40979463,-0.41681087,-0.42535514,-0.42457557,-0.41447216,-0.3989117,-0.38335127,-0.37168878,-0.36236495,-0.35148203,-0.3398195,-0.32425898,-0.30561143,-0.28771228,-0.27604973,-0.27682936,-0.29316938,-0.31883317,-0.3522616,-0.38646966,-0.41681087,-0.44247472,-0.45956314,-0.4619019,-0.4556964,-0.44634145,-0.44091558,-0.44169515,-0.44868022,-0.4556964,-0.46034276,-0.4619019,-0.46268147,-0.45956314,-0.4556964,-0.45413727,-0.45722437,-0.46268147,-0.4790215,-0.5062444,-0.52879,-0.50777245,-0.39579344,-0.16407067,0.16173184,0.51631653,0.788484,0.90358126,0.8141477,0.514009,0.04588616,-0.44247472,-0.7931615,-0.91215676,-0.80326486,-0.58554345,-0.40979463,-0.34215826,-0.36158538,-0.40901512,-0.44403392,-0.4556964,-0.45023936,-0.43779725,-0.42301637,-0.41213346,-0.4074871,-0.4074871,-0.4082355,-0.40592796,-0.39969134,-0.39348584,-0.38491046,-0.37636626,-0.367822,-0.36002624,-0.35615945,-0.3538208,-0.34914327,-0.3398195,-0.33049572,-0.3250386,-0.32117188,-0.31571484,-0.3040523,-0.2892714,-0.27604973,-0.26282805,-0.24882674,-0.22862005,-0.2068541,-0.18508822,-0.16407067,-0.14152521,-0.116640985,-0.09019756,-0.06453383,-0.041988254,-0.019442797,0.0015435219,0.018663168,0.03266442,0.042767763,0.048193693,0.04588616,0.028766513,-0.0038823485,-0.049004555,-0.09877294,-0.15006948,-0.20217663,-0.25194514,-0.3001544,-0.34215826,-0.37870502,-0.40592796,-0.43003255,-0.44634145,-0.45491683,-0.46034276,-0.4657998,-0.47434402,-0.485227,-0.49380237,-0.49766904,-0.49688947,-0.49844867,-0.49922824,-0.49922824,-0.49455076,-0.48990446,-0.48600656,-0.485227,-0.48834527,-0.49068403,-0.49224323,-0.4914636,-0.48834527,-0.48600656,-0.48288822,-0.48288822,-0.4836678,-0.48210865,-0.47980106,-0.47668272,-0.47668272,-0.47824192,-0.47824192,-0.47356445,-0.46502024,-0.45956314,-0.458004,-0.45878357,-0.45878357,-0.4556964,-0.4533577,-0.45413727,-0.458004,-0.45956314,-0.45491683,-0.45101893,-0.44712102,-0.4455619,-0.44634145,-0.44403392,-0.44325435,-0.44247472,-0.4448135,-0.44325435,-0.43701768,-0.43237138,-0.4315918,-0.43545854,-0.44013596,-0.44247472,-0.44247472,-0.44403392,-0.44868022,-0.4494598,-0.4448135,-0.4393564,-0.43779725,-0.44013596,-0.44247472,-0.44325435,-0.44247472,-0.44403392,-0.44634145,-0.44403392,-0.4393564,-0.43779725,-0.44091558,-0.44325435,-0.44247472,-0.43545854,-0.42925304,-0.42925304,-0.4315918,-0.4346789,-0.43389934,-0.43237138,-0.4331197,-0.4331197,-0.43003255,-0.42145717,-0.41447216,-0.41681087,-0.4222368,-0.42691427,-0.42457557,-0.41603136,-0.40592796,-0.39579344,-0.3880288,-0.3771459,-0.36704248,-0.3546003,-0.33748078,-0.31649446,-0.29238975,-0.27682936,-0.2783885,-0.29550815,-0.32269984,-0.3538208,-0.38569003,-0.41681087,-0.44169515,-0.45647597,-0.45722437,-0.45101893,-0.44403392,-0.44169515,-0.44403392,-0.4479006,-0.45101893,-0.4533577,-0.45413727,-0.45413727,-0.45413727,-0.4556964,-0.4619019,-0.46813852,-0.46657938,-0.46966654,-0.48600656,-0.5069929,-0.49455076,-0.39504504,-0.17342567,0.14308429,0.48522687,0.750378,0.87015295,0.79472065,0.51167023,0.055989385,-0.43701768,-0.8056036,-0.94402605,-0.85072577,-0.63531196,-0.44403392,-0.35693908,-0.35849822,-0.39969134,-0.43623805,-0.45023936,-0.4448135,-0.43389934,-0.4261347,-0.41992927,-0.4175905,-0.41213346,-0.40125048,-0.39270627,-0.38958794,-0.38880837,-0.38724917,-0.3841309,-0.37948453,-0.3740275,-0.36860162,-0.36002624,-0.34992284,-0.34215826,-0.3398195,-0.3382603,-0.33205485,-0.31961274,-0.30483192,-0.2908306,-0.27994764,-0.27062386,-0.25662255,-0.23638463,-0.21617794,-0.19597119,-0.17573327,-0.15474695,-0.13376057,-0.11352265,-0.088638425,-0.061446667,-0.032664478,-0.008559823,0.0046617985,0.010867357,0.012426376,0.011646867,0.006221056,-0.011678159,-0.042767882,-0.08399212,-0.12908304,-0.17807204,-0.22706085,-0.27527016,-0.31961274,-0.3546003,-0.38646966,-0.41447216,-0.44013596,-0.4619019,-0.4790215,-0.48912483,-0.49533033,-0.49922824,-0.5023466,-0.50312614,-0.5062444,-0.5093316,-0.5093316,-0.5062444,-0.5000078,-0.49844867,-0.501567,-0.5062444,-0.5101112,-0.5093316,-0.5069929,-0.5062444,-0.50312614,-0.49844867,-0.49224323,-0.48678613,-0.48834527,-0.49302274,-0.49688947,-0.49922824,-0.49766904,-0.49688947,-0.49455076,-0.48834527,-0.4836678,-0.47980106,-0.4805807,-0.48210865,-0.48288822,-0.47746235,-0.47278482,-0.4704461,-0.46966654,-0.4704461,-0.46891814,-0.46735895,-0.46657938,-0.4657998,-0.46346104,-0.45878357,-0.45413727,-0.45257813,-0.4533577,-0.4556964,-0.4556964,-0.4533577,-0.45023936,-0.44712102,-0.44325435,-0.44247472,-0.4448135,-0.45023936,-0.45491683,-0.4556964,-0.45101893,-0.44712102,-0.4479006,-0.4517985,-0.45491683,-0.45257813,-0.45023936,-0.44868022,-0.4494598,-0.45101893,-0.45101893,-0.45101893,-0.4517985,-0.45101893,-0.45023936,-0.44868022,-0.4494598,-0.45257813,-0.4533577,-0.44712102,-0.42925304,-0.40901512,-0.39348584,-0.38958794,-0.39504504,-0.40203005,-0.4082355,-0.40979463,-0.40670753,-0.3989117,-0.3841309,-0.36392415,-0.34059906,-0.32117188,-0.30561143,-0.29550815,-0.29316938,-0.30171353,-0.31571484,-0.33514202,-0.3577187,-0.38491046,-0.41681087,-0.44712102,-0.46891814,-0.47980106,-0.48210865,-0.47980106,-0.47746235,-0.47590315,-0.47434402,-0.47590315,-0.4805807,-0.48912483,-0.49380237,-0.49380237,-0.49068403,-0.48678613,-0.4836678,-0.48210865,-0.48288822,-0.4961099,-0.5248921,-0.5505558,-0.52801037,-0.4136926,-0.19363242,0.09952128,0.4028095,0.6267363,0.71928823,0.6376505,0.36857033,-0.054430425,-0.5046853,-0.8367245,-0.95646816,-0.8639163,-0.658637,-0.47746235,-0.3919267,-0.3880288,-0.4261347,-0.45956314,-0.47434402,-0.4704461,-0.46112227,-0.45101893,-0.44325435,-0.43623805,-0.4276939,-0.41992927,-0.41525173,-0.41213346,-0.40979463,-0.40670753,-0.40280962,-0.3989117,-0.39348584,-0.38335127,-0.3709404,-0.3608058,-0.3546003,-0.34992284,-0.34449697,-0.33514202,-0.32425898,-0.31337607,-0.30249316,-0.29005104,-0.2744906,-0.25818175,-0.2441805,-0.23017919,-0.2130596,-0.19129372,-0.16562986,-0.14152521,-0.116640985,-0.09175676,-0.068431675,-0.046665788,-0.029546201,-0.015544832,-0.0031027794,0.0046617985,0.0023231506,-0.011678159,-0.037342012,-0.06999087,-0.10497844,-0.14620268,-0.194412,-0.2441805,-0.29005104,-0.32737738,-0.35849822,-0.38724917,-0.41447216,-0.43779725,-0.45491683,-0.46813852,-0.4805807,-0.49224323,-0.5007874,-0.5039058,-0.5054649,-0.5069929,-0.5062444,-0.5062444,-0.5046853,-0.5046853,-0.5069929,-0.5093316,-0.5093316,-0.50312614,-0.49844867,-0.49766904,-0.49922824,-0.5000078,-0.49844867,-0.49533033,-0.49380237,-0.49380237,-0.49533033,-0.49533033,-0.49380237,-0.49380237,-0.49302274,-0.49068403,-0.485227,-0.4805807,-0.47824192,-0.47746235,-0.47590315,-0.4720053,-0.46891814,-0.47122568,-0.47434402,-0.47590315,-0.47122568,-0.46502024,-0.46112227,-0.4619019,-0.46502024,-0.46502024,-0.46346104,-0.46268147,-0.4619019,-0.45878357,-0.45647597,-0.45413727,-0.4556964,-0.45956314,-0.4619019,-0.46268147,-0.46268147,-0.4619019,-0.45956314,-0.4556964,-0.45023936,-0.4494598,-0.45491683,-0.46034276,-0.46112227,-0.45491683,-0.44868022,-0.44868022,-0.45257813,-0.45878357,-0.458004,-0.45491683,-0.4517985,-0.44712102,-0.44091558,-0.4315918,-0.42067766,-0.4113539,-0.40670753,-0.4074871,-0.40979463,-0.41213346,-0.41603136,-0.41837007,-0.41525173,-0.4051484,-0.38724917,-0.36236495,-0.33283442,-0.30483192,-0.28306597,-0.27527016,-0.2838456,-0.29706728,-0.3125965,-0.32659775,-0.34293777,-0.36938125,-0.40436882,-0.44013596,-0.46813852,-0.4836678,-0.48990446,-0.48990446,-0.4875657,-0.48444736,-0.48444736,-0.4875657,-0.49224323,-0.49455076,-0.49302274,-0.49224323,-0.49455076,-0.49688947,-0.49844867,-0.49533033,-0.49224323,-0.501567,-0.5295695,-0.5622184,-0.55598176,-0.46112227,-0.24960637,0.06453371,0.42457533,0.7270529,0.8864616,0.84292996,0.58008623,0.12908292,-0.37636626,-0.7698364,-0.9448056,-0.8802563,-0.67497706,-0.4790215,-0.38260287,-0.38335127,-0.4276939,-0.4657998,-0.4790215,-0.47434402,-0.46502024,-0.45878357,-0.4533577,-0.45023936,-0.44634145,-0.4393564,-0.4315918,-0.42067766,-0.40901512,-0.39969134,-0.39579344,-0.39270627,-0.38880837,-0.3818233,-0.37480712,-0.36860162,-0.36002624,-0.35070246,-0.3382603,-0.32815695,-0.32117188,-0.3141557,-0.3040523,-0.28771228,-0.2698443,-0.25350428,-0.2402826,-0.22472215,-0.20373577,-0.17963117,-0.15552646,-0.13376057,-0.110435486,-0.082432985,-0.052871287,-0.026427865,-0.0062211156,0.008559704,0.022561073,0.030325651,0.03266442,0.025648236,0.010118842,-0.014765322,-0.05131209,-0.101860106,-0.15786523,-0.2115004,-0.25896132,-0.29937482,-0.3382603,-0.37480712,-0.40592796,-0.43003255,-0.45023936,-0.46891814,-0.48288822,-0.49302274,-0.49688947,-0.49844867,-0.5007874,-0.5007874,-0.49922824,-0.49688947,-0.49766904,-0.5007874,-0.5039058,-0.50312614,-0.49844867,-0.49688947,-0.49844867,-0.49844867,-0.49688947,-0.48990446,-0.48444736,-0.48288822,-0.48444736,-0.485227,-0.48288822,-0.4805807,-0.4805807,-0.4790215,-0.4790215,-0.47668272,-0.47668272,-0.47980106,-0.48210865,-0.48288822,-0.47980106,-0.47434402,-0.4720053,-0.4704461,-0.46813852,-0.46268147,-0.45722437,-0.4556964,-0.45722437,-0.45956314,-0.45878357,-0.45647597,-0.45722437,-0.45647597,-0.4556964,-0.4517985,-0.44634145,-0.44325435,-0.44091558,-0.43857682,-0.43545854,-0.4346789,-0.43857682,-0.4448135,-0.4479006,-0.4455619,-0.44169515,-0.44091558,-0.44325435,-0.44403392,-0.44169515,-0.43779725,-0.43545854,-0.43701768,-0.43701768,-0.43389934,-0.43003255,-0.43003255,-0.43237138,-0.43545854,-0.43545854,-0.4331197,-0.43003255,-0.423796,-0.41447216,-0.40125048,-0.38958794,-0.38569003,-0.38569003,-0.38724917,-0.38491046,-0.38491046,-0.3880288,-0.38646966,-0.37558663,-0.34992284,-0.3141557,-0.2807272,-0.25896132,-0.2511655,-0.25272465,-0.26360768,-0.28228635,-0.30327266,-0.32815695,-0.35304117,-0.38335127,-0.41603136,-0.4448135,-0.46657938,-0.4720053,-0.46735895,-0.46112227,-0.45956314,-0.46268147,-0.46966654,-0.47824192,-0.48444736,-0.48600656,-0.4836678,-0.47746235,-0.47122568,-0.46966654,-0.47122568,-0.47434402,-0.48288822,-0.5062444,-0.54279125,-0.55367416,-0.49068403,-0.3079502,-0.012457728,0.34836352,0.6741973,0.8771378,0.8942574,0.68816745,0.2752701,-0.24184173,-0.6920655,-0.9347023,-0.9261269,-0.7402747,-0.5217737,-0.38724917,-0.35849822,-0.39270627,-0.43779725,-0.46424067,-0.46502024,-0.45023936,-0.43237138,-0.42145717,-0.4175905,-0.4175905,-0.41681087,-0.41603136,-0.41291302,-0.41057426,-0.40670753,-0.3989117,-0.3919267,-0.3841309,-0.37636626,-0.36860162,-0.36002624,-0.35304117,-0.3483637,-0.34137863,-0.33205485,-0.31883317,-0.30483192,-0.2939489,-0.28306597,-0.27062386,-0.2542838,-0.23560506,-0.21461874,-0.194412,-0.17342567,-0.15006948,-0.12830353,-0.10731721,-0.08633089,-0.0637542,-0.041208744,-0.021781564,-0.0062211156,0.009339333,0.024088979,0.033443928,0.030325651,0.010118842,-0.022561193,-0.061446667,-0.102639675,-0.15006948,-0.20139706,-0.25038588,-0.29628766,-0.33514202,-0.37016076,-0.40436882,-0.43237138,-0.45101893,-0.46268147,-0.4704461,-0.4805807,-0.48912483,-0.49380237,-0.49533033,-0.4961099,-0.49844867,-0.50312614,-0.5046853,-0.50312614,-0.5007874,-0.49922824,-0.5007874,-0.5007874,-0.5007874,-0.501567,-0.5039058,-0.5054649,-0.50312614,-0.49688947,-0.48834527,-0.48444736,-0.48210865,-0.4813602,-0.47980106,-0.4805807,-0.4836678,-0.485227,-0.48288822,-0.47746235,-0.47122568,-0.46813852,-0.46813852,-0.46657938,-0.46424067,-0.46112227,-0.45956314,-0.4619019,-0.46034276,-0.4556964,-0.4517985,-0.4479006,-0.44634145,-0.44634145,-0.44634145,-0.4479006,-0.45023936,-0.4517985,-0.4517985,-0.45101893,-0.44868022,-0.44712102,-0.4479006,-0.44634145,-0.4448135,-0.44325435,-0.44325435,-0.44403392,-0.44634145,-0.44634145,-0.4479006,-0.4494598,-0.4479006,-0.4455619,-0.44091558,-0.43779725,-0.43779725,-0.44013596,-0.4393564,-0.43389934,-0.42535514,-0.41837007,-0.4113539,-0.40901512,-0.4074871,-0.4074871,-0.4113539,-0.4136926,-0.40979463,-0.39969134,-0.3818233,-0.35849822,-0.33205485,-0.30561143,-0.2838456,-0.2744906,-0.28150684,-0.29781568,-0.3149352,-0.33049572,-0.3483637,-0.37246835,-0.4051484,-0.43623805,-0.45878357,-0.4704461,-0.47434402,-0.47356445,-0.47122568,-0.46891814,-0.46891814,-0.4720053,-0.47668272,-0.48210865,-0.4836678,-0.48444736,-0.48444736,-0.485227,-0.485227,-0.48210865,-0.47980106,-0.48444736,-0.5039058,-0.5365546,-0.5458784,-0.48600656,-0.31961274,-0.053650796,0.26828504,0.553643,0.72396576,0.73095083,0.54821706,0.18505692,-0.27527016,-0.6858599,-0.91758263,-0.91758263,-0.7402747,-0.5248921,-0.38880837,-0.3592466,-0.39579344,-0.44169515,-0.46502024,-0.46346104,-0.4517985,-0.4393564,-0.43081218,-0.42535514,-0.42067766,-0.41914964,-0.4175905,-0.41291302,-0.40592796,-0.3981322,-0.39348584,-0.39036757,-0.38569003,-0.37636626,-0.36704248,-0.36002624,-0.35693908,-0.3522616,-0.34605616,-0.33592153,-0.32347947,-0.31181693,-0.29781568,-0.28306597,-0.2698443,-0.2597409,-0.24804717,-0.23329753,-0.2115004,-0.18661618,-0.16173196,-0.13687891,-0.11352265,-0.09019756,-0.06999087,-0.053650796,-0.039649546,-0.02567947,-0.010119021,-1.5616417e-05,0.0015435219,-0.0070007443,-0.02567947,-0.047445357,-0.07775551,-0.12209803,-0.17417407,-0.22862005,-0.2783885,-0.31883317,-0.35304117,-0.38335127,-0.4113539,-0.43389934,-0.4517985,-0.46735895,-0.4790215,-0.48678613,-0.4914636,-0.49533033,-0.5000078,-0.5054649,-0.5062444,-0.5023466,-0.49766904,-0.49766904,-0.49922824,-0.5007874,-0.5000078,-0.4961099,-0.49455076,-0.49455076,-0.49455076,-0.49224323,-0.48990446,-0.48912483,-0.48912483,-0.48834527,-0.48444736,-0.4805807,-0.47824192,-0.47746235,-0.47668272,-0.47512358,-0.47434402,-0.47434402,-0.47590315,-0.47824192,-0.47746235,-0.47590315,-0.47512358,-0.47434402,-0.47434402,-0.47278482,-0.47122568,-0.46657938,-0.458004,-0.45257813,-0.4479006,-0.44868022,-0.45413727,-0.45722437,-0.45722437,-0.4533577,-0.4479006,-0.4455619,-0.4448135,-0.4448135,-0.44403392,-0.44403392,-0.44634145,-0.4479006,-0.44868022,-0.44712102,-0.44634145,-0.4479006,-0.45023936,-0.4517985,-0.4517985,-0.45023936,-0.4494598,-0.4479006,-0.44247472,-0.43389934,-0.42535514,-0.4222368,-0.41837007,-0.41681087,-0.4136926,-0.40901512,-0.40979463,-0.4113539,-0.40901512,-0.40203005,-0.38958794,-0.36938125,-0.34215826,-0.3125965,-0.2853735,-0.27062386,-0.27293146,-0.28615314,-0.3040523,-0.32192034,-0.34215826,-0.367822,-0.3981322,-0.42925304,-0.45413727,-0.47122568,-0.4813602,-0.4813602,-0.47590315,-0.46735895,-0.46112227,-0.4657998,-0.47512358,-0.48288822,-0.4836678,-0.48210865,-0.4813602,-0.48444736,-0.48912483,-0.49068403,-0.48990446,-0.49533033,-0.5132295,-0.5443192,-0.55523336,-0.5000078,-0.33670115,-0.06687248,0.2713722,0.58788216,0.78692484,0.8133681,0.63917863,0.26906455,-0.20841324,-0.6399894,-0.89347804,-0.909818,-0.7410543,-0.5295695,-0.39579344,-0.3709404,-0.41057426,-0.45491683,-0.47512358,-0.4704461,-0.45956314,-0.45023936,-0.4455619,-0.44091558,-0.43701768,-0.43237138,-0.4284734,-0.42301637,-0.41447216,-0.4082355,-0.40280962,-0.3981322,-0.39270627,-0.38335127,-0.37558663,-0.36938125,-0.36548334,-0.36392415,-0.36392415,-0.35849822,-0.34992284,-0.33514202,-0.31649446,-0.29706728,-0.28306597,-0.27140343,-0.25818175,-0.2402826,-0.21851665,-0.19675076,-0.1772924,-0.15786523,-0.13531977,-0.10809684,-0.08009422,-0.055989563,-0.035782874,-0.018663287,-0.0038823485,0.005441427,0.0070005655,-1.5616417e-05,-0.013237298,-0.033444107,-0.063005805,-0.10419887,-0.15396732,-0.20607454,-0.25584304,-0.30171353,-0.34293777,-0.37948453,-0.4082355,-0.43003255,-0.4455619,-0.46034276,-0.47278482,-0.4813602,-0.48444736,-0.48678613,-0.4914636,-0.49766904,-0.501567,-0.5023466,-0.501567,-0.5023466,-0.50312614,-0.501567,-0.49766904,-0.49380237,-0.49224323,-0.4914636,-0.4914636,-0.48912483,-0.48678613,-0.48834527,-0.48990446,-0.48990446,-0.48678613,-0.4836678,-0.48288822,-0.48210865,-0.48210865,-0.4813602,-0.47980106,-0.47980106,-0.47980106,-0.4790215,-0.47512358,-0.47356445,-0.47356445,-0.47434402,-0.47434402,-0.47122568,-0.46891814,-0.46891814,-0.46735895,-0.46502024,-0.46112227,-0.45956314,-0.46112227,-0.46502024,-0.46813852,-0.46657938,-0.46346104,-0.46268147,-0.46268147,-0.46112227,-0.458004,-0.45491683,-0.45413727,-0.45413727,-0.45491683,-0.4556964,-0.4556964,-0.458004,-0.46112227,-0.46112227,-0.4556964,-0.45023936,-0.4479006,-0.44868022,-0.4517985,-0.45257813,-0.4494598,-0.4448135,-0.4393564,-0.43389934,-0.42691427,-0.41992927,-0.41447216,-0.4074871,-0.40203005,-0.39735258,-0.39657295,-0.40125048,-0.40592796,-0.4051484,-0.39579344,-0.37948453,-0.3546003,-0.32425898,-0.2939489,-0.2698443,-0.2612689,-0.2698443,-0.28771228,-0.3079502,-0.32581824,-0.34449697,-0.36938125,-0.40125048,-0.4346789,-0.46034276,-0.47746235,-0.48444736,-0.48288822,-0.47824192,-0.47356445,-0.47278482,-0.47590315,-0.4805807,-0.48444736,-0.48600656,-0.48912483,-0.4914636,-0.49302274,-0.49224323,-0.48912483,-0.48834527,-0.49844867,-0.5248921,-0.55598176,-0.5489967,-0.4556964,-0.24340087,0.07697582,0.44945967,0.76359975,0.93080425,0.8864616,0.6142943,0.1485101,-0.37246835,-0.7776011,-0.9556886,-0.88802093,-0.6757566,-0.47278482,-0.3740275,-0.37870502,-0.42535514,-0.46424067,-0.47278482,-0.4619019,-0.4494598,-0.44013596,-0.43701768,-0.4331197,-0.42925304,-0.42691427,-0.423796,-0.41837007,-0.40979463,-0.40280962,-0.3989117,-0.39657295,-0.39348584,-0.38569003,-0.37558663,-0.367822,-0.3608058,-0.3546003,-0.34449697,-0.33514202,-0.32815695,-0.3203923,-0.31103736,-0.29472852,-0.2744906,-0.2542838,-0.23485667,-0.21695751,-0.19597119,-0.17342567,-0.15318775,-0.13142186,-0.10809684,-0.08165336,-0.053650796,-0.03032583,-0.009339452,0.010118842,0.027986884,0.040428996,0.040428996,0.027207375,0.0031026602,-0.028766572,-0.069211304,-0.116640985,-0.16952777,-0.22319418,-0.27218306,-0.3180536,-0.3592466,-0.3942654,-0.42067766,-0.43779725,-0.45023936,-0.46346104,-0.47668272,-0.48990446,-0.49922824,-0.50312614,-0.5046853,-0.5039058,-0.5039058,-0.501567,-0.5007874,-0.5046853,-0.50777245,-0.5093316,-0.5062444,-0.5007874,-0.4961099,-0.49455076,-0.49302274,-0.48990446,-0.4875657,-0.4875657,-0.48834527,-0.48912483,-0.485227,-0.48210865,-0.4813602,-0.48210865,-0.4836678,-0.4813602,-0.47746235,-0.47512358,-0.47278482,-0.47122568,-0.46966654,-0.46966654,-0.47278482,-0.47590315,-0.47746235,-0.47512358,-0.47278482,-0.47278482,-0.4704461,-0.46735895,-0.46346104,-0.45647597,-0.45647597,-0.45722437,-0.45878357,-0.45956314,-0.46346104,-0.4657998,-0.4657998,-0.46268147,-0.45491683,-0.45023936,-0.45023936,-0.45647597,-0.46346104,-0.46657938,-0.46657938,-0.46657938,-0.46502024,-0.46424067,-0.46346104,-0.46424067,-0.46891814,-0.48288822,-0.4961099,-0.49302274,-0.4805807,-0.4619019,-0.44325435,-0.43701768,-0.43779725,-0.44247472,-0.45023936,-0.45722437,-0.4619019,-0.45878357,-0.44868022,-0.44013596,-0.43389934,-0.43545854,-0.43857682,-0.4393564,-0.43701768,-0.42925304,-0.41992927,-0.40979463,-0.40203005,-0.39270627,-0.37558663,-0.3522616,-0.3250386,-0.3040523,-0.29628766,-0.3001544,-0.3125965,-0.32971615,-0.3522616,-0.38335127,-0.4175905,-0.4448135,-0.45878357,-0.46268147,-0.4619019,-0.46424067,-0.46891814,-0.4704461,-0.4704461,-0.47278482,-0.47590315,-0.47980106,-0.4813602,-0.4813602,-0.4836678,-0.48600656,-0.4875657,-0.48678613,-0.485227,-0.4914636,-0.51167035,-0.53733414,-0.5318771,-0.4494598,-0.26048928,0.024088979,0.35537982,0.6345322,0.7861763,0.75895333,0.5272306,0.11508167,-0.36626285,-0.7628514,-0.95646816,-0.91446435,-0.7169497,-0.5093316,-0.38958794,-0.37246835,-0.41057426,-0.45023936,-0.46657938,-0.4619019,-0.4494598,-0.43857682,-0.43237138,-0.4276939,-0.42301637,-0.41992927,-0.41681087,-0.41291302,-0.4074871,-0.40203005,-0.3981322,-0.39348584,-0.38880837,-0.3818233,-0.37246835,-0.36626285,-0.3592466,-0.35148203,-0.34215826,-0.333614,-0.32659775,-0.3180536,-0.30483192,-0.28849185,-0.27218306,-0.2597409,-0.24651921,-0.23095876,-0.20763367,-0.18352908,-0.1609835,-0.13996607,-0.116640985,-0.09253639,-0.068431675,-0.048224926,-0.032664478,-0.01710409,-0.0015748143,0.008559704,0.010118842,0.0007638931,-0.019442797,-0.048224926,-0.088638425,-0.13840693,-0.19051409,-0.24184173,-0.28615314,-0.32347947,-0.3608058,-0.39348584,-0.41992927,-0.44013596,-0.45722437,-0.47356445,-0.485227,-0.49302274,-0.49533033,-0.4961099,-0.49922824,-0.5023466,-0.501567,-0.49766904,-0.49533033,-0.49766904,-0.5039058,-0.5069929,-0.5039058,-0.5007874,-0.5007874,-0.50312614,-0.5062444,-0.5046853,-0.5000078,-0.49688947,-0.49533033,-0.49380237,-0.49302274,-0.49224323,-0.49380237,-0.49455076,-0.49302274,-0.48912483,-0.48444736,-0.4836678,-0.485227,-0.48600656,-0.4813602,-0.47512358,-0.46966654,-0.46735895,-0.46735895,-0.46657938,-0.46346104,-0.46346104,-0.46502024,-0.46424067,-0.46268147,-0.45956314,-0.46034276,-0.46268147,-0.46424067,-0.46112227,-0.45647597,-0.4556964,-0.45878357,-0.46268147,-0.4619019,-0.46034276,-0.46034276,-0.46112227,-0.4619019,-0.46034276,-0.45722437,-0.45647597,-0.458004,-0.45956314,-0.45722437,-0.4533577,-0.45257813,-0.45257813,-0.4533577,-0.45257813,-0.45257813,-0.4533577,-0.45413727,-0.45023936,-0.4393564,-0.42691427,-0.41681087,-0.4136926,-0.41681087,-0.41992927,-0.42301637,-0.42691427,-0.4261347,-0.41837007,-0.4004709,-0.37168878,-0.33903992,-0.3102578,-0.29161018,-0.28615314,-0.29161018,-0.30639106,-0.32192034,-0.33592153,-0.3522616,-0.37558663,-0.4074871,-0.44325435,-0.47122568,-0.48444736,-0.48600656,-0.48210865,-0.47824192,-0.4790215,-0.4813602,-0.48678613,-0.49302274,-0.49766904,-0.49922824,-0.49533033,-0.49068403,-0.48834527,-0.48834527,-0.48912483,-0.48912483,-0.49766904,-0.5225533,-0.55367416,-0.5489967,-0.45956314,-0.2597409,0.030325651,0.35460007,0.6142943,0.7480705,0.7084054,0.4743439,0.069211125,-0.39348584,-0.7620718,-0.93158394,-0.87561,-0.6796233,-0.48834527,-0.38646966,-0.3779254,-0.41992927,-0.46034276,-0.47746235,-0.4720053,-0.458004,-0.4479006,-0.44247472,-0.43857682,-0.4331197,-0.42691427,-0.423796,-0.42145717,-0.41992927,-0.41603136,-0.40979463,-0.40358925,-0.39657295,-0.38880837,-0.38026416,-0.3740275,-0.37016076,-0.36860162,-0.36626285,-0.35849822,-0.34758407,-0.3343624,-0.3203923,-0.30639106,-0.2908306,-0.27604973,-0.26204842,-0.24729878,-0.22939956,-0.20763367,-0.18352908,-0.160204,-0.13687891,-0.11352265,-0.087858856,-0.063005805,-0.04510665,-0.03110534,-0.020222366,-0.013237298,-0.012457728,-0.021001935,-0.041988254,-0.07232958,-0.111215115,-0.15708566,-0.20607454,-0.2542838,-0.29859525,-0.33748078,-0.37480712,-0.41057426,-0.44091558,-0.46112227,-0.46966654,-0.47512358,-0.4836678,-0.4961099,-0.5093316,-0.517907,-0.5217737,-0.5233329,-0.5209941,-0.51556826,-0.5085521,-0.50312614,-0.5039058,-0.5093316,-0.51400906,-0.51400906,-0.51167035,-0.5101112,-0.5101112,-0.51167035,-0.5108908,-0.5069929,-0.5039058,-0.501567,-0.49922824,-0.49844867,-0.4961099,-0.49533033,-0.49380237,-0.49455076,-0.49455076,-0.4961099,-0.49688947,-0.49380237,-0.48678613,-0.47824192,-0.46966654,-0.46735895,-0.46735895,-0.46735895,-0.4657998,-0.46424067,-0.46424067,-0.46424067,-0.46424067,-0.4619019,-0.46268147,-0.46502024,-0.46657938,-0.46346104,-0.45722437,-0.4517985,-0.45023936,-0.45257813,-0.45101893,-0.44712102,-0.44634145,-0.45023936,-0.4556964,-0.45878357,-0.4556964,-0.45101893,-0.45023936,-0.45257813,-0.45722437,-0.45878357,-0.45878357,-0.45956314,-0.46034276,-0.45956314,-0.4556964,-0.4533577,-0.45101893,-0.45257813,-0.45491683,-0.45491683,-0.45413727,-0.45413727,-0.45413727,-0.4533577,-0.44868022,-0.44247472,-0.43779725,-0.43389934,-0.4315918,-0.4315918,-0.4346789,-0.43779725,-0.43389934,-0.42535514,-0.40901512,-0.39348584,-0.3841309,-0.37480712,-0.36002624,-0.3382603,-0.3149352,-0.29781568,-0.2892714,-0.2908306,-0.3001544,-0.31727397,-0.34137863,-0.37168878,-0.40436882,-0.43081218,-0.45257813,-0.46735895,-0.4720053,-0.47122568,-0.4657998,-0.46346104,-0.46657938,-0.47122568,-0.47746235,-0.4805807,-0.4813602,-0.48288822,-0.48288822,-0.4790215,-0.47278482,-0.46966654,-0.47278482,-0.48912483,-0.5194349,-0.5420116,-0.517907,-0.40436882,-0.1772924,0.14152503,0.49221182,0.76827705,0.8942574,0.81570697,0.52411234,0.062194943,-0.43081218,-0.7939411,-0.9300248,-0.8336062,-0.61741275,-0.43081218,-0.35304117,-0.36860162,-0.4175905,-0.4533577,-0.46268147,-0.45647597,-0.4455619,-0.43545854,-0.42925304,-0.4261347,-0.423796,-0.41992927,-0.41213346,-0.40203005,-0.39348584,-0.38958794,-0.3880288,-0.38491046,-0.38104373,-0.3771459,-0.37480712,-0.367822,-0.35615945,-0.34059906,-0.32737738,-0.3203923,-0.31883317,-0.3149352,-0.3040523,-0.29161018,-0.27760887,-0.26360768,-0.24729878,-0.22163504,-0.19207323,-0.16251153,-0.13376057,-0.10887635,-0.08555126,-0.0637542,-0.04510665,-0.027207375,-0.010119021,0.003882289,0.019442677,0.029546022,0.033443928,0.027986884,0.011646867,-0.020222366,-0.06453383,-0.116640985,-0.1710869,-0.22319418,-0.27218306,-0.31571484,-0.3546003,-0.38958794,-0.41837007,-0.44169515,-0.46034276,-0.47278482,-0.4805807,-0.48600656,-0.4914636,-0.5000078,-0.5054649,-0.50777245,-0.5054649,-0.501567,-0.5007874,-0.49766904,-0.49688947,-0.49455076,-0.49455076,-0.49766904,-0.5007874,-0.5000078,-0.49455076,-0.4875657,-0.485227,-0.4875657,-0.48834527,-0.48912483,-0.48678613,-0.485227,-0.48210865,-0.47824192,-0.47434402,-0.4720053,-0.47434402,-0.4813602,-0.4836678,-0.48210865,-0.47668272,-0.46966654,-0.4657998,-0.4619019,-0.45878357,-0.45722437,-0.45956314,-0.46268147,-0.46502024,-0.46502024,-0.4619019,-0.46034276,-0.45956314,-0.458004,-0.4556964,-0.45257813,-0.45023936,-0.4479006,-0.44634145,-0.44403392,-0.44634145,-0.45101893,-0.4533577,-0.4517985,-0.4448135,-0.43701768,-0.4346789,-0.43701768,-0.44247472,-0.4479006,-0.45257813,-0.45647597,-0.45413727,-0.4479006,-0.44013596,-0.43545854,-0.43779725,-0.4448135,-0.4479006,-0.44634145,-0.44091558,-0.4346789,-0.43389934,-0.4346789,-0.43237138,-0.4331197,-0.43389934,-0.4346789,-0.43545854,-0.43237138,-0.42925304,-0.4284734,-0.4284734,-0.4284734,-0.42535514,-0.41837007,-0.41213346,-0.40979463,-0.4113539,-0.4113539,-0.4082355,-0.4004709,-0.39036757,-0.37636626,-0.36548334,-0.35615945,-0.34758407,-0.3382603,-0.32347947,-0.30093396,-0.28150684,-0.26906466,-0.27218306,-0.2892714,-0.3141557,-0.34293777,-0.3771459,-0.40592796,-0.4276939,-0.43779725,-0.4393564,-0.44091558,-0.44403392,-0.45101893,-0.45956314,-0.46502024,-0.46735895,-0.46424067,-0.458004,-0.4517985,-0.4494598,-0.4494598,-0.45023936,-0.4494598,-0.4479006,-0.45491683,-0.4790215,-0.5132295,-0.51868653,-0.4448135,-0.25740218,0.03731072,0.38958776,0.69986105,0.88259494,0.87557864,0.6485336,0.22238326,-0.28849185,-0.7130829,-0.92768604,-0.8997147,-0.70297956,-0.48834527,-0.36392415,-0.3437174,-0.38260287,-0.4276939,-0.44868022,-0.44634145,-0.43389934,-0.4222368,-0.41603136,-0.41057426,-0.40436882,-0.39969134,-0.3981322,-0.39657295,-0.3942654,-0.38724917,-0.38026416,-0.37480712,-0.36860162,-0.36314458,-0.35537994,-0.3483637,-0.34215826,-0.33514202,-0.32815695,-0.31727397,-0.3079502,-0.29937482,-0.2908306,-0.28150684,-0.27062386,-0.25740218,-0.24340087,-0.22319418,-0.19597119,-0.1648503,-0.13376057,-0.10965598,-0.09253639,-0.07466835,-0.054430425,-0.03110534,-0.010119021,0.0077801943,0.022561073,0.03188479,0.03653109,0.026427746,0.0070005655,-0.021001935,-0.055209935,-0.09487504,-0.14542311,-0.20061749,-0.25584304,-0.30327266,-0.33903992,-0.37016076,-0.39504504,-0.4175905,-0.43779725,-0.45491683,-0.46891814,-0.47980106,-0.48678613,-0.48834527,-0.4914636,-0.49688947,-0.50312614,-0.5054649,-0.5046853,-0.5007874,-0.49922824,-0.49844867,-0.49688947,-0.49533033,-0.49068403,-0.49068403,-0.4914636,-0.49302274,-0.49224323,-0.49380237,-0.49533033,-0.49533033,-0.49224323,-0.48444736,-0.47824192,-0.47746235,-0.4790215,-0.4805807,-0.47746235,-0.47356445,-0.46891814,-0.46735895,-0.4657998,-0.46346104,-0.46112227,-0.45878357,-0.45647597,-0.4533577,-0.45101893,-0.45023936,-0.4517985,-0.45491683,-0.4533577,-0.4479006,-0.4455619,-0.4494598,-0.4556964,-0.46112227,-0.45722437,-0.44634145,-0.4393564,-0.43623805,-0.43857682,-0.4393564,-0.4393564,-0.43779725,-0.43623805,-0.43701768,-0.43701768,-0.43857682,-0.44247472,-0.44403392,-0.44247472,-0.43779725,-0.4331197,-0.4315918,-0.43237138,-0.43389934,-0.4346789,-0.43779725,-0.4448135,-0.44868022,-0.44634145,-0.4393564,-0.4315918,-0.4284734,-0.4315918,-0.4331197,-0.43081218,-0.4276939,-0.42457557,-0.41992927,-0.41057426,-0.3989117,-0.39114708,-0.3919267,-0.3981322,-0.40592796,-0.41057426,-0.4082355,-0.40203005,-0.3880288,-0.36236495,-0.32815695,-0.29628766,-0.27760887,-0.27293146,-0.2807272,-0.2892714,-0.29781568,-0.30947816,-0.32659775,-0.35304117,-0.38491046,-0.4175905,-0.44325435,-0.45722437,-0.4619019,-0.458004,-0.45491683,-0.45956314,-0.46657938,-0.47122568,-0.4720053,-0.4704461,-0.46966654,-0.47278482,-0.47356445,-0.46966654,-0.46346104,-0.45878357,-0.45647597,-0.46268147,-0.4813602,-0.50777245,-0.5062444,-0.42925304,-0.24340087,0.040428996,0.36314452,0.62829554,0.76437926,0.7270529,0.4984486,0.09796202,-0.36938125,-0.75271684,-0.9347023,-0.88259506,-0.6835213,-0.48288822,-0.37246835,-0.3608058,-0.39657295,-0.4346789,-0.4556964,-0.45878357,-0.45023936,-0.43545854,-0.4222368,-0.4136926,-0.4113539,-0.41057426,-0.40592796,-0.39969134,-0.39348584,-0.38958794,-0.38724917,-0.3818233,-0.37636626,-0.37168878,-0.36548334,-0.35693908,-0.34758407,-0.33903992,-0.333614,-0.32815695,-0.32117188,-0.30872977,-0.29472852,-0.2807272,-0.26750553,-0.25194514,-0.2340771,-0.21383917,-0.19519156,-0.1772924,-0.15708566,-0.13376057,-0.110435486,-0.088638425,-0.068431675,-0.049784124,-0.03032583,-0.011678159,0.0031026602,0.013206005,0.016324282,0.009339333,-0.01089865,-0.04432702,-0.088638425,-0.13609934,-0.18430865,-0.23251796,-0.27994764,-0.32425898,-0.36236495,-0.39114708,-0.4136926,-0.4331197,-0.4533577,-0.47278482,-0.48600656,-0.4914636,-0.49380237,-0.49302274,-0.49455076,-0.49766904,-0.501567,-0.5069929,-0.5093316,-0.5085521,-0.5054649,-0.5023466,-0.5023466,-0.5046853,-0.5039058,-0.5007874,-0.49766904,-0.4961099,-0.4961099,-0.49455076,-0.48990446,-0.48600656,-0.48600656,-0.4875657,-0.48834527,-0.48678613,-0.48444736,-0.48600656,-0.48678613,-0.485227,-0.47980106,-0.47434402,-0.4720053,-0.47356445,-0.47434402,-0.47278482,-0.4704461,-0.4704461,-0.4720053,-0.47278482,-0.46735895,-0.458004,-0.45101893,-0.4479006,-0.4494598,-0.4517985,-0.45491683,-0.45878357,-0.46268147,-0.4619019,-0.45878357,-0.45413727,-0.45413727,-0.45413727,-0.45491683,-0.45257813,-0.44868022,-0.44868022,-0.45023936,-0.45101893,-0.45023936,-0.45023936,-0.4517985,-0.45491683,-0.45647597,-0.4556964,-0.45491683,-0.45647597,-0.45878357,-0.46034276,-0.45878357,-0.458004,-0.45956314,-0.45956314,-0.45956314,-0.45257813,-0.44403392,-0.43779725,-0.43389934,-0.4315918,-0.42691427,-0.42067766,-0.4175905,-0.41603136,-0.41447216,-0.41447216,-0.41525173,-0.4136926,-0.40979463,-0.39579344,-0.3709404,-0.3398195,-0.3102578,-0.29005104,-0.28228635,-0.2846251,-0.2939489,-0.3102578,-0.33049572,-0.3522616,-0.37948453,-0.41057426,-0.44325435,-0.46966654,-0.48444736,-0.48600656,-0.4813602,-0.4805807,-0.485227,-0.4914636,-0.49688947,-0.49922824,-0.49844867,-0.49844867,-0.49688947,-0.49455076,-0.49455076,-0.49844867,-0.5000078,-0.5023466,-0.5085521,-0.5318771,-0.56299794,-0.55598176,-0.4619019,-0.24651921,0.06765199,0.41755927,0.69908166,0.83669305,0.78305805,0.5186553,0.075416565,-0.41914964,-0.79861856,-0.95802736,-0.8810359,-0.67185867,-0.47824192,-0.38569003,-0.38569003,-0.4276939,-0.46657938,-0.48288822,-0.47824192,-0.46424067,-0.4494598,-0.44169515,-0.43779725,-0.43701768,-0.4315918,-0.42301637,-0.41603136,-0.41213346,-0.4113539,-0.4051484,-0.3981322,-0.39036757,-0.3818233,-0.3740275,-0.3647037,-0.3577187,-0.3522616,-0.34992284,-0.34527653,-0.33514202,-0.32269984,-0.3102578,-0.29550815,-0.27760887,-0.25740218,-0.2402826,-0.22784042,-0.21851665,-0.20217663,-0.17495364,-0.1430844,-0.11508185,-0.09097719,-0.069211304,-0.04510665,-0.023340702,-0.0070007443,0.003882289,0.012426376,0.01710391,0.013206005,-0.0031027794,-0.035782874,-0.07853502,-0.12674439,-0.17651278,-0.22628129,-0.27371097,-0.3180536,-0.3522616,-0.38335127,-0.4113539,-0.43779725,-0.46112227,-0.47824192,-0.49068403,-0.49844867,-0.50312614,-0.50777245,-0.5101112,-0.51400906,-0.5217737,-0.52411246,-0.5225533,-0.5163478,-0.5101112,-0.5093316,-0.51167035,-0.51400906,-0.5132295,-0.51400906,-0.51556826,-0.5163478,-0.5147887,-0.5054649,-0.49533033,-0.49068403,-0.4914636,-0.49302274,-0.49068403,-0.4875657,-0.4836678,-0.4836678,-0.485227,-0.48288822,-0.4790215,-0.47746235,-0.47824192,-0.4790215,-0.4790215,-0.47824192,-0.47824192,-0.4790215,-0.47590315,-0.4704461,-0.4657998,-0.46424067,-0.46657938,-0.46966654,-0.46657938,-0.4619019,-0.46112227,-0.4619019,-0.46424067,-0.46502024,-0.46346104,-0.4619019,-0.46112227,-0.46268147,-0.46424067,-0.46657938,-0.4720053,-0.47356445,-0.47278482,-0.46891814,-0.46502024,-0.4657998,-0.46891814,-0.47122568,-0.47122568,-0.4720053,-0.4704461,-0.46966654,-0.4657998,-0.45956314,-0.45491683,-0.45722437,-0.4619019,-0.46424067,-0.46346104,-0.46034276,-0.4556964,-0.45257813,-0.45101893,-0.4494598,-0.4517985,-0.45491683,-0.458004,-0.45647597,-0.4479006,-0.43701768,-0.43003255,-0.4276939,-0.4331197,-0.4393564,-0.44013596,-0.43701768,-0.42925304,-0.4175905,-0.4051484,-0.39348584,-0.3818233,-0.36158538,-0.33592153,-0.30872977,-0.29005104,-0.28615314,-0.29937482,-0.31961274,-0.34059906,-0.36626285,-0.39969134,-0.4346789,-0.46268147,-0.47824192,-0.48210865,-0.4805807,-0.4790215,-0.47980106,-0.48210865,-0.48444736,-0.48912483,-0.49224323,-0.4914636,-0.48912483,-0.49068403,-0.4961099,-0.5000078,-0.5007874,-0.49766904,-0.49844867,-0.5171274,-0.5505558,-0.56842387,-0.517907,-0.3546003,-0.07853502,0.2760496,0.61276627,0.83591366,0.8779175,0.69596326,0.30635977,-0.20217663,-0.6601962,-0.92846566,-0.9502315,-0.7768527,-0.5544538,-0.40670753,-0.3709404,-0.40901512,-0.458004,-0.485227,-0.4836678,-0.46891814,-0.45491683,-0.44634145,-0.44013596,-0.4315918,-0.42301637,-0.4175905,-0.41525173,-0.4136926,-0.40979463,-0.40592796,-0.40280962,-0.39735258,-0.39114708,-0.38104373,-0.37016076,-0.36314458,-0.35849822,-0.3546003,-0.34605616,-0.3343624,-0.32192034,-0.31181693,-0.3001544,-0.2853735,-0.26906466,-0.25194514,-0.23173833,-0.2115004,-0.18586779,-0.160204,-0.1376273,-0.115861356,-0.0933159,-0.06531334,-0.035782874,-0.01710409,-0.0031027794,0.003882289,0.012426376,0.019442677,0.01710391,0.0031026602,-0.023340702,-0.05832833,-0.097213805,-0.1430844,-0.19597119,-0.24729878,-0.29238975,-0.333614,-0.3709404,-0.40436882,-0.43545854,-0.45647597,-0.47278482,-0.485227,-0.4961099,-0.5046853,-0.5101112,-0.51400906,-0.5194349,-0.5233329,-0.5233329,-0.52021456,-0.51556826,-0.51400906,-0.51556826,-0.5171274,-0.51556826,-0.5124499,-0.5132295,-0.51400906,-0.5132295,-0.5101112,-0.5046853,-0.5023466,-0.5046853,-0.5093316,-0.5108908,-0.5093316,-0.5062444,-0.49766904,-0.48990446,-0.4813602,-0.47746235,-0.47980106,-0.48600656,-0.48990446,-0.48912483,-0.4875657,-0.485227,-0.48444736,-0.4836678,-0.47824192,-0.47512358,-0.47590315,-0.47824192,-0.47980106,-0.47824192,-0.47434402,-0.47356445,-0.47356445,-0.47512358,-0.47122568,-0.46966654,-0.4704461,-0.47356445,-0.47746235,-0.4790215,-0.47824192,-0.47512358,-0.47122568,-0.46657938,-0.46502024,-0.46735895,-0.47512358,-0.48210865,-0.48210865,-0.47512358,-0.46891814,-0.46735895,-0.46735895,-0.46657938,-0.46268147,-0.45722437,-0.45491683,-0.45956314,-0.46268147,-0.4619019,-0.46034276,-0.4556964,-0.4479006,-0.44091558,-0.4331197,-0.4276939,-0.4284734,-0.4315918,-0.4331197,-0.42691427,-0.42145717,-0.41837007,-0.41837007,-0.41525173,-0.40203005,-0.3771459,-0.34527653,-0.31649446,-0.29859525,-0.29316938,-0.30171353,-0.3141557,-0.32971615,-0.34605616,-0.3608058,-0.38104373,-0.41213346,-0.44403392,-0.47512358,-0.4914636,-0.49533033,-0.49380237,-0.48990446,-0.48912483,-0.48678613,-0.4875657,-0.49068403,-0.49688947,-0.50312614,-0.50312614,-0.501567,-0.50312614,-0.5054649,-0.5085521,-0.5101112,-0.51556826,-0.5365546,-0.5622184,-0.55598176,-0.4657998,-0.26204842,0.035751462,0.374807,0.6539594,0.80092597,0.7581738,0.50543356,0.07385743,-0.41681087,-0.80638325,-0.9805728,-0.92148054,-0.7161701,-0.51167035,-0.39969134,-0.38491046,-0.42145717,-0.46034276,-0.47668272,-0.4720053,-0.45956314,-0.44868022,-0.44091558,-0.43623805,-0.43081218,-0.4261347,-0.423796,-0.42457557,-0.42457557,-0.41681087,-0.40670753,-0.39657295,-0.38880837,-0.38646966,-0.3841309,-0.38104373,-0.37558663,-0.367822,-0.35693908,-0.3437174,-0.33283442,-0.32581824,-0.31649446,-0.30327266,-0.2838456,-0.26282805,-0.24573964,-0.23173833,-0.21617794,-0.19519156,-0.17186654,-0.14698231,-0.12131846,-0.09799343,-0.07388872,-0.05131209,-0.033444107,-0.01710409,-0.0046619177,0.0015435219,-1.5616417e-05,-0.013237298,-0.035003245,-0.06453383,-0.10108054,-0.1430844,-0.19207323,-0.24340087,-0.29161018,-0.33514202,-0.3740275,-0.40901512,-0.43623805,-0.45647597,-0.46735895,-0.47590315,-0.48600656,-0.49766904,-0.5069929,-0.5093316,-0.5108908,-0.51400906,-0.5163478,-0.5171274,-0.5124499,-0.5085521,-0.50777245,-0.5124499,-0.5171274,-0.5163478,-0.51400906,-0.5108908,-0.5093316,-0.5093316,-0.5093316,-0.5093316,-0.5101112,-0.50777245,-0.5023466,-0.49844867,-0.49844867,-0.5007874,-0.5023466,-0.49844867,-0.49455076,-0.49302274,-0.49533033,-0.49533033,-0.48990446,-0.48210865,-0.47668272,-0.47668272,-0.47824192,-0.47746235,-0.4720053,-0.46735895,-0.4657998,-0.4657998,-0.46346104,-0.46112227,-0.46034276,-0.4619019,-0.4657998,-0.46502024,-0.46112227,-0.45722437,-0.45647597,-0.4556964,-0.4556964,-0.4533577,-0.4556964,-0.46112227,-0.46813852,-0.47356445,-0.46966654,-0.46657938,-0.46346104,-0.4619019,-0.46268147,-0.46112227,-0.4619019,-0.46657938,-0.4720053,-0.47434402,-0.47122568,-0.46502024,-0.45722437,-0.45023936,-0.44247472,-0.43389934,-0.4284734,-0.42691427,-0.4261347,-0.42145717,-0.41603136,-0.4175905,-0.41914964,-0.41837007,-0.4082355,-0.38335127,-0.3522616,-0.32425898,-0.30327266,-0.2908306,-0.2892714,-0.29706728,-0.31337607,-0.33205485,-0.35070246,-0.37016076,-0.39579344,-0.4276939,-0.45878357,-0.47980106,-0.48600656,-0.48600656,-0.48288822,-0.48288822,-0.48288822,-0.4813602,-0.4805807,-0.4836678,-0.4914636,-0.49844867,-0.49922824,-0.49922824,-0.5007874,-0.50312614,-0.50312614,-0.5007874,-0.5108908,-0.53733414,-0.56299794,-0.53889334,-0.4136926,-0.17495364,0.1446433,0.46424055,0.6889471,0.75973296,0.64073765,0.33124387,-0.11975932,-0.56842387,-0.8724917,-0.95257026,-0.82658994,-0.61042774,-0.4448135,-0.38260287,-0.40280962,-0.45101893,-0.48444736,-0.49068403,-0.47668272,-0.46112227,-0.4533577,-0.45023936,-0.44868022,-0.44403392,-0.43779725,-0.43389934,-0.43237138,-0.43003255,-0.41992927,-0.40592796,-0.3919267,-0.3818233,-0.37636626,-0.37324792,-0.37246835,-0.37168878,-0.37016076,-0.36548334,-0.3538208,-0.33903992,-0.32659775,-0.3149352,-0.30327266,