-0.82522416,-0.8222044,-0.82100266,-0.8203864,-0.81795216,-0.8107109,-0.8022371,-0.7955813,-0.7913598,-0.7895418,-0.7859058,-0.7822697,-0.77924997,-0.7768465,-0.7756448,-0.7725942,-0.7701907,-0.770807,-0.7725942,-0.77502847,-0.7744122,-0.7744122,-0.7762302,-0.7786645,-0.78106797,-0.7786645,-0.7762302,-0.7756448,-0.77743196,-0.78048253,-0.7798663,-0.77743196,-0.77502847,-0.77321047,-0.77139246,-0.76898897,-0.76898897,-0.77139246,-0.77502847,-0.7762302,-0.7725942,-0.76957446,-0.76957446,-0.770807,-0.7725942,-0.76957446,-0.7665547,-0.7647367,-0.76717097,-0.76957446,-0.7683727,-0.7665547,-0.7647367,-0.7647367,-0.7665547,-0.76535296,-0.7629187,-0.7605152,-0.75931346,-0.75687915,-0.75142515,-0.7465874,-0.74480015,-0.7465874,-0.7520414,-0.7544757,-0.7526577,-0.74902165,-0.74480015,-0.7423659,-0.7405479,-0.73934615,-0.7375281,-0.73512465,-0.73330665,-0.72905433,-0.7254491,-0.72301483,-0.7242166,-0.72665083,-0.72723633,-0.72665083,-0.7254491,-0.72483283,-0.72363114,-0.71937877,-0.71090496,-0.69944227,-0.68853414,-0.67947495,-0.67281914,-0.66677964,-0.6607094,-0.64801407,-0.62927926,-0.60749394,-0.5917789,-0.5893446,-0.5947986,-0.6002527,-0.59905094,-0.59905094,-0.6081102,-0.63229907,-0.6661633,-0.6982097,-0.7199951,-0.7314886,-0.73269033,-0.7284689,-0.71937877,-0.7133393,-0.71152127,-0.71090496,-0.70970327,-0.7048655,-0.69944227,-0.7000277,-0.712723,-0.73632634,-0.76353496,-0.7822697,-0.75869715,-0.6371368,-0.38190615,0.0027115345,0.42242634,0.7429513,0.82158816,0.61596763,0.20894837,-0.25674057,-0.6201892,-0.8034388,-0.8258404,-0.7562937,-0.67645514,-0.63168275,-0.62502694,-0.6407728,-0.6576896,-0.66677964,-0.66918314,-0.6685977,-0.6685977,-0.66677964,-0.66496164,-0.6601238,-0.6522664,-0.6444088,-0.6347333,-0.62625957,-0.6201892,-0.61535144,-0.61294794,-0.60749394,-0.6002527,-0.5917789,-0.5827196,-0.57304406,-0.5627523,-0.55125874,-0.5385635,-0.52768624,-0.5167781,-0.5046991,-0.4932056,-0.4823283,-0.47203648,-0.46294641,-0.45206916,-0.43875754,-0.42242628,-0.40489322,-0.38856196,-0.3704434,-0.3522941,-0.3323267,-0.3111577,-0.2887869,-0.26157826,-0.23375338,-0.20472687,-0.17751825,-0.15209693,-0.12790811,-0.10313374,-0.07771242,-0.0535236,-0.029334784,-0.0051459074,0.013588786,0.024496913,0.02690041,0.016639471,-0.006347716,-0.0456661,-0.10190123,-0.17206419,-0.2494685,-0.32748896,-0.40430778,-0.47749054,-0.544603,-0.60509044,-0.6546699,-0.6921702,-0.7260345,-0.75506115,-0.7786645,-0.7973993,-0.80950916,-0.8167504,-0.8227899,-0.82704216,-0.82886016,-0.8306782,-0.83126366,-0.83126366,-0.82886016,-0.82340616,-0.81795216,-0.81493235,-0.81493235,-0.8161649,-0.81554866,-0.8119126,-0.8076911,-0.8058731,-0.80525684,-0.8016516,-0.7980156,-0.79317784,-0.7877238,-0.7835023,-0.77743196,-0.7720088,-0.7683727,-0.76775646,-0.76898897,-0.7683727,-0.7683727,-0.76775646,-0.76775646,-0.7659693,-0.7611315,-0.75749546,-0.75567746,-0.75931346,-0.7659693,-0.7683727,-0.7665547,-0.7629187,-0.7598989,-0.75869715,-0.75869715,-0.75931346,-0.75931346,-0.7598989,-0.7605152,-0.75931346,-0.75749546,-0.7562937,-0.7562937,-0.75567746,-0.7520414,-0.7478199,-0.7441839,-0.7435676,-0.74480015,-0.74480015,-0.74298215,-0.74116415,-0.7405479,-0.7399624,-0.73632634,-0.73087233,-0.7260345,-0.7254491,-0.72665083,-0.72483283,-0.7218131,-0.71697533,-0.7139555,-0.714541,-0.7151573,-0.7139555,-0.712723,-0.7121375,-0.7133393,-0.71152127,-0.70911777,-0.7060672,-0.7060672,-0.7085015,-0.70970327,-0.70911777,-0.70729977,-0.7060672,-0.70729977,-0.7066835,-0.7048655,-0.7000277,-0.6963917,-0.6939882,-0.69278646,-0.6963917,-0.70122945,-0.7048655,-0.7060672,-0.70184577,-0.6963917,-0.69337195,-0.6939882,-0.69580626,-0.69580626,-0.69337195,-0.68976676,-0.68551445,-0.67885864,-0.6685977,-0.6576896,-0.6486303,-0.64379257,-0.6395711,-0.634117,-0.61960375,-0.5966166,-0.57362956,-0.55369306,-0.5409669,-0.5361292,-0.5349274,-0.5367454,-0.5439867,-0.55973256,-0.58755744,-0.6226235,-0.6583059,-0.68551445,-0.6982097,-0.69580626,-0.68551445,-0.67583895,-0.6703849,-0.66979945,-0.6716174,-0.6722028,-0.67343545,-0.6740209,-0.67525345,-0.68492895,-0.70548177,-0.73571014,-0.7611315,-0.74116415,-0.61716944,-0.34927434,0.05290723,0.49320555,0.8324654,0.92016137,0.7085016,0.27911127,-0.21498781,-0.6026561,-0.79921734,-0.8246079,-0.75506115,-0.6722028,-0.6201892,-0.60690844,-0.6177857,-0.637753,-0.6528518,-0.6583059,-0.65710413,-0.65346813,-0.6516501,-0.6510338,-0.64742863,-0.6401565,-0.6310973,-0.6226235,-0.61535144,-0.60690844,-0.59905094,-0.5917789,-0.58755744,-0.5857394,-0.58148706,-0.5748313,-0.56515574,-0.55548024,-0.54521924,-0.5337257,-0.5210304,-0.5089206,-0.49924505,-0.49138755,-0.48171198,-0.46840048,-0.45206916,-0.4363541,-0.4200228,-0.40307522,-0.38495672,-0.3668074,-0.3504761,-0.33352852,-0.3129757,-0.28940314,-0.26339626,-0.23920745,-0.21622038,-0.19203156,-0.1672265,-0.14001787,-0.1128093,-0.08618617,-0.058977664,-0.031769037,-0.0069639683,0.0118016,0.02690041,0.039010286,0.046251535,0.04566598,0.02992022,-0.0021261573,-0.04868579,-0.1091733,-0.17872,-0.2561242,-0.33596277,-0.41456872,-0.48775154,-0.5542785,-0.61356425,-0.6625273,-0.700644,-0.7302869,-0.7544757,-0.7762302,-0.7943796,-0.8058731,-0.8125289,-0.8167504,-0.8222044,-0.8282439,-0.83126366,-0.83188,-0.8306782,-0.82886016,-0.8258404,-0.81977016,-0.8119126,-0.8058731,-0.8034388,-0.80285335,-0.8004191,-0.7955813,-0.7901581,-0.78710747,-0.7853203,-0.782886,-0.77743196,-0.77321047,-0.7701907,-0.7683727,-0.7659693,-0.7623332,-0.75931346,-0.7598989,-0.76171696,-0.76171696,-0.7605152,-0.75931346,-0.75931346,-0.75931346,-0.75869715,-0.75687915,-0.75567746,-0.75567746,-0.75506115,-0.75324315,-0.7508397,-0.7502234,-0.7520414,-0.75506115,-0.7562937,-0.75687915,-0.75749546,-0.75931346,-0.7611315,-0.7598989,-0.75567746,-0.7502234,-0.7478199,-0.7478199,-0.7478199,-0.74840534,-0.74840534,-0.7502234,-0.7520414,-0.75142515,-0.7478199,-0.7435676,-0.7417496,-0.7405479,-0.7399624,-0.73872983,-0.7375281,-0.73872983,-0.73934615,-0.7375281,-0.73330665,-0.7296706,-0.7296706,-0.73269033,-0.73450834,-0.73330665,-0.7296706,-0.72723633,-0.7254491,-0.72483283,-0.7242166,-0.72363114,-0.72483283,-0.72665083,-0.72665083,-0.72363114,-0.7199951,-0.71756077,-0.71697533,-0.71697533,-0.7157736,-0.714541,-0.7139555,-0.7133393,-0.71090496,-0.70788527,-0.70548177,-0.70548177,-0.7060672,-0.7066835,-0.70428,-0.70122945,-0.69882596,-0.6939882,-0.68551445,-0.6740209,-0.6613256,-0.6528518,-0.6492466,-0.64742863,-0.64499426,-0.637753,-0.6208055,-0.5966166,-0.57304406,-0.5560965,-0.5506425,-0.551875,-0.55369306,-0.5567128,-0.5645703,-0.5851231,-0.6201892,-0.6601238,-0.6921702,-0.71090496,-0.714541,-0.70911777,-0.700644,-0.69337195,-0.68853414,-0.6861307,-0.6843127,-0.68249464,-0.67947495,-0.6776569,-0.68187845,-0.6982097,-0.7260345,-0.75567746,-0.7623332,-0.6909685,-0.49379104,-0.14423937,0.30570364,0.7272363,0.96370125,0.8941544,0.5506425,0.0553416,-0.40973103,-0.70788527,-0.81373066,-0.7816843,-0.69882596,-0.630481,-0.6020707,-0.60749394,-0.62746125,-0.646196,-0.6552861,-0.65710413,-0.6552861,-0.6510338,-0.64742863,-0.64197457,-0.63531876,-0.628663,-0.6208055,-0.61112994,-0.6008381,-0.5911626,-0.5833051,-0.5760639,-0.5682063,-0.55911624,-0.551875,-0.54703724,-0.5427849,-0.5361292,-0.52525187,-0.51317286,-0.5010631,-0.48895323,-0.47625798,-0.46115923,-0.44602966,-0.4327181,-0.4200228,-0.40791303,-0.39281422,-0.37706834,-0.3607679,-0.34200227,-0.32144946,-0.29726064,-0.27365732,-0.2512865,-0.22891569,-0.20592856,-0.17933625,-0.15027893,-0.12248486,-0.09524542,-0.068036914,-0.040212035,-0.01180166,0.014205217,0.038393974,0.060179353,0.07891405,0.09102392,0.09342742,0.08375192,0.0577451,0.017224908,-0.039010286,-0.11037499,-0.19141531,-0.27547532,-0.3565156,-0.43333435,-0.5046991,-0.56940806,-0.6244415,-0.6685977,-0.702462,-0.7302869,-0.7538594,-0.7738268,-0.7877238,-0.79681385,-0.80285335,-0.8064894,-0.8076911,-0.8058731,-0.80285335,-0.8022371,-0.8022371,-0.80285335,-0.80103534,-0.7955813,-0.7919453,-0.7883401,-0.7859058,-0.7835023,-0.7816843,-0.78106797,-0.78048253,-0.7786645,-0.77321047,-0.76775646,-0.76535296,-0.7659693,-0.76775646,-0.7665547,-0.76353496,-0.7623332,-0.76171696,-0.76171696,-0.7598989,-0.75808096,-0.75749546,-0.75808096,-0.75931346,-0.7598989,-0.75931346,-0.75931346,-0.75869715,-0.7562937,-0.7526577,-0.74902165,-0.74840534,-0.74902165,-0.7502234,-0.74902165,-0.7465874,-0.74480015,-0.7435676,-0.7417496,-0.7399624,-0.7381444,-0.73691183,-0.73571014,-0.73512465,-0.73330665,-0.7320741,-0.73269033,-0.73330665,-0.73330665,-0.7296706,-0.72665083,-0.7242166,-0.7199951,-0.716359,-0.7139555,-0.7133393,-0.7157736,-0.71937877,-0.7211968,-0.71879333,-0.71697533,-0.7181771,-0.7211968,-0.7260345,-0.7278526,-0.7254491,-0.7218131,-0.71879333,-0.7139555,-0.7066835,-0.6982097,-0.6909685,-0.6867162,-0.6861307,-0.6861307,-0.68187845,-0.6703849,-0.6516501,-0.62502694,-0.5966166,-0.57544756,-0.563954,-0.55729824,-0.5585308,-0.5669738,-0.5869411,-0.6226235,-0.66554713,-0.7060672,-0.7314886,-0.7405479,-0.7399624,-0.73512465,-0.73087233,-0.7278526,-0.72723633,-0.72723633,-0.72723633,-0.7260345,-0.72301483,-0.71879333,-0.7181771,-0.7211968,-0.7296706,-0.74480015,-0.76535296,-0.784704,-0.7683727,-0.6552861,-0.40248978,-0.011185408,0.4272641,0.775614,0.8832773,0.6903522,0.27183926,-0.22469419,-0.62323976,-0.82886016,-0.8524327,-0.77502847,-0.68492895,-0.63168275,-0.6208055,-0.63229907,-0.6510338,-0.6661633,-0.6740209,-0.67343545,-0.6661633,-0.6583059,-0.65346813,-0.6504483,-0.64742863,-0.6407728,-0.63168275,-0.6244415,-0.61960375,-0.616584,-0.60931194,-0.59905094,-0.58755744,-0.5772656,-0.5682063,-0.5579145,-0.54703724,-0.5367454,-0.52768624,-0.5197978,-0.50953686,-0.49924505,-0.48895323,-0.47807604,-0.46599704,-0.4484331,-0.4284966,-0.40852928,-0.39037997,-0.37404865,-0.35469753,-0.3323267,-0.3093397,-0.2869689,-0.26521432,-0.24222726,-0.21862382,-0.192617,-0.16420668,-0.13394755,-0.10131574,-0.069854915,-0.042030036,-0.016023219,0.009367347,0.035990477,0.05956304,0.07651067,0.08375192,0.0813483,0.071056604,0.04566598,0.0027115345,-0.058361292,-0.13518012,-0.21924013,-0.30573446,-0.39099622,-0.47142023,-0.54340124,-0.60327244,-0.6540843,-0.69882596,-0.7381444,-0.7720088,-0.7973993,-0.8167504,-0.8306782,-0.8409392,-0.8487967,-0.851231,-0.8524327,-0.85304904,-0.85486704,-0.8554525,-0.8536345,-0.849413,-0.845777,-0.8433735,-0.8415555,-0.8367177,-0.8300619,-0.82340616,-0.81795216,-0.81554866,-0.8119126,-0.80950916,-0.80950916,-0.8100946,-0.8107109,-0.8076911,-0.80285335,-0.79860103,-0.7973993,-0.7973993,-0.7961976,-0.79499584,-0.79317784,-0.7919453,-0.7919453,-0.7895418,-0.78710747,-0.7853203,-0.7853203,-0.78710747,-0.7877238,-0.78710747,-0.78652203,-0.78652203,-0.78652203,-0.784704,-0.7822697,-0.78106797,-0.78048253,-0.78048253,-0.77743196,-0.7725942,-0.7665547,-0.7598989,-0.75324315,-0.74720365,-0.7435676,-0.7441839,-0.74480015,-0.7417496,-0.72723633,-0.70428,-0.6812929,-0.6601238,-0.64135826,-0.62142175,-0.6026561,-0.5923952,-0.6002527,-0.626845,-0.6673651,-0.7133393,-0.7544757,-0.7835023,-0.7955813,-0.7901581,-0.7768465,-0.76535296,-0.76171696,-0.76353496,-0.7641512,-0.7629187,-0.7598989,-0.75749546,-0.75749546,-0.75567746,-0.7544757,-0.7562937,-0.76171696,-0.7738268,-0.7937633,-0.81493235,-0.8246079,-0.77502847,-0.6081102,-0.28998858,0.1442393,0.5742458,0.8463932,0.82460785,0.5107386,0.018426657,-0.47385448,-0.8076911,-0.931655,-0.89175117,-0.784704,-0.69278646,-0.6492466,-0.6456106,-0.6589221,-0.67281914,-0.6806767,-0.68492895,-0.68492895,-0.6812929,-0.6746372,-0.66677964,-0.6613256,-0.65710413,-0.6510338,-0.6444088,-0.6371368,-0.62927926,-0.6208055,-0.60992825,-0.5978184,-0.5845068,-0.57362956,-0.56515574,-0.5567128,-0.5488553,-0.5415832,-0.5337257,-0.5246357,-0.51194036,-0.49742705,-0.4823283,-0.46901673,-0.45632142,-0.43999016,-0.4218408,-0.40307522,-0.3855422,-0.3680091,-0.34804177,-0.32508546,-0.2996642,-0.27488983,-0.24888301,-0.21985644,-0.18901175,-0.15755093,-0.12852436,-0.100699484,-0.072874606,-0.0456661,-0.01904291,0.0045295954,0.025698781,0.04686773,0.06440079,0.074076414,0.07044029,0.049887538,0.014205217,-0.039010286,-0.10797155,-0.190799,-0.27972764,-0.36739284,-0.44966567,-0.5246357,-0.5929806,-0.65346813,-0.7030475,-0.74298215,-0.7744122,-0.80103534,-0.82340616,-0.8397375,-0.8518473,-0.8597048,-0.8657443,-0.86876404,-0.86694604,-0.8615228,-0.85606873,-0.8524327,-0.851231,-0.849413,-0.847595,-0.845777,-0.843959,-0.8421717,-0.8367177,-0.8306782,-0.8258404,-0.8227899,-0.82158816,-0.81918466,-0.8161649,-0.81373066,-0.8119126,-0.80889285,-0.8034388,-0.7973993,-0.7937633,-0.79317784,-0.7955813,-0.79499584,-0.79317784,-0.7901581,-0.7889255,-0.7877238,-0.7859058,-0.7840878,-0.782886,-0.7853203,-0.7877238,-0.78710747,-0.784704,-0.78048253,-0.7780483,-0.7762302,-0.77139246,-0.7647367,-0.75808096,-0.75506115,-0.75324315,-0.7502234,-0.7435676,-0.7296706,-0.70970327,-0.6879487,-0.66375995,-0.64135826,-0.6208055,-0.60509044,-0.59723294,-0.6044742,-0.630481,-0.67343545,-0.72665083,-0.7725942,-0.8016516,-0.8107109,-0.8046714,-0.79256153,-0.782886,-0.7768465,-0.7762302,-0.7786645,-0.7835023,-0.7877238,-0.7883401,-0.7877238,-0.784704,-0.784704,-0.7853203,-0.78652203,-0.7919453,-0.8082766,-0.8342834,-0.8542507,-0.8258404,-0.6879487,-0.40005547,0.02388072,0.48047948,0.8197701,0.88749886,0.63833845,0.16661012,-0.35593015,-0.7465874,-0.9256155,-0.9237975,-0.83308166,-0.7423659,-0.6939882,-0.68551445,-0.69762427,-0.7133393,-0.7223985,-0.7223985,-0.716359,-0.70911777,-0.7030475,-0.69580626,-0.68733245,-0.6782732,-0.66918314,-0.6625273,-0.65710413,-0.6492466,-0.6395711,-0.628663,-0.61960375,-0.6123317,-0.60509044,-0.5960004,-0.5851231,-0.57544756,-0.56336856,-0.54944074,-0.5337257,-0.5173944,-0.5071026,-0.49986136,-0.49138755,-0.47927773,-0.46236098,-0.4430099,-0.42365885,-0.40248978,-0.37950265,-0.35469753,-0.32992327,-0.30511814,-0.27972764,-0.2531045,-0.22469419,-0.19745481,-0.1690445,-0.14060336,-0.111576736,-0.08436811,-0.060179293,-0.03660685,-0.013003409,0.010569215,0.032970786,0.04868579,0.05592704,0.05472529,0.040211916,0.009367347,-0.04144454,-0.11037499,-0.192617,-0.27972764,-0.3668074,-0.45086747,-0.5288879,-0.5984347,-0.65950763,-0.7103195,-0.7520414,-0.7853203,-0.80950916,-0.8282439,-0.8421717,-0.8542507,-0.8621083,-0.86636055,-0.86694604,-0.86694604,-0.86876404,-0.8699658,-0.8681478,-0.8639263,-0.8602902,-0.85908854,-0.8584722,-0.85668504,-0.8524327,-0.847595,-0.8451915,-0.843959,-0.8409392,-0.8367177,-0.8324654,-0.8306782,-0.8300619,-0.82886016,-0.8258404,-0.8227899,-0.8222044,-0.8222044,-0.82100266,-0.8185684,-0.81493235,-0.81311435,-0.8119126,-0.8100946,-0.8082766,-0.8058731,-0.8058731,-0.8076911,-0.80889285,-0.8082766,-0.80525684,-0.8040551,-0.80285335,-0.8004191,-0.7973993,-0.7937633,-0.79256153,-0.79317784,-0.79317784,-0.7907435,-0.78652203,-0.782886,-0.7780483,-0.770807,-0.7623332,-0.7544757,-0.7508397,-0.75142515,-0.7538594,-0.75142515,-0.73934615,-0.7199951,-0.69580626,-0.66918314,-0.64379257,-0.62142175,-0.60749394,-0.60567594,-0.6208055,-0.6516501,-0.6963917,-0.74538565,-0.7859058,-0.8082766,-0.81132716,-0.80103534,-0.7883401,-0.7798663,-0.7768465,-0.77502847,-0.7744122,-0.7756448,-0.77743196,-0.7762302,-0.77321047,-0.7701907,-0.770807,-0.7738268,-0.7798663,-0.7907435,-0.81132716,-0.8361014,-0.8463932,-0.78710747,-0.6002527,-0.25976026,0.18898094,0.6177857,0.8729856,0.82158816,0.47564173,-0.040828288,-0.5385635,-0.85908854,-0.9606816,-0.9032447,-0.7907435,-0.702462,-0.66496164,-0.66375995,-0.67885864,-0.69518995,-0.7048655,-0.7060672,-0.700644,-0.69337195,-0.6879487,-0.68551445,-0.68187845,-0.67525345,-0.66554713,-0.6564878,-0.6492466,-0.6431763,-0.63531876,-0.62564325,-0.61596775,-0.60567594,-0.5947986,-0.5827196,-0.57181156,-0.56336856,-0.5560965,-0.548239,-0.5361292,-0.52284837,-0.5107386,-0.4986288,-0.4865498,-0.4726528,-0.4550889,-0.4363541,-0.41820478,-0.39885378,-0.37830096,-0.35953534,-0.34200227,-0.32144946,-0.2966444,-0.26641607,-0.23313713,-0.20290887,-0.17751825,-0.15693462,-0.13394755,-0.1091733,-0.08255011,-0.054139853,-0.028132975,-0.0027116537,0.020244718,0.037808537,0.049271226,0.04686773,0.02992022,-0.0051459074,-0.057775855,-0.1248883,-0.20352507,-0.28817058,-0.37528116,-0.45934117,-0.5361292,-0.60388875,-0.6613256,-0.7121375,-0.7562937,-0.79256153,-0.81918466,-0.8367177,-0.8487967,-0.8584722,-0.8639263,-0.86694604,-0.86694604,-0.86694604,-0.86938035,-0.87058204,-0.86876404,-0.8621083,-0.85486704,-0.8506147,-0.8482112,-0.845777,-0.8403537,-0.83308166,-0.82886016,-0.82762766,-0.82886016,-0.8282439,-0.8258404,-0.8227899,-0.81918466,-0.8161649,-0.81311435,-0.8107109,-0.80950916,-0.80950916,-0.80950916,-0.8076911,-0.8058731,-0.8076911,-0.8100946,-0.81373066,-0.81493235,-0.81373066,-0.81132716,-0.8076911,-0.8040551,-0.8016516,-0.80103534,-0.8040551,-0.8076911,-0.80950916,-0.8082766,-0.8058731,-0.8058731,-0.8046714,-0.8034388,-0.8004191,-0.7973993,-0.79499584,-0.79317784,-0.79317784,-0.7907435,-0.7895418,-0.7877238,-0.7835023,-0.7762302,-0.76717097,-0.75869715,-0.75567746,-0.75506115,-0.7526577,-0.73934615,-0.7199951,-0.697008,-0.6746372,-0.6546699,-0.6365205,-0.62323976,-0.62382525,-0.6395711,-0.67100114,-0.7103195,-0.74963796,-0.7835023,-0.8046714,-0.8107109,-0.8040551,-0.7919453,-0.7822697,-0.7768465,-0.7756448,-0.7738268,-0.7738268,-0.7768465,-0.78048253,-0.7822697,-0.77924997,-0.7756448,-0.7738268,-0.7762302,-0.78710747,-0.8058731,-0.8258404,-0.83188,-0.7701907,-0.5911626,-0.26339626,0.15995443,0.5536623,0.7659385,0.67885864,0.3208332,-0.17810374,-0.63593507,-0.9104859,-0.9776292,-0.902043,-0.7835023,-0.69882596,-0.6643454,-0.6673651,-0.68187845,-0.6939882,-0.700644,-0.702462,-0.69944227,-0.69337195,-0.6861307,-0.67947495,-0.67343545,-0.6685977,-0.6619419,-0.6546699,-0.646196,-0.6365205,-0.626845,-0.61535144,-0.60388875,-0.5954149,-0.5881429,-0.57966906,-0.5682063,-0.5560965,-0.54521924,-0.5361292,-0.5300897,-0.5210304,-0.50953686,-0.49804336,-0.48593348,-0.47323823,-0.4569069,-0.43875754,-0.4218408,-0.40489322,-0.38797647,-0.36921084,-0.34927434,-0.32810527,-0.3063199,-0.28394908,-0.2585585,-0.2307337,-0.20411056,-0.176902,-0.15089518,-0.1248883,-0.100699484,-0.078914106,-0.060179293,-0.04446435,-0.028718531,-0.015437663,-0.008165717,-0.009983659,-0.025698721,-0.05654329,-0.10492092,-0.16962993,-0.24583244,-0.32748896,-0.40671122,-0.48171198,-0.550057,-0.6117462,-0.66554713,-0.70911777,-0.7435676,-0.770807,-0.79256153,-0.8100946,-0.8227899,-0.833698,-0.843959,-0.8506147,-0.8536345,-0.8524327,-0.8487967,-0.8463932,-0.8445752,-0.8415555,-0.8361014,-0.82944566,-0.8258404,-0.8246079,-0.82522416,-0.82340616,-0.8185684,-0.8143469,-0.8107109,-0.80889285,-0.8064894,-0.8046714,-0.8040551,-0.8034388,-0.80103534,-0.79499584,-0.7895418,-0.78710747,-0.7877238,-0.7895418,-0.7889255,-0.7877238,-0.7883401,-0.7895418,-0.7913598,-0.7901581,-0.7883401,-0.7889255,-0.7907435,-0.79256153,-0.7901581,-0.78652203,-0.7835023,-0.782886,-0.782886,-0.7816843,-0.7786645,-0.7756448,-0.77321047,-0.7720088,-0.76957446,-0.76775646,-0.76775646,-0.76957446,-0.770807,-0.76898897,-0.76717097,-0.7659693,-0.7647367,-0.76171696,-0.7544757,-0.7465874,-0.7423659,-0.7417496,-0.7423659,-0.7375281,-0.7242166,-0.7048655,-0.68492895,-0.6661633,-0.64801407,-0.630481,-0.614766,-0.60690844,-0.61535144,-0.6371368,-0.6722028,-0.7133393,-0.74963796,-0.7762302,-0.78652203,-0.7835023,-0.77321047,-0.76353496,-0.75808096,-0.7544757,-0.7538594,-0.75506115,-0.75808096,-0.7623332,-0.7623332,-0.7605152,-0.75808096,-0.7562937,-0.75869715,-0.7665547,-0.7859058,-0.8100946,-0.82158816,-0.76898897,-0.59905094,-0.2887869,0.12427199,0.5191815,0.75808084,0.7211969,0.41758847,-0.046867788,-0.49924505,-0.79681385,-0.8977907,-0.85304904,-0.75567746,-0.6776569,-0.646196,-0.6486303,-0.66554713,-0.68249464,-0.69278646,-0.69518995,-0.6909685,-0.68249464,-0.6746372,-0.66918314,-0.66496164,-0.6583059,-0.6510338,-0.64379257,-0.6371368,-0.6310973,-0.6226235,-0.6117462,-0.6020707,-0.5954149,-0.5929806,-0.5899609,-0.5851231,-0.5760639,-0.56515574,-0.55307674,-0.54038143,-0.5294734,-0.5204141,-0.5107386,-0.5004468,-0.48534805,-0.46840048,-0.45086747,-0.4339198,-0.41820478,-0.39946997,-0.37950265,-0.3589499,-0.33898258,-0.31417745,-0.2869689,-0.25976026,-0.23375338,-0.21258438,-0.19141531,-0.16479218,-0.13576561,-0.10797155,-0.08375192,-0.063815355,-0.04446435,-0.026931226,-0.01180166,-0.0045297146,-0.006347716,-0.018457472,-0.04628235,-0.09222573,-0.15511662,-0.22829938,-0.3045019,-0.38132071,-0.4550889,-0.5258682,-0.5899609,-0.6431763,-0.6879487,-0.7242166,-0.7538594,-0.77743196,-0.7919453,-0.8016516,-0.80889285,-0.81493235,-0.8185684,-0.8203864,-0.82100266,-0.82158816,-0.8222044,-0.82158816,-0.8167504,-0.81132716,-0.8076911,-0.8046714,-0.8040551,-0.80103534,-0.7973993,-0.79499584,-0.7943796,-0.7937633,-0.7907435,-0.7883401,-0.7877238,-0.7889255,-0.7913598,-0.7919453,-0.7901581,-0.7883401,-0.7877238,-0.7883401,-0.7877238,-0.7859058,-0.7835023,-0.7822697,-0.7816843,-0.7786645,-0.7768465,-0.7762302,-0.7768465,-0.7768465,-0.77502847,-0.7725942,-0.770807,-0.7720088,-0.7725942,-0.770807,-0.76775646,-0.7647367,-0.7641512,-0.7641512,-0.7629187,-0.7629187,-0.7647367,-0.7665547,-0.76717097,-0.7641512,-0.75869715,-0.7526577,-0.74902165,-0.7465874,-0.7441839,-0.7435676,-0.74538565,-0.74840534,-0.7508397,-0.7508397,-0.74963796,-0.74902165,-0.7502234,-0.7502234,-0.74720365,-0.74298215,-0.73934615,-0.73872983,-0.73934615,-0.73934615,-0.7381444,-0.73571014,-0.73450834,-0.73330665,-0.73087233,-0.7296706,-0.7302869,-0.7314886,-0.7320741,-0.7296706,-0.72665083,-0.72483283,-0.7242166,-0.72363114,-0.71756077,-0.70788527,-0.69944227,-0.69337195,-0.6903522,-0.68853414,-0.68551445,-0.6776569,-0.6643454,-0.64499426,-0.61960375,-0.5978184,-0.5821034,-0.5742458,-0.5742458,-0.5809016,-0.5984347,-0.628663,-0.66918314,-0.71152127,-0.7435676,-0.75931346,-0.75931346,-0.7502234,-0.73872983,-0.7302869,-0.7278526,-0.7278526,-0.7302869,-0.7320741,-0.7314886,-0.7284689,-0.7254491,-0.72665083,-0.73087233,-0.74116415,-0.7605152,-0.7859058,-0.8058731,-0.78106797,-0.6516501,-0.38011897,0.02690041,0.47443998,0.82097185,0.9171418,0.7097032,0.27911127,-0.22164363,-0.6177857,-0.8185684,-0.845777,-0.7786645,-0.7000277,-0.65587157,-0.6468123,-0.6589221,-0.6746372,-0.6879487,-0.6939882,-0.6921702,-0.6861307,-0.67885864,-0.67343545,-0.6679814,-0.6613256,-0.65346813,-0.6456106,-0.6401565,-0.63531876,-0.6280775,-0.618402,-0.60931194,-0.6026561,-0.5960004,-0.5869411,-0.5760639,-0.56577206,-0.5585308,-0.55125874,-0.5421995,-0.53129137,-0.5185961,-0.5071026,-0.49560905,-0.48171198,-0.46538073,-0.44784766,-0.4321326,-0.41638672,-0.39885378,-0.3807044,-0.3625551,-0.34563828,-0.32930702,-0.3093397,-0.28635257,-0.26037657,-0.23495519,-0.20956463,-0.1829415,-0.15634918,-0.12910974,-0.103719294,-0.08014667,-0.05654329,-0.034172475,-0.0123871565,0.006347537,0.020244718,0.02810216,0.024496913,0.0069639683,-0.029334784,-0.08196467,-0.14725912,-0.22164363,-0.3014822,-0.3837242,-0.46356267,-0.5343112,-0.5966166,-0.64983207,-0.69580626,-0.7338921,-0.7629187,-0.784704,-0.8004191,-0.81373066,-0.82340616,-0.8282439,-0.8306782,-0.82944566,-0.82762766,-0.82522416,-0.81977016,-0.8161649,-0.81311435,-0.8125289,-0.81132716,-0.80950916,-0.8064894,-0.8034388,-0.80285335,-0.80285335,-0.8022371,-0.7998336,-0.7980156,-0.7980156,-0.79860103,-0.79681385,-0.7937633,-0.7901581,-0.7895418,-0.7907435,-0.7901581,-0.7877238,-0.7853203,-0.784704,-0.78652203,-0.78710747,-0.7853203,-0.784704,-0.78710747,-0.7907435,-0.79256153,-0.7919453,-0.7895418,-0.7883401,-0.78710747,-0.784704,-0.7822697,-0.78106797,-0.782886,-0.784704,-0.7840878,-0.78106797,-0.7762302,-0.7756448,-0.7762302,-0.7762302,-0.7756448,-0.77321047,-0.77321047,-0.77321047,-0.77139246,-0.7683727,-0.7647367,-0.76353496,-0.76535296,-0.7659693,-0.7659693,-0.76353496,-0.7605152,-0.75687915,-0.7526577,-0.74840534,-0.74538565,-0.74538565,-0.74538565,-0.7441839,-0.7417496,-0.7399624,-0.7417496,-0.7435676,-0.74480015,-0.7435676,-0.74116415,-0.73872983,-0.7375281,-0.73450834,-0.7302869,-0.7254491,-0.72301483,-0.7223985,-0.7211968,-0.71879333,-0.71697533,-0.7181771,-0.72061133,-0.7218131,-0.7211968,-0.71756077,-0.7151573,-0.7133393,-0.71152127,-0.7103195,-0.70788527,-0.7060672,-0.7036637,-0.7000277,-0.69580626,-0.6921702,-0.69337195,-0.69580626,-0.6982097,-0.69762427,-0.69337195,-0.6867162,-0.6770407,-0.66554713,-0.65587157,-0.6492466,-0.64499426,-0.6371368,-0.618402,-0.5923952,-0.56759006,-0.55369306,-0.5524605,-0.5542785,-0.5542785,-0.55548024,-0.5663883,-0.5917789,-0.62986475,-0.6703849,-0.7036637,-0.7254491,-0.7338921,-0.7296706,-0.71697533,-0.7048655,-0.69944227,-0.700644,-0.7036637,-0.7048655,-0.70428,-0.7036637,-0.7066835,-0.71697533,-0.7375281,-0.7641512,-0.7798663,-0.72483283,-0.54340124,-0.20774662,0.24099469,0.6740209,0.9395126,0.9086678,0.59359694,0.106738925,-0.37586665,-0.70122945,-0.82340616,-0.7937633,-0.70428,-0.63229907,-0.6062922,-0.614766,-0.6365205,-0.6552861,-0.66677964,-0.6703849,-0.6673651,-0.6601238,-0.65346813,-0.6486303,-0.6444088,-0.6401565,-0.63229907,-0.62200725,-0.6141497,-0.6062922,-0.59723294,-0.5881429,-0.57966906,-0.57304406,-0.5669738,-0.55973256,-0.54944074,-0.5385635,-0.5288879,-0.5185961,-0.5071026,-0.4925893,-0.47869223,-0.46781504,-0.45810866,-0.4490494,-0.4363541,-0.4206391,-0.40430778,-0.38736016,-0.3704434,-0.35167783,-0.33352852,-0.31599545,-0.29726064,-0.27609158,-0.2506702,-0.22346163,-0.19686931,-0.17024618,-0.14303768,-0.1152128,-0.08738792,-0.0631991,-0.042030036,-0.02086091,-0.0003080964,0.01904285,0.034172416,0.04384792,0.046251535,0.041413665,0.024496913,-0.009367406,-0.060179293,-0.1248883,-0.19807106,-0.27609158,-0.3565156,-0.43333435,-0.50528455,-0.5663883,-0.61898744,-0.6661633,-0.7066835,-0.7405479,-0.7659693,-0.784704,-0.79860103,-0.8082766,-0.81493235,-0.8161649,-0.81373066,-0.8125289,-0.8100946,-0.8082766,-0.8046714,-0.80103534,-0.79860103,-0.79860103,-0.79860103,-0.79681385,-0.79317784,-0.7907435,-0.7901581,-0.7907435,-0.7901581,-0.7895418,-0.7889255,-0.7889255,-0.7901581,-0.7895418,-0.7883401,-0.7883401,-0.7883401,-0.7889255,-0.7877238,-0.78652203,-0.784704,-0.7835023,-0.782886,-0.78048253,-0.7780483,-0.77743196,-0.7786645,-0.77924997,-0.7768465,-0.7738268,-0.7701907,-0.7683727,-0.770807,-0.77502847,-0.77321047,-0.77139246,-0.76775646,-0.7659693,-0.76775646,-0.7725942,-0.7780483,-0.77924997,-0.77743196,-0.7725942,-0.76775646,-0.76535296,-0.7647367,-0.7641512,-0.7611315,-0.75808096,-0.75687915,-0.75506115,-0.7538594,-0.75142515,-0.74963796,-0.7502234,-0.75142515,-0.75142515,-0.7478199,-0.7435676,-0.74298215,-0.7441839,-0.74600196,-0.74480015,-0.7417496,-0.73934615,-0.73872983,-0.7381444,-0.73512465,-0.7302869,-0.7284689,-0.7284689,-0.72905433,-0.72723633,-0.72363114,-0.72363114,-0.7242166,-0.72483283,-0.7223985,-0.7181771,-0.716359,-0.716359,-0.71697533,-0.7151573,-0.71152127,-0.70970327,-0.70788527,-0.7060672,-0.7030475,-0.7000277,-0.700644,-0.702462,-0.7036637,-0.70428,-0.7048655,-0.70548177,-0.70548177,-0.7036637,-0.6982097,-0.69278646,-0.69155395,-0.69278646,-0.69580626,-0.697008,-0.6963917,-0.69518995,-0.69278646,-0.6903522,-0.68551445,-0.6800912,-0.6746372,-0.6673651,-0.65950763,-0.6510338,-0.64197457,-0.634117,-0.6226235,-0.6044742,-0.58148706,-0.562136,-0.550057,-0.546421,-0.5439867,-0.54038143,-0.5409669,-0.5560965,-0.5863248,-0.62986475,-0.67281914,-0.7048655,-0.7218131,-0.72363114,-0.716359,-0.70428,-0.6946045,-0.6909685,-0.6909685,-0.6921702,-0.69155395,-0.6909685,-0.69337195,-0.70184577,-0.7181771,-0.7423659,-0.7659693,-0.7641512,-0.6740209,-0.4490494,-0.07530886,0.37586665,0.7665547,0.9431484,0.81129634,0.4272641,-0.07832867,-0.5234339,-0.7853203,-0.851231,-0.7889255,-0.69278646,-0.630481,-0.61596775,-0.63291526,-0.65587157,-0.6716174,-0.6776569,-0.6776569,-0.6746372,-0.6703849,-0.66496164,-0.6601238,-0.6540843,-0.64742863,-0.637753,-0.628663,-0.6208055,-0.61356425,-0.60749394,-0.59905094,-0.5893446,-0.58148706,-0.57304406,-0.56515574,-0.5560965,-0.5458047,-0.5361292,-0.5270699,-0.5161927,-0.50288105,-0.48895323,-0.47505623,-0.46236098,-0.44966567,-0.4339198,-0.41700304,-0.40005547,-0.3855422,-0.37164515,-0.35469753,-0.33596277,-0.31540996,-0.29300833,-0.27005213,-0.24404526,-0.21680582,-0.190799,-0.16602474,-0.14242136,-0.11641449,-0.09040773,-0.06563336,-0.04264629,-0.022678912,-0.00092446804,0.019659162,0.037192225,0.04868579,0.0517056,0.044433475,0.022678971,-0.016639471,-0.07349086,-0.14365393,-0.21985644,-0.30086583,-0.38313872,-0.46538073,-0.5415832,-0.60690844,-0.6613256,-0.70729977,-0.7465874,-0.78106797,-0.8064894,-0.8246079,-0.8385357,-0.8482112,-0.8554525,-0.8578868,-0.85668504,-0.85486704,-0.8524327,-0.85002923,-0.8451915,-0.8415555,-0.8397375,-0.8397375,-0.8397375,-0.8361014,-0.8324654,-0.83126366,-0.83188,-0.83308166,-0.8306782,-0.8258404,-0.8203864,-0.8167504,-0.81493235,-0.8119126,-0.80889285,-0.8076911,-0.8064894,-0.8064894,-0.8034388,-0.8004191,-0.79860103,-0.79921734,-0.7998336,-0.79860103,-0.79681385,-0.79499584,-0.7973993,-0.8004191,-0.8004191,-0.79860103,-0.7961976,-0.79499584,-0.79499584,-0.7937633,-0.79317784,-0.7919453,-0.7913598,-0.79256153,-0.7919453,-0.7913598,-0.7919453,-0.79317784,-0.7937633,-0.79256153,-0.7913598,-0.7901581,-0.7889255,-0.78652203,-0.7822697,-0.77924997,-0.77924997,-0.7822697,-0.784704,-0.7835023,-0.78106797,-0.7780483,-0.7756448,-0.7744122,-0.77139246,-0.7683727,-0.76717097,-0.7683727,-0.7683727,-0.7665547,-0.76353496,-0.7598989,-0.75687915,-0.75506115,-0.75142515,-0.74902165,-0.74902165,-0.7508397,-0.7538594,-0.7538594,-0.75324315,-0.75324315,-0.7544757,-0.75506115,-0.7520414,-0.7478199,-0.7435676,-0.7423659,-0.7423659,-0.7423659,-0.74298215,-0.74298215,-0.7441839,-0.74600196,-0.74480015,-0.74298215,-0.74116415,-0.7399624,-0.73934615,-0.73691183,-0.7314886,-0.72665083,-0.7223985,-0.71697533,-0.70729977,-0.6963917,-0.6861307,-0.6806767,-0.67885864,-0.67525345,-0.66375995,-0.6444088,-0.6208055,-0.6026561,-0.5893446,-0.5827196,-0.5833051,-0.5905771,-0.60749394,-0.634117,-0.6703849,-0.70788527,-0.7399624,-0.7611315,-0.7665547,-0.7611315,-0.7508397,-0.7417496,-0.7381444,-0.73632634,-0.73691183,-0.7375281,-0.7381444,-0.73632634,-0.7338921,-0.73691183,-0.7526577,-0.78106797,-0.8107109,-0.8040551,-0.6982097,-0.4490494,-0.0631991,0.36375678,0.6909684,0.7623024,0.5312915,0.08316636,-0.41820478,-0.7889255,-0.9486026,-0.9237975,-0.8064894,-0.69580626,-0.63593507,-0.62564325,-0.6431763,-0.66375995,-0.67645514,-0.6770407,-0.67281914,-0.66918314,-0.6679814,-0.66677964,-0.6607094,-0.6516501,-0.6425909,-0.63350075,-0.626845,-0.61960375,-0.61294794,-0.6062922,-0.60145444,-0.5947986,-0.5839214,-0.57304406,-0.563954,-0.5560965,-0.5488553,-0.5385635,-0.5246357,-0.5125567,-0.5022648,-0.4932056,-0.4805103,-0.46658242,-0.45148367,-0.43817216,-0.4248606,-0.40852928,-0.39099622,-0.3722306,-0.3565156,-0.34138602,-0.32144946,-0.29907864,-0.27183932,-0.2428127,-0.21498781,-0.1847595,-0.15511662,-0.12852436,-0.102517486,-0.07953042,-0.055957854,-0.034172475,-0.016023219,-0.00092446804,0.013588786,0.027516723,0.035990477,0.031152725,0.008165598,-0.032970786,-0.08920592,-0.15816724,-0.23557144,-0.31842977,-0.40067178,-0.47749054,-0.54703724,-0.6087265,-0.6643454,-0.71152127,-0.74720365,-0.7756448,-0.79860103,-0.81736666,-0.83308166,-0.8433735,-0.8506147,-0.85304904,-0.8536345,-0.8518473,-0.847595,-0.8445752,-0.8433735,-0.845777,-0.845777,-0.8433735,-0.8379195,-0.83308166,-0.82944566,-0.82704216,-0.8227899,-0.8203864,-0.81977016,-0.82158816,-0.8240224,-0.8227899,-0.8203864,-0.81736666,-0.81493235,-0.81311435,-0.8100946,-0.8064894,-0.8034388,-0.80285335,-0.80285335,-0.8022371,-0.8022371,-0.80103534,-0.80103534,-0.80103534,-0.7980156,-0.79499584,-0.7937633,-0.7937633,-0.79499584,-0.7955813,-0.7955813,-0.7937633,-0.7919453,-0.7901581,-0.7877238,-0.7859058,-0.7859058,-0.78652203,-0.78710747,-0.7840878,-0.7822697,-0.78106797,-0.782886,-0.784704,-0.7859058,-0.7853203,-0.7859058,-0.78652203,-0.78710747,-0.784704,-0.7816843,-0.7780483,-0.7756448,-0.7725942,-0.7683727,-0.7641512,-0.7623332,-0.7641512,-0.76535296,-0.76353496,-0.7611315,-0.7605152,-0.76353496,-0.7683727,-0.770807,-0.76898897,-0.76535296,-0.76353496,-0.7623332,-0.7623332,-0.76171696,-0.7605152,-0.7605152,-0.7598989,-0.75567746,-0.74902165,-0.73934615,-0.7320741,-0.7278526,-0.72363114,-0.7211968,-0.71756077,-0.71152127,-0.69882596,-0.6746372,-0.6456106,-0.6208055,-0.60509044,-0.59963644,-0.59963644,-0.6020707,-0.6117462,-0.63350075,-0.6661633,-0.7030475,-0.73571014,-0.75749546,-0.76775646,-0.7665547,-0.75749546,-0.7478199,-0.7417496,-0.74116415,-0.7417496,-0.7399624,-0.73632634,-0.7320741,-0.73087233,-0.73330665,-0.7399624,-0.75687915,-0.7835023,-0.80889285,-0.79860103,-0.68915045,-0.43875754,-0.057159603,0.35953534,0.6776569,0.7538594,0.54340124,0.12790799,-0.34502202,-0.7066835,-0.87480354,-0.87298554,-0.78048253,-0.68492895,-0.63291526,-0.6208055,-0.63168275,-0.6486303,-0.6619419,-0.6679814,-0.6661633,-0.6601238,-0.65346813,-0.64983207,-0.64801407,-0.6456106,-0.64135826,-0.634117,-0.62746125,-0.6208055,-0.61294794,-0.60690844,-0.6008381,-0.5960004,-0.5899609,-0.58148706,-0.5706098,-0.55911624,-0.5506425,-0.5421995,-0.5319077,-0.52161586,-0.50953686,-0.5004468,-0.49077123,-0.47869223,-0.46417898,-0.44784766,-0.4327181,-0.41638672,-0.39885378,-0.37950265,-0.3607679,-0.34320402,-0.32508546,-0.30391645,-0.2791114,-0.25248826,-0.22709769,-0.20229256,-0.17446774,-0.14544111,-0.1170308,-0.09222573,-0.071672976,-0.051120043,-0.032970786,-0.015437663,-0.0027116537,0.0039132833,0.0045295954,-0.006347716,-0.031769037,-0.075894415,-0.13699812,-0.21015012,-0.2887869,-0.36921084,-0.4472314,-0.5185961,-0.5790836,-0.6310973,-0.6746372,-0.714541,-0.74902165,-0.7756448,-0.79499584,-0.8107109,-0.82340616,-0.83188,-0.8361014,-0.8379195,-0.8385357,-0.8427572,-0.84700954,-0.8487967,-0.8463932,-0.8427572,-0.8385357,-0.83308166,-0.8264259,-0.81977016,-0.8125289,-0.80950916,-0.80889285,-0.8107109,-0.81132716,-0.81132716,-0.80950916,-0.8046714,-0.79921734,-0.7955813,-0.7937633,-0.79317784,-0.7919453,-0.7889255,-0.784704,-0.78106797,-0.78106797,-0.782886,-0.784704,-0.7840878,-0.782886,-0.7822697,-0.7822697,-0.7822697,-0.7816843,-0.7816843,-0.7835023,-0.7853203,-0.78652203,-0.7859058,-0.784704,-0.7840878,-0.782886,-0.78048253,-0.7762302,-0.7725942,-0.7701907,-0.7683727,-0.7665547,-0.7641512,-0.7611315,-0.7623332,-0.76353496,-0.7629187,-0.7598989,-0.75687915,-0.75567746,-0.75687915,-0.75808096,-0.75687915,-0.75506115,-0.7544757,-0.7538594,-0.7526577,-0.75142515,-0.7508397,-0.7508397,-0.74963796,-0.74600196,-0.73934615,-0.7320741,-0.7254491,-0.71879333,-0.712723,-0.70788527,-0.70428,-0.7048655,-0.70548177,-0.6982097,-0.6812929,-0.65710413,-0.6310973,-0.6105137,-0.5978184,-0.5881429,-0.5833051,-0.58755744,-0.60145444,-0.62625957,-0.6613256,-0.69944227,-0.7320741,-0.75324315,-0.75931346,-0.7526577,-0.74116415,-0.73330665,-0.73087233,-0.73087233,-0.73087233,-0.73087233,-0.73269033,-0.73269033,-0.7302869,-0.7260345,-0.72483283,-0.73087233,-0.74720365,-0.7701907,-0.7859058,-0.76171696,-0.646196,-0.39765197,-0.018457472,0.40427697,0.73632646,0.8300619,0.634117,0.22527969,-0.2494685,-0.62382525,-0.8143469,-0.8385357,-0.76717097,-0.68311095,-0.63291526,-0.6244415,-0.6395711,-0.65950763,-0.6722028,-0.67583895,-0.67525345,-0.6716174,-0.66677964,-0.6601238,-0.6528518,-0.64499426,-0.6371368,-0.62746125,-0.61716944,-0.60690844,-0.6002527,-0.5942132,-0.58755744,-0.5790836,-0.5687918,-0.55973256,-0.551875,-0.544603,-0.53736174,-0.5307059,-0.5258682,-0.5185961,-0.5071026,-0.4925893,-0.47567254,-0.46054298,-0.44602966,-0.4303146,-0.41216528,-0.39281422,-0.37528116,-0.3589499,-0.34080058,-0.32024777,-0.29726064,-0.27427357,-0.2506702,-0.22469419,-0.19686931,-0.16784275,-0.14121968,-0.1170308,-0.09342742,-0.068036914,-0.042030036,-0.016639471,0.0069639683,0.027516723,0.044433475,0.05352354,0.049271226,0.028718352,-0.008165717,-0.060795665,-0.12790811,-0.20472687,-0.2869689,-0.3686254,-0.4448279,-0.5143746,-0.5778819,-0.634117,-0.68187845,-0.7199951,-0.7508397,-0.7762302,-0.7955813,-0.8064894,-0.8125289,-0.81736666,-0.8264259,-0.8367177,-0.845777,-0.847595,-0.8433735,-0.837334,-0.83126366,-0.82704216,-0.8240224,-0.8222044,-0.8222044,-0.82100266,-0.8185684,-0.81373066,-0.80889285,-0.80525684,-0.8016516,-0.79860103,-0.7955813,-0.79499584,-0.79499584,-0.7937633,-0.7895418,-0.782886,-0.77743196,-0.7756448,-0.7762302,-0.7768465,-0.7756448,-0.7738268,-0.7738268,-0.7744122,-0.77502847,-0.77321047,-0.770807,-0.76957446,-0.76957446,-0.770807,-0.7725942,-0.77321047,-0.7756448,-0.7780483,-0.7786645,-0.7768465,-0.7725942,-0.7701907,-0.76957446,-0.7701907,-0.7701907,-0.76898897,-0.7683727,-0.76717097,-0.7641512,-0.7605152,-0.75749546,-0.75749546,-0.75869715,-0.7598989,-0.75869715,-0.75687915,-0.75687915,-0.75749546,-0.75749546,-0.75506115,-0.75142515,-0.7502234,-0.74963796,-0.74963796,-0.74720365,-0.7423659,-0.73872983,-0.73632634,-0.73571014,-0.73512465,-0.73450834,-0.73512465,-0.73512465,-0.73330665,-0.7302869,-0.7278526,-0.7260345,-0.72483283,-0.7218131,-0.7133393,-0.7036637,-0.6963917,-0.6921702,-0.6909685,-0.68915045,-0.6843127,-0.67281914,-0.65346813,-0.6280775,-0.6008381,-0.5821034,-0.5724278,-0.5699935,-0.57544756,-0.5881429,-0.60992825,-0.6444088,-0.6843127,-0.71879333,-0.7405479,-0.74963796,-0.74840534,-0.7423659,-0.73691183,-0.7314886,-0.7278526,-0.72723633,-0.72723633,-0.7278526,-0.72665083,-0.7254491,-0.7254491,-0.72723633,-0.73330665,-0.74538565,-0.76717097,-0.7907435,-0.7889255,-0.70122945,-0.47807604,-0.1073553,0.34138596,0.732074,0.9129201,0.7901273,0.41700315,-0.075894415,-0.5101223,-0.76717097,-0.837334,-0.7883401,-0.7060672,-0.6492466,-0.6310973,-0.63895476,-0.65587157,-0.6716174,-0.6800912,-0.6812929,-0.67583895,-0.66677964,-0.6601238,-0.6546699,-0.6504483,-0.6444088,-0.6371368,-0.63168275,-0.62625957,-0.6208055,-0.6117462,-0.6008381,-0.5917789,-0.5827196,-0.5742458,-0.5627523,-0.54944074,-0.5385635,-0.5282717,-0.5180106,-0.5065171,-0.49379104,-0.4823283,-0.4708348,-0.45872492,-0.4442116,-0.42788035,-0.41216528,-0.39645028,-0.38132071,-0.3619696,-0.34018427,-0.31842977,-0.29544264,-0.27245557,-0.2476505,-0.22225988,-0.196253,-0.1690445,-0.14183587,-0.1128093,-0.08556992,-0.060795665,-0.037808478,-0.014205217,0.010569215,0.033556223,0.05050385,0.06076467,0.061997294,0.05352354,0.031738162,-0.0075493455,-0.0631991,-0.1327458,-0.20836288,-0.28817058,-0.36921084,-0.44784766,-0.5210304,-0.5845068,-0.63833857,-0.68492895,-0.72363114,-0.7562937,-0.78106797,-0.7998336,-0.81493235,-0.8258404,-0.8342834,-0.8385357,-0.8409392,-0.8421717,-0.8409392,-0.8385357,-0.833698,-0.8300619,-0.82886016,-0.8282439,-0.8264259,-0.82100266,-0.81493235,-0.80950916,-0.80707484,-0.8058731,-0.80285335,-0.7998336,-0.79860103,-0.79860103,-0.79860103,-0.7973993,-0.7943796,-0.79256153,-0.7913598,-0.7901581,-0.7859058,-0.7822697,-0.78048253,-0.78048253,-0.7816843,-0.7798663,-0.7780483,-0.77743196,-0.7786645,-0.78048253,-0.78048253,-0.7798663,-0.78048253,-0.7816843,-0.7816843,-0.7786645,-0.7744122,-0.770807,-0.7701907,-0.77139246,-0.77139246,-0.770807,-0.76957446,-0.7683727,-0.76717097,-0.76535296,-0.76353496,-0.7629187,-0.76353496,-0.7629187,-0.7598989,-0.75808096,-0.75869715,-0.7605152,-0.76171696,-0.7598989,-0.75567746,-0.7526577,-0.75142515,-0.7526577,-0.7520414,-0.75142515,-0.7508397,-0.74963796,-0.74720365,-0.7423659,-0.7381444,-0.73632634,-0.73691183,-0.73872983,-0.7381444,-0.73512465,-0.7338921,-0.73512465,-0.73691183,-0.73571014,-0.73330665,-0.73087233,-0.72905433,-0.7278526,-0.7242166,-0.7199951,-0.7181771,-0.71756077,-0.71697533,-0.7133393,-0.70970327,-0.70729977,-0.7066835,-0.70548177,-0.700644,-0.6939882,-0.6867162,-0.6812929,-0.67525345,-0.6685977,-0.66314363,-0.6583059,-0.6528518,-0.6395711,-0.61596775,-0.5893446,-0.5687918,-0.5567128,-0.5524605,-0.54944074,-0.551875,-0.5663883,-0.5954149,-0.637753,-0.68187845,-0.71756077,-0.7405479,-0.74902165,-0.74480015,-0.73330665,-0.7223985,-0.71697533,-0.71697533,-0.7181771,-0.71756077,-0.714541,-0.712723,-0.712723,-0.71756077,-0.7284689,-0.7502234,-0.77743196,-0.7937633,-0.74840534,-0.58148706,-0.26579976,0.16781187,0.6014544,0.8856809,0.8856809,0.5966166,0.12186849,-0.36619115,-0.70788527,-0.84700954,-0.82944566,-0.7435676,-0.66677964,-0.63229907,-0.63229907,-0.64983207,-0.6685977,-0.68187845,-0.6867162,-0.68249464,-0.67525345,-0.6685977,-0.66375995,-0.6601238,-0.6528518,-0.64379257,-0.6347333,-0.626845,-0.6208055,-0.61356425,-0.6062922,-0.59905094,-0.5929806,-0.5869411,-0.5778819,-0.5682063,-0.55911624,-0.54944074,-0.54038143,-0.5282717,-0.5161927,-0.50528455,-0.4950236,-0.48352998,-0.46901673,-0.45206916,-0.43573785,-0.4200228,-0.40430778,-0.38615847,-0.3668074,-0.34865808,-0.33112502,-0.3129757,-0.2906049,-0.26339626,-0.23495519,-0.20654488,-0.17872,-0.14907712,-0.12005055,-0.09284198,-0.068036914,-0.04628235,-0.024496973,-0.0027116537,0.0178411,0.036576033,0.049271226,0.0553416,0.04748404,0.02206266,-0.022093534,-0.08196467,-0.15027893,-0.22709769,-0.3087542,-0.39339972,-0.47443998,-0.54703724,-0.6105137,-0.66554713,-0.7133393,-0.7526577,-0.78106797,-0.8022371,-0.81977016,-0.8342834,-0.845777,-0.8506147,-0.8524327,-0.8524327,-0.8536345,-0.8542507,-0.8524327,-0.849413,-0.84700954,-0.843959,-0.8403537,-0.8348997,-0.82944566,-0.8258404,-0.8246079,-0.8227899,-0.81795216,-0.81373066,-0.8125289,-0.81373066,-0.8167504,-0.81493235,-0.8107109,-0.80525684,-0.80285335,-0.80103534,-0.79681385,-0.7937633,-0.7913598,-0.7919453,-0.7937633,-0.79256153,-0.7895418,-0.78710747,-0.7853203,-0.78652203,-0.78652203,-0.7859058,-0.7877238,-0.7901581,-0.79256153,-0.7919453,-0.7889255,-0.7859058,-0.7840878,-0.784704,-0.784704,-0.7853203,-0.7859058,-0.7853203,-0.7840878,-0.78106797,-0.7780483,-0.7768465,-0.77743196,-0.7786645,-0.77743196,-0.7756448,-0.77321047,-0.77139246,-0.76957446,-0.7659693,-0.76353496,-0.7623332,-0.7623332,-0.7623332,-0.75869715,-0.7544757,-0.7520414,-0.75324315,-0.75567746,-0.75506115,-0.7502234,-0.74298215,-0.73632634,-0.7314886,-0.7278526,-0.7260345,-0.72665083,-0.72905433,-0.7314886,-0.73087233,-0.7278526,-0.72483283,-0.7242166,-0.7254491,-0.7242166,-0.7211968,-0.7199951,-0.72061133,-0.7242166,-0.7260345,-0.72363114,-0.71879333,-0.716359,-0.71697533,-0.7181771,-0.71756077,-0.71152127,-0.702462,-0.69337195,-0.68492895,-0.67947495,-0.67885864,-0.6800912,-0.6782732,-0.6673651,-0.64499426,-0.6177857,-0.5942132,-0.5790836,-0.5687918,-0.563954,-0.56577206,-0.57966906,-0.6087265,-0.64801407,-0.68853414,-0.71879333,-0.73450834,-0.73691183,-0.72905433,-0.7211968,-0.71937877,-0.7218131,-0.7260345,-0.7260345,-0.72363114,-0.71937877,-0.71697533,-0.716359,-0.71697533,-0.7260345,-0.7465874,-0.7725942,-0.7937633,-0.7605152,-0.614766,-0.32024777,0.09160936,0.51132405,0.7895417,0.78347147,0.48593354,0.006347537,-0.47807604,-0.80103534,-0.914122,-0.86694604,-0.75506115,-0.6625273,-0.616584,-0.6117462,-0.626845,-0.6468123,-0.6613256,-0.66554713,-0.66375995,-0.6576896,-0.65346813,-0.6492466,-0.6401565,-0.630481,-0.62142175,-0.61535144,-0.6117462,-0.60690844,-0.59963644,-0.59359694,-0.5887591,-0.5833051,-0.5742458,-0.5627523,-0.55125874,-0.5421995,-0.5337257,-0.5197978,-0.5034666,-0.48956954,-0.47989398,-0.4726528,-0.46236098,-0.44784766,-0.42969835,-0.41336703,-0.40067178,-0.38797647,-0.37346315,-0.35713184,-0.33836627,-0.31781346,-0.2948264,-0.27125382,-0.24888301,-0.22709769,-0.20290887,-0.17570025,-0.14787537,-0.1212523,-0.09706342,-0.07530886,-0.051120043,-0.025113285,-0.0015099049,0.017224908,0.029334784,0.037808537,0.039595723,0.02992022,0.0039132833,-0.03962654,-0.097679675,-0.16784275,-0.24583244,-0.32930702,-0.41275078,-0.49018586,-0.560318,-0.61960375,-0.6703849,-0.7121375,-0.74538565,-0.7725942,-0.7943796,-0.81132716,-0.8222044,-0.82886016,-0.83308166,-0.8361014,-0.8397375,-0.8415555,-0.8385357,-0.833698,-0.8282439,-0.82340616,-0.8203864,-0.8167504,-0.8125289,-0.8100946,-0.8100946,-0.80889285,-0.8064894,-0.8034388,-0.7998336,-0.79860103,-0.7973993,-0.7955813,-0.79317784,-0.7913598,-0.7919453,-0.79256153,-0.7901581,-0.7877238,-0.7859058,-0.7853203,-0.784704,-0.7822697,-0.77924997,-0.77743196,-0.7780483,-0.7798663,-0.7798663,-0.7798663,-0.7798663,-0.78106797,-0.7822697,-0.77924997,-0.7738268,-0.76957446,-0.7683727,-0.76957446,-0.7701907,-0.77139246,-0.7701907,-0.76775646,-0.76353496,-0.75808096,-0.75324315,-0.75142515,-0.7544757,-0.75808096,-0.75808096,-0.75506115,-0.7502234,-0.74720365,-0.74538565,-0.74480015,-0.74480015,-0.74600196,-0.74902165,-0.7520414,-0.7520414,-0.7502234,-0.74720365,-0.74480015,-0.74116415,-0.73632634,-0.73269033,-0.7314886,-0.73330665,-0.73571014,-0.73571014,-0.73330665,-0.7296706,-0.7278526,-0.72723633,-0.72723633,-0.7260345,-0.72483283,-0.72301483,-0.71697533,-0.7085015,-0.7000277,-0.6946045,-0.6939882,-0.69337195,-0.68733245,-0.6722028,-0.6486303,-0.6226235,-0.6008381,-0.5845068,-0.5748313,-0.5724278,-0.5790836,-0.5954149,-0.61898744,-0.6522664,-0.6879487,-0.71937877,-0.74116415,-0.7465874,-0.7417496,-0.73269033,-0.7254491,-0.72301483,-0.72061133,-0.71937877,-0.71697533,-0.71756077,-0.71879333,-0.71937877,-0.71937877,-0.72301483,-0.73691183,-0.75931346,-0.7786645,-0.7659693,-0.6619419,-0.4266786,-0.057775855,0.36073697,0.69217026,0.7895417,0.5929806,0.18173969,-0.29726064,-0.6722028,-0.85668504,-0.8699658,-0.78652203,-0.6921702,-0.63593507,-0.62323976,-0.63833857,-0.65950763,-0.6716174,-0.67343545,-0.6673651,-0.6601238,-0.6540843,-0.64983207,-0.6444088,-0.63833857,-0.63291526,-0.62564325,-0.616584,-0.60690844,-0.5978184,-0.5923952,-0.58755744,-0.5802853,-0.57181156,-0.56155056,-0.5524605,-0.544603,-0.5343112,-0.5234339,-0.51375836,-0.5040828,-0.4944073,-0.4829138,-0.46840048,-0.4532709,-0.43999016,-0.42788035,-0.41456872,-0.40005547,-0.3807044,-0.3607679,-0.33898258,-0.31540996,-0.29242295,-0.27005213,-0.2482667,-0.22648138,-0.20290887,-0.17751825,-0.15209693,-0.12732255,-0.10433549,-0.08014667,-0.05654329,-0.032970786,-0.013003409,0.005731344,0.021477103,0.031152725,0.032970786,0.01904285,-0.010599971,-0.054139853,-0.1128093,-0.18417406,-0.26579976,-0.35167783,-0.43333435,-0.5065171,-0.5712261,-0.6280775,-0.6776569,-0.71756077,-0.74902165,-0.7756448,-0.7973993,-0.81493235,-0.8258404,-0.83308166,-0.8391212,-0.845777,-0.8518473,-0.8542507,-0.8524327,-0.847595,-0.8427572,-0.8379195,-0.83126366,-0.82522416,-0.82100266,-0.8203864,-0.82158816,-0.82100266,-0.81795216,-0.81373066,-0.8107109,-0.8082766,-0.8034388,-0.79681385,-0.7895418,-0.784704,-0.782886,-0.7835023,-0.7840878,-0.784704,-0.7840878,-0.7822697,-0.7780483,-0.77321047,-0.7701907,-0.770807,-0.7720088,-0.77139246,-0.7683727,-0.76535296,-0.76535296,-0.7665547,-0.7665547,-0.76535296,-0.7629187,-0.7629187,-0.76535296,-0.76717097,-0.76898897,-0.76957446,-0.7701907,-0.770807,-0.76957446,-0.76717097,-0.76535296,-0.76535296,-0.7659693,-0.7647367,-0.76171696,-0.75808096,-0.75567746,-0.7544757,-0.75324315,-0.7520414,-0.7502234,-0.74963796,-0.74840534,-0.74600196,-0.7435676,-0.7417496,-0.7417496,-0.7417496,-0.7399624,-0.7375281,-0.73512465,-0.73571014,-0.73571014,-0.73330665,-0.7296706,-0.7254491,-0.7242166,-0.72483283,-0.7254491,-0.72483283,-0.72301483,-0.72301483,-0.72363114,-0.72363114,-0.7218131,-0.71937877,-0.71697533,-0.712723,-0.7048655,-0.69518995,-0.68551445,-0.6812929,-0.6806767,-0.67885864,-0.67100114,-0.6540843,-0.630481,-0.6044742,-0.5821034,-0.5669738,-0.55973256,-0.55911624,-0.56577206,-0.5784673,-0.6020707,-0.6365205,-0.6770407,-0.7121375,-0.73512465,-0.7423659,-0.73872983,-0.73087233,-0.72483283,-0.72061133,-0.71879333,-0.7181771,-0.71879333,-0.7199951,-0.71879333,-0.7157736,-0.714541,-0.7218131,-0.7399624,-0.76535296,-0.7859058,-0.7720088,-0.66375995,-0.4200228,-0.032354414,0.4151851,0.7822697,0.914122,0.74174964,0.3365482,-0.15573293,-0.562136,-0.78710747,-0.8361014,-0.77743196,-0.69337195,-0.6365205,-0.61960375,-0.628663,-0.64499426,-0.65587157,-0.65950763,-0.6601238,-0.6589221,-0.65587157,-0.64983207,-0.64197457,-0.6365205,-0.63229907,-0.626845,-0.6201892,-0.6123317,-0.60690844,-0.6020707,-0.5942132,-0.5839214,-0.5724278,-0.56155056,-0.551875,-0.5421995,-0.532524,-0.52284837,-0.5143746,-0.5071026,-0.49804336,-0.4865498,-0.47505623,-0.46356267,-0.45025116,-0.43515235,-0.41820478,-0.40005547,-0.38495672,-0.36921084,-0.35109234,-0.32992327,-0.30573446,-0.28213108,-0.2585585,-0.23313713,-0.20472687,-0.175084,-0.14667368,-0.11884886,-0.09284198,-0.066835165,-0.04144454,-0.017255723,0.0051459074,0.02690041,0.04686773,0.06076467,0.06378448,0.05290723,0.027516723,-0.013003409,-0.06865317,-0.13819987,-0.21803844,-0.30086583,-0.3825224,-0.46054298,-0.53129137,-0.5929806,-0.64379257,-0.68492895,-0.71937877,-0.7508397,-0.7768465,-0.7961976,-0.80950916,-0.8185684,-0.8264259,-0.833698,-0.837334,-0.8367177,-0.8348997,-0.833698,-0.8324654,-0.8306782,-0.82704216,-0.8240224,-0.82340616,-0.8227899,-0.8203864,-0.81554866,-0.8100946,-0.8076911,-0.80707484,-0.80525684,-0.8016516,-0.79681385,-0.7961976,-0.7973993,-0.79681385,-0.79317784,-0.78652203,-0.78106797,-0.7780483,-0.7780483,-0.7786645,-0.7786645,-0.7798663,-0.78048253,-0.7798663,-0.7762302,-0.7720088,-0.770807,-0.77139246,-0.7725942,-0.77139246,-0.76775646,-0.7647367,-0.7623332,-0.7605152,-0.75869715,-0.75808096,-0.7605152,-0.76353496,-0.7659693,-0.7647367,-0.7623332,-0.7611315,-0.7605152,-0.7598989,-0.75749546,-0.75506115,-0.7538594,-0.7538594,-0.75324315,-0.7502234,-0.7465874,-0.74538565,-0.74538565,-0.74538565,-0.74298215,-0.7381444,-0.7338921,-0.7302869,-0.72905433,-0.72665083,-0.72483283,-0.7242166,-0.7242166,-0.7254491,-0.72665083,-0.72665083,-0.72665083,-0.72665083,-0.72665083,-0.7254491,-0.7242166,-0.7242166,-0.7242166,-0.72301483,-0.72061133,-0.71756077,-0.71697533,-0.71879333,-0.71937877,-0.71756077,-0.7139555,-0.70970327,-0.70729977,-0.7060672,-0.7036637,-0.700644,-0.69762427,-0.69518995,-0.69278646,-0.68853414,-0.68492895,-0.6836964,-0.68311095,-0.6806767,-0.67343545,-0.6643454,-0.6583059,-0.65587157,-0.6528518,-0.646196,-0.62986475,-0.60690844,-0.5827196,-0.56577206,-0.5560965,-0.55369306,-0.5567128,-0.56336856,-0.57544756,-0.59723294,-0.62927926,-0.6673651,-0.7030475,-0.7278526,-0.73571014,-0.7314886,-0.7223985,-0.7139555,-0.7103195,-0.70911777,-0.7085015,-0.71090496,-0.7121375,-0.712723,-0.712723,-0.71756077,-0.73450834,-0.7629187,-0.7913598,-0.7883401,-0.6921702,-0.4569069,-0.068036914,0.40187347,0.81129634,0.996364,0.8609065,0.46356273,-0.055957854,-0.50590086,-0.7683727,-0.8409392,-0.7895418,-0.7036637,-0.64135826,-0.61898744,-0.626845,-0.646196,-0.66375995,-0.67100114,-0.67100114,-0.66677964,-0.6619419,-0.6564878,-0.64983207,-0.6444088,-0.6401565,-0.63593507,-0.6310973,-0.62200725,-0.61112994,-0.6008381,-0.5911626,-0.5839214,-0.5766493,-0.5682063,-0.5609343,-0.5542785,-0.5458047,-0.5361292,-0.5246357,-0.5143746,-0.5034666,-0.4925893,-0.47807604,-0.46174467,-0.4454134,-0.42969835,-0.41518503,-0.39885378,-0.3837242,-0.3698271,-0.35349584,-0.33294302,-0.30752164,-0.278495,-0.2506702,-0.22407788,-0.19868731,-0.17086256,-0.14183587,-0.114596486,-0.08680248,-0.060179293,-0.031769037,-0.0033279061,0.021477103,0.04264629,0.05956304,0.07349086,0.081933856,0.07771242,0.058946848,0.025698781,-0.020275474,-0.07953042,-0.15271318,-0.23495519,-0.32203496,-0.40612578,-0.4829138,-0.55369306,-0.61596775,-0.6685977,-0.7103195,-0.74298215,-0.7701907,-0.7919453,-0.80950916,-0.82158816,-0.8300619,-0.837334,-0.8421717,-0.8445752,-0.8427572,-0.8409392,-0.8397375,-0.8397375,-0.8385357,-0.833698,-0.8282439,-0.82340616,-0.81977016,-0.8161649,-0.8107109,-0.8058731,-0.8040551,-0.8046714,-0.8064894,-0.8040551,-0.79860103,-0.79499584,-0.79256153,-0.7937633,-0.7943796,-0.7937633,-0.7919453,-0.7883401,-0.784704,-0.78106797,-0.77924997,-0.7816843,-0.7853203,-0.7883401,-0.78710747,-0.784704,-0.7835023,-0.7840878,-0.7859058,-0.7853203,-0.7835023,-0.7822697,-0.7822697,-0.782886,-0.7822697,-0.782886,-0.784704,-0.7859058,-0.7840878,-0.77924997,-0.77321047,-0.7701907,-0.770807,-0.77321047,-0.7725942,-0.770807,-0.76898897,-0.76775646,-0.7659693,-0.76353496,-0.7605152,-0.7611315,-0.76171696,-0.76171696,-0.75567746,-0.74902165,-0.74538565,-0.7441839,-0.74538565,-0.7435676,-0.7405479,-0.73872983,-0.73872983,-0.73934615,-0.7381444,-0.73512465,-0.73450834,-0.7338921,-0.73269033,-0.7278526,-0.72301483,-0.72061133,-0.7199951,-0.7211968,-0.7199951,-0.71879333,-0.71937877,-0.7199951,-0.7211968,-0.7199951,-0.71879333,-0.72061133,-0.72301483,-0.7223985,-0.7199951,-0.71756077,-0.71756077,-0.71879333,-0.7181771,-0.7133393,-0.7085015,-0.7066835,-0.7085015,-0.712723,-0.712723,-0.70970327,-0.7060672,-0.6982097,-0.69155395,-0.6836964,-0.6770407,-0.67525345,-0.67281914,-0.6679814,-0.6528518,-0.6280775,-0.6020707,-0.5833051,-0.5724278,-0.5645703,-0.560318,-0.560318,-0.5712261,-0.6002527,-0.6407728,-0.68492895,-0.7211968,-0.7405479,-0.74538565,-0.73571014,-0.7223985,-0.712723,-0.7085015,-0.70788527,-0.7066835,-0.7066835,-0.7085015,-0.70970327,-0.7133393,-0.71756077,-0.7296706,-0.7538594,-0.78048253,-0.78106797,-0.6903522,-0.46054298,-0.08073211,0.36921084,0.74902165,0.90081036,0.7369119,0.3238529,-0.19203156,-0.62382525,-0.8554525,-0.89295286,-0.81311435,-0.7121375,-0.64801407,-0.628663,-0.63833857,-0.65710413,-0.67281914,-0.67947495,-0.6776569,-0.6722028,-0.66554713,-0.6601238,-0.6540843,-0.646196,-0.63895476,-0.634117,-0.62927926,-0.6244415,-0.614766,-0.6044742,-0.5954149,-0.5899609,-0.5851231,-0.5772656,-0.5663883,-0.5560965,-0.546421,-0.5361292,-0.5246357,-0.51135486,-0.49804336,-0.48593348,-0.47505623,-0.46054298,-0.44602966,-0.4327181,-0.4188211,-0.40489322,-0.38677472,-0.3668074,-0.3462546,-0.32628727,-0.30752164,-0.28515083,-0.26157826,-0.2367732,-0.21138257,-0.18537581,-0.15634918,-0.1267063,-0.10008323,-0.075894415,-0.05232179,-0.028132975,-0.0021261573,0.02206266,0.041413665,0.054108977,0.05956304,0.054108977,0.035990477,0.0033279657,-0.0456661,-0.1091733,-0.18417406,-0.2670015,-0.34985977,-0.42969835,-0.5010631,-0.56577206,-0.62382525,-0.6740209,-0.71697533,-0.7508397,-0.7780483,-0.80103534,-0.81977016,-0.8324654,-0.8385357,-0.8415555,-0.843959,-0.8463932,-0.8487967,-0.8463932,-0.8415555,-0.8367177,-0.83188,-0.82944566,-0.82522416,-0.82158816,-0.81736666,-0.81311435,-0.8100946,-0.8058731,-0.80285335,-0.80103534,-0.8016516,-0.80285335,-0.8004191,-0.7973993,-0.79499584,-0.7937633,-0.7919453,-0.7877238,-0.7840878,-0.78106797,-0.78048253,-0.782886,-0.7835023,-0.7822697,-0.7822697,-0.7816843,-0.78106797,-0.77924997,-0.7780483,-0.77743196,-0.7780483,-0.77924997,-0.77743196,-0.7756448,-0.7744122,-0.7762302,-0.7762302,-0.77321047,-0.7701907,-0.76775646,-0.76775646,-0.7725942,-0.7725942,-0.770807,-0.7683727,-0.7665547,-0.76775646,-0.76717097,-0.7659693,-0.7659693,-0.7665547,-0.76717097,-0.7647367,-0.7623332,-0.7598989,-0.7605152,-0.7641512,-0.7647367,-0.7629187,-0.7598989,-0.7562937,-0.7520414,-0.74840534,-0.74600196,-0.74538565,-0.74720365,-0.7502234,-0.74902165,-0.74720365,-0.74480015,-0.7423659,-0.7405479,-0.73571014,-0.73087233,-0.7284689,-0.7278526,-0.7302869,-0.7320741,-0.7338921,-0.73571014,-0.73691183,-0.7375281,-0.7338921,-0.73087233,-0.72905433,-0.7296706,-0.72905433,-0.72483283,-0.7181771,-0.70970327,-0.702462,-0.6963917,-0.6879487,-0.6800912,-0.67525345,-0.6716174,-0.66677964,-0.64983207,-0.62382525,-0.5960004,-0.5760639,-0.5663883,-0.563954,-0.56759006,-0.5766493,-0.5960004,-0.62746125,-0.66496164,-0.70122945,-0.7278526,-0.7423659,-0.74298215,-0.7314886,-0.71879333,-0.71152127,-0.71152127,-0.716359,-0.71937877,-0.71937877,-0.7181771,-0.71756077,-0.71937877,-0.7242166,-0.7375281,-0.75931346,-0.782886,-0.77743196,-0.68311095,-0.4550889,-0.09102398,0.32869065,0.6710012,0.7913598,0.61960375,0.22346163,-0.2579422,-0.6510338,-0.85304904,-0.87298554,-0.7883401,-0.68915045,-0.62986475,-0.614766,-0.62564325,-0.6444088,-0.6589221,-0.6661633,-0.6643454,-0.65710413,-0.64983207,-0.64379257,-0.63895476,-0.63291526,-0.62625957,-0.6201892,-0.61596775,-0.6117462,-0.6026561,-0.5929806,-0.5839214,-0.5790836,-0.57544756,-0.56940806,-0.562136,-0.55369306,-0.54521924,-0.53736174,-0.5264536,-0.51496005,-0.5034666,-0.4944073,-0.4847318,-0.47142023,-0.45632142,-0.43999016,-0.42547685,-0.41154897,-0.39339972,-0.37346315,-0.3522941,-0.33171052,-0.31417745,-0.29362464,-0.2706375,-0.24404526,-0.21498781,-0.1865775,-0.15693462,-0.12910974,-0.10433549,-0.08196467,-0.060795665,-0.03660685,-0.013003409,0.009367347,0.026314974,0.035990477,0.039010286,0.030536413,0.007549405,-0.034172475,-0.09284198,-0.16238868,-0.23797494,-0.31661177,-0.39645028,-0.47385448,-0.54521924,-0.6087265,-0.6619419,-0.7066835,-0.7423659,-0.76898897,-0.7895418,-0.80707484,-0.82158816,-0.8324654,-0.837334,-0.8385357,-0.8379195,-0.8379195,-0.8385357,-0.8367177,-0.833698,-0.8306782,-0.82886016,-0.8264259,-0.8222044,-0.81795216,-0.81554866,-0.81373066,-0.8107109,-0.8040551,-0.7961976,-0.7901581,-0.7889255,-0.7907435,-0.7901581,-0.7877238,-0.784704,-0.7816843,-0.77924997,-0.7768465,-0.77502847,-0.7738268,-0.77502847,-0.7762302,-0.77502847,-0.77321047,-0.7720088,-0.7720088,-0.77321047,-0.7725942,-0.770807,-0.76898897,-0.7683727,-0.76775646,-0.76353496,-0.7598989,-0.75808096,-0.75869715,-0.7623332,-0.7629187,-0.76171696,-0.7605152,-0.7598989,-0.75931346,-0.7562937,-0.7526577,-0.7508397,-0.7502234,-0.75142515,-0.75142515,-0.7502234,-0.74963796,-0.7520414,-0.75324315,-0.7520414,-0.7478199,-0.7423659,-0.7399624,-0.7399624,-0.7405479,-0.7417496,-0.74116415,-0.7399624,-0.73872983,-0.73632634,-0.7338921,-0.7320741,-0.7320741,-0.73269033,-0.7320741,-0.7314886,-0.7296706,-0.72723633,-0.72483283,-0.72061133,-0.7181771,-0.71879333,-0.7223985,-0.72665083,-0.72723633,-0.7242166,-0.71937877,-0.71697533,-0.7157736,-0.7121375,-0.7066835,-0.69944227,-0.6946045,-0.6921702,-0.68976676,-0.6867162,-0.67885864,-0.66554713,-0.64379257,-0.61596775,-0.5923952,-0.57544756,-0.5669738,-0.56515574,-0.56515574,-0.5724278,-0.5905771,-0.62323976,-0.6643454,-0.69944227,-0.72301483,-0.73269033,-0.7314886,-0.7242166,-0.714541,-0.70788527,-0.7036637,-0.7048655,-0.7066835,-0.7066835,-0.70548177,-0.70428,-0.70729977,-0.71756077,-0.73512465,-0.75869715,-0.7762302,-0.75687915,-0.6431763,-0.39339972,-0.0075493455,0.4272641,0.7744123,0.88749886,0.70726895,0.30690527,-0.173266,-0.56577206,-0.7756448,-0.81373066,-0.7526577,-0.6740209,-0.6280775,-0.6208055,-0.63229907,-0.6486303,-0.6607094,-0.66918314,-0.67281914,-0.6703849,-0.66496164,-0.6589221,-0.6540843,-0.6492466,-0.64197457,-0.63168275,-0.6201892,-0.61112994,-0.6044742,-0.59723294,-0.5905771,-0.5833051,-0.5766493,-0.56940806,-0.55911624,-0.5476227,-0.53736174,-0.5282717,-0.5192124,-0.5089206,-0.4968416,-0.4847318,-0.47443998,-0.46356267,-0.45025116,-0.4363541,-0.42122453,-0.40732753,-0.39099622,-0.3710289,-0.34865808,-0.32628727,-0.3045019,-0.28151482,-0.25430626,-0.22589588,-0.19686931,-0.17024618,-0.14423937,-0.1152128,-0.08498448,-0.05472523,-0.028718531,-0.0069639683,0.014205217,0.034172416,0.05050385,0.058946848,0.0577451,0.045049787,0.018426657,-0.024496973,-0.08556992,-0.16057068,-0.2428127,-0.32748896,-0.41034728,-0.48775154,-0.5579145,-0.616584,-0.66554713,-0.7066835,-0.74298215,-0.7744122,-0.7973993,-0.81311435,-0.82522416,-0.8361014,-0.8445752,-0.8487967,-0.85002923,-0.849413,-0.849413,-0.849413,-0.845777,-0.8415555,-0.8385357,-0.837334,-0.8361014,-0.8324654,-0.8258404,-0.81918466,-0.81736666,-0.8167504,-0.81373066,-0.80889285,-0.8040551,-0.8016516,-0.80103534,-0.79860103,-0.7943796,-0.7895418,-0.7889255,-0.7913598,-0.79317784,-0.79317784,-0.7901581,-0.78710747,-0.7835023,-0.7786645,-0.7756448,-0.77743196,-0.7822697,-0.7877238,-0.7907435,-0.7895418,-0.78652203,-0.78652203,-0.7889255,-0.7889255,-0.7877238,-0.7853203,-0.7840878,-0.7835023,-0.7822697,-0.7798663,-0.7762302,-0.7762302,-0.7786645,-0.78048253,-0.78048253,-0.7798663,-0.7798663,-0.78106797,-0.78106797,-0.77924997,-0.7780483,-0.77743196,-0.77743196,-0.7744122,-0.770807,-0.76717097,-0.7665547,-0.7665547,-0.7647367,-0.7623332,-0.7598989,-0.7611315,-0.76535296,-0.76775646,-0.7683727,-0.76717097,-0.7659693,-0.7641512,-0.7611315,-0.75749546,-0.75324315,-0.75142515,-0.74963796,-0.74600196,-0.7423659,-0.7399624,-0.7405479,-0.7423659,-0.74116415,-0.7375281,-0.7338921,-0.7320741,-0.7320741,-0.7314886,-0.72905433,-0.72483283,-0.72301483,-0.7223985,-0.7218131,-0.7211968,-0.7199951,-0.7181771,-0.7133393,-0.70428,-0.6946045,-0.68492895,-0.68249464,-0.6806767,-0.67645514,-0.66496164,-0.64197457,-0.616584,-0.5954149,-0.5833051,-0.57966906,-0.5802853,-0.5827196,-0.5905771,-0.6062922,-0.6347333,-0.67343545,-0.712723,-0.7417496,-0.7544757,-0.7508397,-0.73934615,-0.72905433,-0.72483283,-0.72363114,-0.72301483,-0.72301483,-0.72363114,-0.72483283,-0.7260345,-0.72905433,-0.7399624,-0.7641512,-0.7913598,-0.7961976,-0.71879333,-0.5107386,-0.15511662,0.29544258,0.7085016,0.9328568,0.85545254,0.5071026,0.014205217,-0.4430099,-0.7314886,-0.82704216,-0.79317784,-0.714541,-0.6546699,-0.63229907,-0.63833857,-0.65587157,-0.6716174,-0.6800912,-0.6812929,-0.67885864,-0.67583895,-0.6716174,-0.66496164,-0.65710413,-0.64801407,-0.6401565,-0.63229907,-0.62323976,-0.61294794,-0.60388875,-0.59723294,-0.5905771,-0.5821034,-0.5724278,-0.562136,-0.5548948,-0.5488553,-0.5415832,-0.5319077,-0.5204141,-0.5089206,-0.4986288,-0.48716605,-0.47323823,-0.45810866,-0.4442116,-0.42908204,-0.41216528,-0.39463222,-0.37768465,-0.3601516,-0.34138602,-0.31842977,-0.29119033,-0.26339626,-0.23797494,-0.21196812,-0.1847595,-0.15453118,-0.12368655,-0.09404373,-0.06621891,-0.038394034,-0.011185408,0.01482141,0.036576033,0.05592704,0.0716728,0.080115914,0.077096105,0.0577451,0.022678971,-0.027516723,-0.09040773,-0.16420668,-0.2482667,-0.33596277,-0.4200228,-0.4968416,-0.5645703,-0.62625957,-0.6806767,-0.7254491,-0.75931346,-0.7835023,-0.8022371,-0.8167504,-0.82886016,-0.8379195,-0.8451915,-0.8518473,-0.8572705,-0.8597048,-0.8602902,-0.8597048,-0.8597048,-0.8584722,-0.8536345,-0.84700954,-0.8397375,-0.835516,-0.8342834,-0.83188,-0.8282439,-0.82340616,-0.82158816,-0.81977016,-0.81736666,-0.8143469,-0.8100946,-0.8076911,-0.8076911,-0.80707484,-0.80525684,-0.8016516,-0.79860103,-0.79499584,-0.7919453,-0.7889255,-0.7889255,-0.79256153,-0.7955813,-0.7955813,-0.7919453,-0.7877238,-0.784704,-0.7853203,-0.7859058,-0.7859058,-0.784704,-0.784704,-0.7853203,-0.78710747,-0.7889255,-0.7895418,-0.7913598,-0.7907435,-0.78652203,-0.78106797,-0.77743196,-0.7780483,-0.78106797,-0.7835023,-0.7835023,-0.782886,-0.7835023,-0.7840878,-0.7835023,-0.78048253,-0.77743196,-0.7786645,-0.7798663,-0.78106797,-0.77924997,-0.77502847,-0.7725942,-0.7701907,-0.7659693,-0.7611315,-0.75567746,-0.75506115,-0.75567746,-0.75687915,-0.75567746,-0.7544757,-0.7538594,-0.7520414,-0.74963796,-0.7435676,-0.73872983,-0.73872983,-0.74116415,-0.7423659,-0.74116415,-0.7381444,-0.73571014,-0.73450834,-0.73269033,-0.7302869,-0.72723633,-0.72665083,-0.7278526,-0.7284689,-0.7278526,-0.72665083,-0.72665083,-0.7254491,-0.72363114,-0.72061133,-0.716359,-0.71152127,-0.7036637,-0.69337195,-0.6812929,-0.6716174,-0.6661633,-0.6613256,-0.6522664,-0.63291526,-0.6081102,-0.5869411,-0.57304406,-0.56759006,-0.56577206,-0.5663883,-0.57362956,-0.5905771,-0.6208055,-0.6601238,-0.70184577,-0.73691183,-0.75749546,-0.7611315,-0.7526577,-0.7399624,-0.7314886,-0.7284689,-0.7278526,-0.7260345,-0.72363114,-0.72301483,-0.7223985,-0.7254491,-0.73512465,-0.7562937,-0.7840878,-0.7955813,-0.73571014,-0.548239,-0.21258438,0.22829938,0.65103376,0.90444636,0.8639263,0.5439867,0.057159543,-0.4206391,-0.7381444,-0.8524327,-0.8203864,-0.73330665,-0.66375995,-0.6371368,-0.6444088,-0.66554713,-0.6867162,-0.700644,-0.7048655,-0.70122945,-0.69337195,-0.68733245,-0.68311095,-0.6782732,-0.6703849,-0.6613256,-0.6540843,-0.64742863,-0.64135826,-0.63350075,-0.6244415,-0.616584,-0.60931194,-0.6020707,-0.5917789,-0.5802853,-0.56940806,-0.55973256,-0.54944074,-0.5385635,-0.5258682,-0.5143746,-0.5022648,-0.48895323,-0.47385448,-0.45810866,-0.4423936,-0.42547685,-0.40732753,-0.38677472,-0.36498934,-0.3444366,-0.32326746,-0.3002804,-0.27488983,-0.2482667,-0.22225988,-0.19563681,-0.1672265,-0.13576561,-0.103719294,-0.07469261,-0.04868579,-0.02388072,0.00089359283,0.025698781,0.046251535,0.06258273,0.07225835,0.07225835,0.05956304,0.028718352,-0.018457472,-0.08014667,-0.15271318,-0.23255175,-0.31781346,-0.40550953,-0.4883678,-0.56155056,-0.62502694,-0.6806767,-0.7284689,-0.76775646,-0.7973993,-0.81795216,-0.833698,-0.8463932,-0.8572705,-0.8639263,-0.8681478,-0.8717838,-0.8742181,-0.8742181,-0.87058204,-0.86512804,-0.86090654,-0.8578868,-0.85668504,-0.85486704,-0.851231,-0.8482112,-0.8445752,-0.8409392,-0.835516,-0.8306782,-0.82762766,-0.8240224,-0.82158816,-0.81795216,-0.8161649,-0.81493235,-0.81311435,-0.80889285,-0.8034388,-0.79860103,-0.79921734,-0.8016516,-0.8040551,-0.8046714,-0.80285335,-0.8016516,-0.7998336,-0.79860103,-0.7961976,-0.7955813,-0.7980156,-0.8004191,-0.8004191,-0.7973993,-0.79256153,-0.7901581,-0.7889255,-0.7877238,-0.7853203,-0.7835023,-0.782886,-0.7840878,-0.784704,-0.7840878,-0.782886,-0.7835023,-0.784704,-0.7853203,-0.784704,-0.784704,-0.7859058,-0.78710747,-0.7877238,-0.784704,-0.78106797,-0.78048253,-0.78106797,-0.78106797,-0.7798663,-0.77743196,-0.7768465,-0.7780483,-0.7798663,-0.7780483,-0.7744122,-0.7720088,-0.76957446,-0.7665547,-0.76353496,-0.7598989,-0.75931346,-0.7598989,-0.76171696,-0.7623332,-0.76171696,-0.76171696,-0.7598989,-0.75808096,-0.75506115,-0.75142515,-0.74902165,-0.7465874,-0.7435676,-0.7375281,-0.7338921,-0.73269033,-0.7320741,-0.7314886,-0.72723633,-0.7218131,-0.714541,-0.7066835,-0.69762427,-0.6879487,-0.6806767,-0.67645514,-0.6679814,-0.6504483,-0.6244415,-0.59905094,-0.5845068,-0.58148706,-0.5839214,-0.5863248,-0.5905771,-0.6044742,-0.63168275,-0.6703849,-0.70970327,-0.7405479,-0.75931346,-0.7641512,-0.75931346,-0.74902165,-0.73934615,-0.73512465,-0.73269033,-0.7302869,-0.72665083,-0.72363114,-0.7242166,-0.7284689,-0.7381444,-0.75567746,-0.7780483,-0.7943796,-0.75324315,-0.5942132,-0.2791114,0.15453124,0.5833051,0.8499985,0.8167504,0.4907713,-0.00878197,-0.5004468,-0.82158816,-0.9274335,-0.87119836,-0.75567746,-0.66554713,-0.6280775,-0.63168275,-0.6492466,-0.66496164,-0.67525345,-0.6776569,-0.6746372,-0.6703849,-0.66375995,-0.6583059,-0.6522664,-0.64499426,-0.63531876,-0.62746125,-0.62382525,-0.62200725,-0.61898744,-0.6123317,-0.60327244,-0.59359694,-0.5845068,-0.57544756,-0.56336856,-0.55125874,-0.54038143,-0.5294734,-0.52161586,-0.5101223,-0.49804336,-0.48775154,-0.47687423,-0.46538073,-0.4490494,-0.43151635,-0.41398335,-0.39765197,-0.3807044,-0.3607679,-0.33716452,-0.31359196,-0.2887869,-0.26521432,-0.23979294,-0.21258438,-0.18537581,-0.15875262,-0.13034236,-0.10131574,-0.07349086,-0.049887538,-0.028132975,-0.008165717,0.0130034685,0.032970786,0.04686773,0.054108977,0.051089168,0.037808537,0.009983659,-0.035374224,-0.09888148,-0.175084,-0.2579422,-0.34320402,-0.42969835,-0.51135486,-0.5851231,-0.646196,-0.6963917,-0.7375281,-0.770807,-0.7980156,-0.8203864,-0.8385357,-0.85486704,-0.8675623,-0.87541986,-0.87843955,-0.87723786,-0.8742181,-0.87119836,-0.8675623,-0.86090654,-0.85606873,-0.8524327,-0.8487967,-0.8451915,-0.8397375,-0.835516,-0.8324654,-0.83308166,-0.833698,-0.83188,-0.82704216,-0.8227899,-0.8185684,-0.81554866,-0.81311435,-0.8119126,-0.8125289,-0.81373066,-0.8125289,-0.80707484,-0.79921734,-0.7955813,-0.7955813,-0.7973993,-0.79921734,-0.7998336,-0.79921734,-0.7980156,-0.7973993,-0.79499584,-0.79256153,-0.79317784,-0.7943796,-0.79317784,-0.7877238,-0.78106797,-0.7786645,-0.77924997,-0.7835023,-0.784704,-0.782886,-0.7816843,-0.78048253,-0.7786645,-0.7768465,-0.77502847,-0.7768465,-0.77924997,-0.7822697,-0.7822697,-0.7816843,-0.7822697,-0.782886,-0.782886,-0.7798663,-0.77502847,-0.7725942,-0.77139246,-0.7738268,-0.7744122,-0.7744122,-0.7744122,-0.77321047,-0.77139246,-0.7683727,-0.7659693,-0.76535296,-0.7641512,-0.7629187,-0.75687915,-0.75142515,-0.7478199,-0.7441839,-0.73934615,-0.7302869,-0.71879333,-0.71090496,-0.70911777,-0.7085015,-0.7036637,-0.68853414,-0.6661633,-0.6425909,-0.62382525,-0.60931194,-0.6008381,-0.59905094,-0.6044742,-0.6208055,-0.6492466,-0.68551445,-0.7242166,-0.75506115,-0.77139246,-0.77139246,-0.7623332,-0.7520414,-0.7465874,-0.74480015,-0.74298215,-0.7423659,-0.7441839,-0.74720365,-0.74963796,-0.74840534,-0.74902165,-0.75931346,-0.77924997,-0.8016516,-0.80103534,-0.72665083,-0.53129137,-0.19686931,0.21316981,0.57846737,0.74778914,0.6238252,0.2543062,-0.23011744,-0.64983207,-0.88691336,-0.9340893,-0.8584722,-0.75506115,-0.68249464,-0.65710413,-0.66375995,-0.6782732,-0.68915045,-0.6903522,-0.6861307,-0.68249464,-0.67947495,-0.67645514,-0.66918314,-0.6601238,-0.65346813,-0.6486303,-0.6456106,-0.63895476,-0.6310973,-0.6244415,-0.6177857,-0.6123317,-0.60327244,-0.5942132,-0.5845068,-0.57544756,-0.56577206,-0.5548948,-0.5439867,-0.5355437,-0.5264536,-0.51496005,-0.49924505,-0.48109573,-0.46476442,-0.45086747,-0.43875754,-0.42365885,-0.40732753,-0.38979447,-0.37404865,-0.3619696,-0.34804177,-0.32628727,-0.29300833,-0.25430626,-0.21378613,-0.17628568,-0.14849174,-0.12368655,-0.10008323,-0.07712686,-0.052907348,-0.027516723,-0.0045297146,0.016023159,0.031152725,0.039595723,0.039010286,0.023264408,-0.008165717,-0.058361292,-0.12186855,-0.196253,-0.27667707,-0.35953534,-0.43999016,-0.51496005,-0.5839214,-0.646196,-0.6982097,-0.7399624,-0.76898897,-0.7895418,-0.8058731,-0.81977016,-0.8324654,-0.8421717,-0.8506147,-0.8578868,-0.8621083,-0.86272454,-0.8572705,-0.851231,-0.845777,-0.8421717,-0.8415555,-0.8385357,-0.835516,-0.833698,-0.83188,-0.82886016,-0.8227899,-0.81736666,-0.81311435,-0.8107109,-0.80950916,-0.80525684,-0.8004191,-0.7973993,-0.7961976,-0.7955813,-0.79256153,-0.7889255,-0.7883401,-0.7889255,-0.7901581,-0.7889255,-0.7859058,-0.7853203,-0.78710747,-0.7901581,-0.7913598,-0.79256153,-0.7919453,-0.7919453,-0.7901581,-0.7859058,-0.7816843,-0.7798663,-0.78106797,-0.782886,-0.7816843,-0.7798663,-0.7780483,-0.7780483,-0.7786645,-0.77743196,-0.7780483,-0.78106797,-0.7853203,-0.7877238,-0.7853203,-0.7798663,-0.7744122,-0.77139246,-0.76957446,-0.76775646,-0.7659693,-0.76717097,-0.76957446,-0.77139246,-0.7683727,-0.76353496,-0.7611315,-0.7611315,-0.76171696,-0.75567746,-0.74480015,-0.73450834,-0.72723633,-0.72483283,-0.7223985,-0.71879333,-0.712723,-0.70122945,-0.68551445,-0.6625273,-0.6407728,-0.62625957,-0.6177857,-0.61356425,-0.61294794,-0.61960375,-0.63895476,-0.6722028,-0.7133393,-0.7478199,-0.770807,-0.78106797,-0.7780483,-0.7683727,-0.75749546,-0.74963796,-0.7465874,-0.74538565,-0.74538565,-0.74298215,-0.74116415,-0.7405479,-0.7423659,-0.7465874,-0.75324315,-0.76898897,-0.7895418,-0.80525684,-0.77924997,-0.65346813,-0.39037997,-0.0003080964,0.4248606,0.7472036,0.82522416,0.61171544,0.1877793,-0.29424095,-0.66979945,-0.8524327,-0.86694604,-0.7907435,-0.7060672,-0.6583059,-0.6468123,-0.6576896,-0.6746372,-0.6861307,-0.68915045,-0.6836964,-0.67525345,-0.66918314,-0.6661633,-0.6643454,-0.6589221,-0.6516501,-0.6431763,-0.63593507,-0.62927926,-0.62200725,-0.61596775,-0.60992825,-0.60509044,-0.5984347,-0.5881429,-0.5772656,-0.56759006,-0.55973256,-0.55307674,-0.5427849,-0.5294734,-0.5161927,-0.50288105,-0.49077123,-0.47687423,-0.46356267,-0.44966567,-0.43515235,-0.4200228,-0.40005547,-0.37706834,-0.35411215,-0.3305087,-0.3063199,-0.2791114,-0.25008476,-0.22225988,-0.19384956,-0.16661018,-0.13699812,-0.1073553,-0.08134848,-0.05654329,-0.031152785,-0.0027116537,0.02508235,0.04686773,0.058361292,0.05956304,0.05050385,0.025698781,-0.01784122,-0.07832867,-0.15209693,-0.23131913,-0.31417745,-0.39823747,-0.47989398,-0.5542785,-0.61596775,-0.66677964,-0.71090496,-0.74963796,-0.782886,-0.8076911,-0.8264259,-0.8403537,-0.85002923,-0.85668504,-0.85908854,-0.8597048,-0.8621083,-0.86454254,-0.86694604,-0.86454254,-0.8584722,-0.85304904,-0.8487967,-0.845777,-0.8415555,-0.837334,-0.833698,-0.83126366,-0.8282439,-0.8222044,-0.81493235,-0.80950916,-0.80707484,-0.8064894,-0.8046714,-0.80285335,-0.80103534,-0.79921734,-0.7961976,-0.7901581,-0.784704,-0.7835023,-0.78710747,-0.79317784,-0.7955813,-0.79499584,-0.7913598,-0.7859058,-0.7816843,-0.7762302,-0.7738268,-0.77502847,-0.7786645,-0.7816843,-0.7786645,-0.7720088,-0.7665547,-0.76353496,-0.7647367,-0.7665547,-0.7683727,-0.76898897,-0.7683727,-0.76775646,-0.76535296,-0.76353496,-0.7647367,-0.76717097,-0.7701907,-0.76898897,-0.7659693,-0.7623332,-0.7598989,-0.75931346,-0.75687915,-0.75324315,-0.7502234,-0.74840534,-0.74720365,-0.7441839,-0.74116415,-0.7405479,-0.7417496,-0.74538565,-0.7465874,-0.7465874,-0.74480015,-0.7423659,-0.7399624,-0.7338921,-0.72905433,-0.7260345,-0.7254491,-0.7278526,-0.7284689,-0.7284689,-0.72905433,-0.7302869,-0.7302869,-0.7260345,-0.71937877,-0.7103195,-0.702462,-0.69518995,-0.68733245,-0.6812929,-0.6776569,-0.67281914,-0.66496164,-0.646196,-0.6201892,-0.5960004,-0.57966906,-0.5724278,-0.5682063,-0.5663883,-0.5712261,-0.5869411,-0.61596775,-0.6540843,-0.69278646,-0.72483283,-0.74480015,-0.7502234,-0.7405479,-0.72665083,-0.716359,-0.714541,-0.71756077,-0.71756077,-0.716359,-0.7139555,-0.7139555,-0.71756077,-0.72483283,-0.7399624,-0.7641512,-0.7895418,-0.79256153,-0.714541,-0.5077188,-0.15151137,0.30028045,0.7187625,0.952824,0.8802576,0.53372574,0.036576033,-0.4327181,-0.73330665,-0.8391212,-0.80950916,-0.7296706,-0.66375995,-0.63350075,-0.63168275,-0.64499426,-0.6601238,-0.6722028,-0.67583895,-0.6746372,-0.67100114,-0.6673651,-0.6643454,-0.6583059,-0.6522664,-0.646196,-0.6407728,-0.634117,-0.62382525,-0.6123317,-0.6020707,-0.5954149,-0.5899609,-0.5827196,-0.5742458,-0.56577206,-0.5567128,-0.548239,-0.53736174,-0.52525187,-0.51375836,-0.50288105,-0.4925893,-0.47749054,-0.46115923,-0.44359535,-0.42729485,-0.41154897,-0.39281422,-0.37346315,-0.35349584,-0.33294302,-0.3099559,-0.28151482,-0.25008476,-0.21803844,-0.18839556,-0.16238868,-0.1345638,-0.10492092,-0.07530886,-0.04446435,-0.014205217,0.017224908,0.046251535,0.07044029,0.08738792,0.09826517,0.10430467,0.09946692,0.07891405,0.039595723,-0.01784122,-0.08680248,-0.16359043,-0.24706501,-0.33171052,-0.41580135,-0.49077123,-0.55729824,-0.61356425,-0.6625273,-0.7036637,-0.73512465,-0.75931346,-0.77924997,-0.7955813,-0.8076911,-0.8143469,-0.81736666,-0.81918466,-0.8203864,-0.82158816,-0.8203864,-0.81918466,-0.81736666,-0.8167504,-0.81554866,-0.8100946,-0.8046714,-0.7998336,-0.79681385,-0.79681385,-0.79499584,-0.7919453,-0.7901581,-0.78710747,-0.7840878,-0.77924997,-0.7768465,-0.77502847,-0.77321047,-0.770807,-0.7647367,-0.75808096,-0.75687915,-0.75931346,-0.7629187,-0.7641512,-0.7623332,-0.76171696,-0.7629187,-0.76775646,-0.76898897,-0.76957446,-0.7683727,-0.76717097,-0.76717097,-0.7641512,-0.7605152,-0.75749546,-0.75687915,-0.75808096,-0.75749546,-0.7544757,-0.75142515,-0.74902165,-0.7478199,-0.74538565,-0.74298215,-0.7417496,-0.74298215,-0.74538565,-0.7441839,-0.74116415,-0.7381444,-0.73691183,-0.7375281,-0.73691183,-0.73571014,-0.73330665,-0.7338921,-0.73450834,-0.7320741,-0.72905433,-0.7254491,-0.7223985,-0.7218131,-0.7199951,-0.7181771,-0.7157736,-0.716359,-0.71756077,-0.71697533,-0.71697533,-0.716359,-0.71756077,-0.71937877,-0.71879333,-0.7157736,-0.7121375,-0.7103195,-0.7103195,-0.70970327,-0.70911777,-0.7085015,-0.70788527,-0.7060672,-0.70122945,-0.69518995,-0.6909685,-0.68976676,-0.6909685,-0.6909685,-0.6903522,-0.68976676,-0.6909685,-0.69278646,-0.6909685,-0.6867162,-0.68311095,-0.68249464,-0.68311095,-0.68249464,-0.6806767,-0.6770407,-0.6722028,-0.66554713,-0.65587157,-0.6456106,-0.637753,-0.634117,-0.6310973,-0.61898744,-0.5966166,-0.56940806,-0.546421,-0.5343112,-0.5319077,-0.5331094,-0.53736174,-0.546421,-0.5645703,-0.5942132,-0.63350075,-0.67343545,-0.7048655,-0.7211968,-0.71937877,-0.70911777,-0.69944227,-0.69580626,-0.697008,-0.697008,-0.6946045,-0.68976676,-0.68853414,-0.6909685,-0.7000277,-0.72061133,-0.7508397,-0.7780483,-0.75749546,-0.6226235,-0.33534652,0.09284198,0.5579145,0.90808237,0.9939604,0.7701907,0.3202169,-0.19203156,-0.5893446,-0.784704,-0.8034388,-0.7296706,-0.6492466,-0.60931194,-0.6087265,-0.6280775,-0.6504483,-0.6673651,-0.6746372,-0.6722028,-0.6679814,-0.6643454,-0.6625273,-0.65950763,-0.6516501,-0.6425909,-0.634117,-0.62746125,-0.62200725,-0.6123317,-0.59963644,-0.5881429,-0.5802853,-0.5742458,-0.5669738,-0.5585308,-0.54944074,-0.5415832,-0.5337257,-0.52284837,-0.50953686,-0.49560905,-0.4823283,-0.46960223,-0.45450342,-0.43937385,-0.42606235,-0.41216528,-0.39645028,-0.37586665,-0.35349584,-0.33112502,-0.3123594,-0.29180664,-0.26641607,-0.23738945,-0.20774662,-0.17992175,-0.15332943,-0.12427205,-0.09342742,-0.061997354,-0.032354414,-0.006347716,0.019659162,0.045049787,0.0674206,0.08436811,0.09586167,0.10190117,0.09706342,0.07832861,0.039010286,-0.01904291,-0.09040773,-0.17086256,-0.257326,-0.3462546,-0.4327181,-0.5107386,-0.5784673,-0.6347333,-0.68311095,-0.72301483,-0.7538594,-0.77743196,-0.7943796,-0.80950916,-0.8222044,-0.83126366,-0.8385357,-0.843959,-0.8487967,-0.851231,-0.8518473,-0.847595,-0.8415555,-0.8348997,-0.82886016,-0.8227899,-0.81736666,-0.81311435,-0.81132716,-0.8100946,-0.80889285,-0.8082766,-0.8064894,-0.8058731,-0.80285335,-0.7973993,-0.7889255,-0.78048253,-0.7756448,-0.7744122,-0.7738268,-0.77502847,-0.7768465,-0.77924997,-0.7816843,-0.7816843,-0.7816843,-0.7822697,-0.7840878,-0.7853203,-0.7816843,-0.7786645,-0.7756448,-0.7762302,-0.7786645,-0.7780483,-0.7762302,-0.7768465,-0.7798663,-0.7822697,-0.7798663,-0.77321047,-0.76775646,-0.76898897,-0.7744122,-0.77924997,-0.7786645,-0.7738268,-0.7701907,-0.76957446,-0.7701907,-0.76898897,-0.7659693,-0.76353496,-0.7629187,-0.7623332,-0.7598989,-0.75749546,-0.7562937,-0.75749546,-0.75808096,-0.75749546,-0.7538594,-0.7520414,-0.7508397,-0.74902165,-0.7465874,-0.7423659,-0.73934615,-0.7381444,-0.73512465,-0.7314886,-0.7278526,-0.72723633,-0.7278526,-0.7278526,-0.72723633,-0.7260345,-0.72665083,-0.7260345,-0.7242166,-0.7223985,-0.7223985,-0.72665083,-0.7320741,-0.73269033,-0.7284689,-0.7223985,-0.7181771,-0.7181771,-0.71937877,-0.71937877,-0.71697533,-0.714541,-0.7133393,-0.7103195,-0.7085015,-0.7085015,-0.70911777,-0.7085015,-0.70184577,-0.6903522,-0.67885864,-0.67100114,-0.66677964,-0.66375995,-0.6583059,-0.646196,-0.6280775,-0.6081102,-0.5899609,-0.5790836,-0.5748313,-0.5748313,-0.5760639,-0.5839214,-0.6044742,-0.63833857,-0.6812929,-0.7199951,-0.74116415,-0.74538565,-0.7381444,-0.7278526,-0.7199951,-0.716359,-0.7157736,-0.7151573,-0.7157736,-0.716359,-0.716359,-0.71756077,-0.7254491,-0.74600196,-0.7744122,-0.7973993,-0.7720088,-0.6371368,-0.35349584,0.05592704,0.48713517,0.7895417,0.81431615,0.53733087,0.06319904,-0.4321326,-0.77924997,-0.914122,-0.8802576,-0.7720088,-0.6770407,-0.630481,-0.6244415,-0.64197457,-0.6601238,-0.6685977,-0.66979945,-0.6661633,-0.66375995,-0.6607094,-0.6564878,-0.6504483,-0.6425909,-0.63531876,-0.62625957,-0.614766,-0.60327244,-0.59359694,-0.5881429,-0.5827196,-0.5760639,-0.5682063,-0.560318,-0.55548024,-0.55125874,-0.54340124,-0.53129137,-0.5161927,-0.5022648,-0.49018586,-0.47807604,-0.46599704,-0.45388716,-0.4430099,-0.4321326,-0.4188211,-0.40067178,-0.38011897,-0.35771734,-0.33534652,-0.3129757,-0.29119033,-0.26823407,-0.24583244,-0.22105813,-0.19203156,-0.16057068,-0.12910974,-0.10313374,-0.08134848,-0.058977664,-0.034788787,-0.009367406,0.013588786,0.033556223,0.05050385,0.061997294,0.065017104,0.05472529,0.02690041,-0.016639471,-0.07651067,-0.14849174,-0.2307337,-0.31599545,-0.39823747,-0.47625798,-0.546421,-0.6105137,-0.66677964,-0.7139555,-0.7538594,-0.7859058,-0.8119126,-0.8306782,-0.8403537,-0.843959,-0.845777,-0.8487967,-0.8524327,-0.8518473,-0.847595,-0.8421717,-0.8385357,-0.8367177,-0.8348997,-0.82944566,-0.8240224,-0.82158816,-0.81977016,-0.81918466,-0.81493235,-0.80889285,-0.8034388,-0.8004191,-0.7973993,-0.79499584,-0.79317784,-0.79317784,-0.7913598,-0.7895418,-0.7859058,-0.7816843,-0.78048253,-0.7798663,-0.7780483,-0.7768465,-0.7762302,-0.7780483,-0.78106797,-0.78048253,-0.77743196,-0.77321047,-0.770807,-0.770807,-0.770807,-0.770807,-0.770807,-0.77321047,-0.77502847,-0.7744122,-0.77139246,-0.76775646,-0.7665547,-0.76717097,-0.76717097,-0.76535296,-0.7629187,-0.76171696,-0.7605152,-0.75749546,-0.75324315,-0.7502234,-0.7502234,-0.7526577,-0.7520414,-0.7502234,-0.74840534,-0.74963796,-0.75324315,-0.75567746,-0.7544757,-0.7502234,-0.7465874,-0.74538565,-0.74480015,-0.74480015,-0.7435676,-0.7441839,-0.7435676,-0.7405479,-0.73571014,-0.7302869,-0.7284689,-0.7278526,-0.7284689,-0.72905433,-0.72905433,-0.73087233,-0.7302869,-0.72905433,-0.7260345,-0.72301483,-0.7218131,-0.7199951,-0.71697533,-0.712723,-0.7085015,-0.7066835,-0.7066835,-0.70548177,-0.70184577,-0.69518995,-0.68733245,-0.6776569,-0.66918314,-0.6619419,-0.65587157,-0.6468123,-0.6310973,-0.60992825,-0.5905771,-0.5784673,-0.57544756,-0.5766493,-0.5790836,-0.5857394,-0.6026561,-0.63350075,-0.67100114,-0.70428,-0.72483283,-0.7320741,-0.73087233,-0.7254491,-0.71937877,-0.7133393,-0.70911777,-0.70729977,-0.70729977,-0.70788527,-0.7103195,-0.7139555,-0.7254491,-0.74480015,-0.76957446,-0.7883401,-0.7641512,-0.63895476,-0.3722306,0.02508235,0.45268548,0.7683728,0.8222045,0.58087075,0.13940167,-0.34563828,-0.70548177,-0.86938035,-0.86636055,-0.7768465,-0.68311095,-0.62986475,-0.61960375,-0.63291526,-0.6504483,-0.6619419,-0.66496164,-0.66375995,-0.6625273,-0.6607094,-0.6564878,-0.6504483,-0.64379257,-0.6365205,-0.62927926,-0.62200725,-0.61294794,-0.60567594,-0.59963644,-0.5942132,-0.5887591,-0.5821034,-0.57362956,-0.56577206,-0.55729824,-0.5476227,-0.5385635,-0.5307059,-0.5222322,-0.51375836,-0.5040828,-0.4925893,-0.48109573,-0.46658242,-0.44966567,-0.4303146,-0.41216528,-0.39521772,-0.37950265,-0.35953534,-0.33654827,-0.3105722,-0.2869689,-0.26398176,-0.23979294,-0.21378613,-0.18596125,-0.15816724,-0.12972611,-0.10190123,-0.07349086,-0.04628235,-0.023295283,-0.0021261573,0.0178411,0.035374284,0.04748404,0.04748404,0.034172416,0.0051459074,-0.040828288,-0.10190123,-0.17810374,-0.26278,-0.34865808,-0.4303146,-0.50590086,-0.57362956,-0.63168275,-0.67885864,-0.7157736,-0.74600196,-0.7725942,-0.7943796,-0.8119126,-0.8227899,-0.8300619,-0.8367177,-0.8421717,-0.8463932,-0.84700954,-0.843959,-0.8421717,-0.8385357,-0.8342834,-0.82886016,-0.8246079,-0.82762766,-0.82886016,-0.82522416,-0.81493235,-0.79921734,-0.7895418,-0.7889255,-0.7913598,-0.7919453,-0.7883401,-0.784704,-0.7816843,-0.7798663,-0.7762302,-0.7720088,-0.7683727,-0.7665547,-0.76717097,-0.76898897,-0.7701907,-0.77139246,-0.7720088,-0.770807,-0.76898897,-0.76717097,-0.76775646,-0.7683727,-0.76898897,-0.76775646,-0.76535296,-0.76353496,-0.76171696,-0.7598989,-0.75869715,-0.75869715,-0.7598989,-0.7598989,-0.75687915,-0.7520414,-0.74840534,-0.74840534,-0.74963796,-0.7508397,-0.74963796,-0.74720365,-0.7478199,-0.74963796,-0.75142515,-0.7502234,-0.7478199,-0.7465874,-0.74600196,-0.7435676,-0.73934615,-0.73450834,-0.73330665,-0.73450834,-0.73632634,-0.73691183,-0.73450834,-0.73330665,-0.73087233,-0.72723633,-0.7223985,-0.71756077,-0.716359,-0.7181771,-0.72061133,-0.7211968,-0.72061133,-0.72061133,-0.7211968,-0.7218131,-0.7211968,-0.71937877,-0.71697533,-0.7139555,-0.7103195,-0.7060672,-0.7030475,-0.70428,-0.7060672,-0.70729977,-0.70548177,-0.7000277,-0.6946045,-0.68976676,-0.68249464,-0.67343545,-0.6643454,-0.6576896,-0.6540843,-0.6510338,-0.6468123,-0.6347333,-0.6141497,-0.5881429,-0.56336856,-0.5476227,-0.5427849,-0.54521924,-0.550057,-0.55911624,-0.5742458,-0.6002527,-0.637753,-0.67583895,-0.70428,-0.7181771,-0.71697533,-0.70729977,-0.69580626,-0.6879487,-0.68311095,-0.6812929,-0.68311095,-0.68551445,-0.68733245,-0.68733245,-0.68976676,-0.7030475,-0.7278526,-0.7544757,-0.75749546,-0.6800912,-0.47687423,-0.12550455,0.31963146,0.73025596,0.9540256,0.87541986,0.52888787,0.037192225,-0.4200228,-0.71152127,-0.8125289,-0.78048253,-0.7000277,-0.634117,-0.6081102,-0.6141497,-0.63291526,-0.6492466,-0.65710413,-0.65710413,-0.6546699,-0.6516501,-0.64742863,-0.6425909,-0.6365205,-0.63229907,-0.626845,-0.61960375,-0.60931194,-0.5984347,-0.5911626,-0.5863248,-0.5809016,-0.57181156,-0.56155056,-0.5524605,-0.5439867,-0.5361292,-0.5264536,-0.51557636,-0.50590086,-0.4950236,-0.4823283,-0.46719873,-0.45086747,-0.43573785,-0.4218408,-0.40671122,-0.39161253,-0.37528116,-0.35771734,-0.34018427,-0.3190152,-0.29726064,-0.27790958,-0.26278,-0.245247,-0.22044188,-0.19021356,-0.15511662,-0.1309278,-0.097679675,-0.062613666,-0.02086091,0.02388072,0.0553416,0.075278044,0.08556986,0.09644723,0.10190117,0.09524548,0.074076414,0.034172416,-0.01965928,-0.08498448,-0.16238868,-0.2476505,-0.3323267,-0.41398335,-0.48956954,-0.5585308,-0.61960375,-0.66918314,-0.70788527,-0.7381444,-0.76353496,-0.7840878,-0.8004191,-0.81132716,-0.81736666,-0.8227899,-0.8264259,-0.82762766,-0.8246079,-0.8203864,-0.8185684,-0.81918466,-0.8203864,-0.81918466,-0.8161649,-0.81373066,-0.8100946,-0.8064894,-0.8022371,-0.7980156,-0.7955813,-0.79317784,-0.7901581,-0.784704,-0.78048253,-0.78048253,-0.7816843,-0.7816843,-0.77743196,-0.7720088,-0.76957446,-0.7701907,-0.77139246,-0.77139246,-0.76898897,-0.76717097,-0.76775646,-0.76717097,-0.7659693,-0.7647367,-0.76535296,-0.7659693,-0.76535296,-0.7623332,-0.75931346,-0.7598989,-0.7623332,-0.76535296,-0.76535296,-0.7623332,-0.7598989,-0.75808096,-0.75808096,-0.75687915,-0.75567746,-0.7562937,-0.75687915,-0.7562937,-0.7544757,-0.75142515,-0.7508397,-0.75142515,-0.7526577,-0.75142515,-0.74963796,-0.74720365,-0.74480015,-0.74298215,-0.7399624,-0.73512465,-0.73269033,-0.73087233,-0.73087233,-0.7302869,-0.7302869,-0.7320741,-0.73512465,-0.7375281,-0.73934615,-0.73872983,-0.7375281,-0.73450834,-0.7296706,-0.72301483,-0.7181771,-0.71756077,-0.71937877,-0.72061133,-0.71879333,-0.71697533,-0.716359,-0.7181771,-0.71879333,-0.716359,-0.7121375,-0.70970327,-0.7103195,-0.7121375,-0.712723,-0.7121375,-0.71152127,-0.71090496,-0.70970327,-0.7060672,-0.702462,-0.70184577,-0.70184577,-0.7000277,-0.69278646,-0.67885864,-0.6643454,-0.6516501,-0.6444088,-0.6395711,-0.63593507,-0.62986475,-0.61356425,-0.5905771,-0.56577206,-0.5476227,-0.5421995,-0.5439867,-0.548239,-0.55307674,-0.5663883,-0.59359694,-0.63168275,-0.6740209,-0.70548177,-0.72301483,-0.72723633,-0.7211968,-0.712723,-0.70548177,-0.7030475,-0.70548177,-0.70729977,-0.70788527,-0.7030475,-0.697008,-0.69762427,-0.70970327,-0.73691183,-0.7665547,-0.7798663,-0.71697533,-0.5240502,-0.176902,0.28333282,0.72301483,0.98487043,0.94071424,0.61171544,0.115798235,-0.3668074,-0.6903522,-0.81795216,-0.79921734,-0.71879333,-0.6516501,-0.62564325,-0.63168275,-0.6528518,-0.66918314,-0.67583895,-0.6746372,-0.6679814,-0.6601238,-0.6486303,-0.6425909,-0.64135826,-0.64135826,-0.6431763,-0.63895476,-0.630481,-0.618402,-0.6087265,-0.59963644,-0.5917789,-0.5845068,-0.5827196,-0.5790836,-0.57362956,-0.5627523,-0.5476227,-0.5355437,-0.52525187,-0.51375836,-0.4986288,-0.48352998,-0.46960223,-0.45934117,-0.4484331,-0.4309001,-0.40852928,-0.38856196,-0.37164515,-0.35713184,-0.33898258,-0.31599545,-0.28940314,-0.25976026,-0.23193544,-0.20352507,-0.176902,-0.15209693,-0.12609011,-0.098296046,-0.06745136,-0.034172475,-0.0027116537,0.026314974,0.05232179,0.075278044,0.09342742,0.10310292,0.100699425,0.08316636,0.05232179,0.0051459074,-0.057159603,-0.1327458,-0.21803844,-0.30511814,-0.39037997,-0.47203648,-0.546421,-0.61112994,-0.66375995,-0.7066835,-0.7435676,-0.7738268,-0.7973993,-0.81311435,-0.82158816,-0.82886016,-0.8361014,-0.8421717,-0.8433735,-0.8409392,-0.8379195,-0.8348997,-0.83126366,-0.8258404,-0.8203864,-0.81736666,-0.8167504,-0.81554866,-0.8125289,-0.8100946,-0.80707484,-0.80525684,-0.80285335,-0.7973993,-0.79317784,-0.7919453,-0.7937633,-0.79499584,-0.7943796,-0.7919453,-0.7907435,-0.7895418,-0.78710747,-0.7835023,-0.7798663,-0.7786645,-0.77924997,-0.77924997,-0.7762302,-0.77321047,-0.7738268,-0.7768465,-0.7816843,-0.782886,-0.7786645,-0.77502847,-0.7720088,-0.770807,-0.76957446,-0.76957446,-0.76957446,-0.7701907,-0.770807,-0.7683727,-0.7647367,-0.7623332,-0.7605152,-0.7598989,-0.75869715,-0.75931346,-0.7598989,-0.7598989,-0.75808096,-0.75324315,-0.7502234,-0.7502234,-0.7526577,-0.75324315,-0.7478199,-0.7405479,-0.73330665,-0.72905433,-0.72905433,-0.7296706,-0.73087233,-0.7320741,-0.7320741,-0.7320741,-0.73087233,-0.7302869,-0.7314886,-0.73512465,-0.73571014,-0.7320741,-0.7254491,-0.7199951,-0.71937877,-0.7218131,-0.72363114,-0.7242166,-0.7254491,-0.72723633,-0.7296706,-0.72905433,-0.72665083,-0.72301483,-0.7199951,-0.716359,-0.71152127,-0.70970327,-0.7121375,-0.7157736,-0.7181771,-0.714541,-0.70729977,-0.69762427,-0.68733245,-0.6770407,-0.66677964,-0.65950763,-0.6564878,-0.6546699,-0.6431763,-0.61898744,-0.5905771,-0.5682063,-0.5567128,-0.5548948,-0.55548024,-0.55973256,-0.57304406,-0.59963644,-0.6395711,-0.6782732,-0.70970327,-0.72905433,-0.73330665,-0.72665083,-0.7133393,-0.70428,-0.70122945,-0.70428,-0.70970327,-0.71090496,-0.7121375,-0.7151573,-0.72301483,-0.7381444,-0.7598989,-0.7859058,-0.8046714,-0.7701907,-0.6201892,-0.31540996,0.1248883,0.58752656,0.9189596,0.9655192,0.70122945,0.22527969,-0.29362464,-0.67885864,-0.85606873,-0.85606873,-0.76898897,-0.6812929,-0.6365205,-0.63168275,-0.6468123,-0.66496164,-0.6782732,-0.6843127,-0.6861307,-0.68249464,-0.6782732,-0.6746372,-0.6685977,-0.6607094,-0.6492466,-0.6395711,-0.63350075,-0.628663,-0.62382525,-0.61596775,-0.60509044,-0.5954149,-0.5863248,-0.5772656,-0.5682063,-0.560318,-0.5542785,-0.54703724,-0.5391489,-0.52525187,-0.5101223,-0.49560905,-0.48171198,-0.4708348,-0.45810866,-0.44359535,-0.4284966,-0.41034728,-0.39037997,-0.3686254,-0.34502202,-0.32203496,-0.2996642,-0.27488983,-0.24583244,-0.21680582,-0.18839556,-0.16177243,-0.13699812,-0.109758735,-0.08134848,-0.054139853,-0.026314974,0.00089359283,0.02690041,0.05050385,0.068036795,0.075894356,0.07349086,0.061997294,0.035374284,-0.006347716,-0.062613666,-0.13216037,-0.21015012,-0.29544264,-0.38495672,-0.47323823,-0.5548948,-0.62142175,-0.6746372,-0.7181771,-0.7538594,-0.7835023,-0.8064894,-0.82522416,-0.8409392,-0.8542507,-0.86512804,-0.86876404,-0.86694604,-0.86331,-0.86090654,-0.8615228,-0.8621083,-0.86331,-0.8621083,-0.85668504,-0.8506147,-0.8421717,-0.8361014,-0.833698,-0.8324654,-0.82886016,-0.8240224,-0.81918466,-0.81918466,-0.82100266,-0.8240224,-0.82340616,-0.82158816,-0.8203864,-0.81977016,-0.8185684,-0.8143469,-0.8107109,-0.81132716,-0.8161649,-0.82100266,-0.82340616,-0.8222044,-0.81918466,-0.8167504,-0.81373066,-0.8119126,-0.8100946,-0.8107109,-0.81311435,-0.8125289,-0.80707484,-0.8016516,-0.7980156,-0.79860103,-0.8016516,-0.80103534,-0.7980156,-0.79499584,-0.7937633,-0.79499584,-0.7961976,-0.79860103,-0.79921734,-0.7998336,-0.7980156,-0.7919453,-0.78652203,-0.7840878,-0.784704,-0.78652203,-0.78710747,-0.78652203,-0.7853203,-0.784704,-0.7853203,-0.7822697,-0.7780483,-0.77502847,-0.77139246,-0.76898897,-0.76717097,-0.7659693,-0.76717097,-0.770807,-0.7744122,-0.7725942,-0.7683727,-0.7641512,-0.7562937,-0.7465874,-0.73450834,-0.72363114,-0.71697533,-0.71697533,-0.716359,-0.70729977,-0.68915045,-0.66375995,-0.63833857,-0.618402,-0.6044742,-0.5966166,-0.5978184,-0.6062922,-0.626845,-0.65710413,-0.69337195,-0.72905433,-0.75567746,-0.76898897,-0.76717097,-0.75567746,-0.74298215,-0.7381444,-0.7399624,-0.7423659,-0.74538565,-0.74600196,-0.74538565,-0.7441839,-0.7417496,-0.7435676,-0.75324315,-0.7756448,-0.8022371,-0.81918466,-0.7895418,-0.6552861,-0.38011897,0.0123871565,0.4218408,0.7030475,0.71392477,0.4375559,-0.022678912,-0.4986288,-0.82704216,-0.9498043,-0.9099005,-0.7980156,-0.697008,-0.64742863,-0.64135826,-0.65710413,-0.67525345,-0.6836964,-0.6836964,-0.67947495,-0.67525345,-0.6722028,-0.6679814,-0.6625273,-0.6564878,-0.6504483,-0.6431763,-0.634117,-0.6244415,-0.616584,-0.61112994,-0.60749394,-0.60145444,-0.5942132,-0.5869411,-0.57966906,-0.57181156,-0.560318,-0.548239,-0.53736174,-0.5264536,-0.51496005,-0.49924505,-0.4823283,-0.46960223,-0.46174467,-0.45450342,-0.4423936,-0.42606235,-0.40612578,-0.38736016,-0.36921084,-0.34804177,-0.32446927,-0.2984624,-0.27365732,-0.2476505,-0.21985644,-0.190799,-0.16238868,-0.13576561,-0.11219299,-0.08800417,-0.060179293,-0.034172475,-0.011185408,0.0069639683,0.016639471,0.018426657,0.010569215,-0.014205217,-0.057159603,-0.1133948,-0.18173975,-0.25976026,-0.34200227,-0.42547685,-0.5046991,-0.5766493,-0.6395711,-0.69337195,-0.7399624,-0.77924997,-0.8100946,-0.835516,-0.85304904,-0.8639263,-0.86694604,-0.8681478,-0.86876404,-0.87119836,-0.87480354,-0.8736018,-0.86938035,-0.86331,-0.8572705,-0.851231,-0.8463932,-0.8415555,-0.8391212,-0.8391212,-0.8397375,-0.837334,-0.8342834,-0.83188,-0.83188,-0.8324654,-0.82886016,-0.8222044,-0.8143469,-0.8082766,-0.8064894,-0.8040551,-0.8016516,-0.79921734,-0.79681385,-0.79681385,-0.7961976,-0.7955813,-0.7955813,-0.7955813,-0.7955813,-0.79499584,-0.79499584,-0.7955813,-0.7973993,-0.79921734,-0.79681385,-0.7943796,-0.7919453,-0.7913598,-0.7901581,-0.78710747,-0.7835023,-0.7822697,-0.7835023,-0.7859058,-0.7853203,-0.7840878,-0.782886,-0.782886,-0.7835023,-0.78106797,-0.77743196,-0.77502847,-0.7744122,-0.7756448,-0.7738268,-0.76957446,-0.7659693,-0.7647367,-0.7647367,-0.7623332,-0.75808096,-0.7526577,-0.7478199,-0.7435676,-0.73934615,-0.73512465,-0.73269033,-0.7278526,-0.71697533,-0.697008,-0.6716174,-0.6486303,-0.63350075,-0.6244415,-0.61596775,-0.614766,-0.62323976,-0.6456106,-0.68187845,-0.7199951,-0.75142515,-0.7701907,-0.7756448,-0.76957446,-0.75749546,-0.74720365,-0.74116415,-0.73934615,-0.7399624,-0.73934615,-0.73934615,-0.73872983,-0.73934615,-0.7399624,-0.73934615,-0.7435676,-0.7562937,-0.7780483,-0.8004191,-0.7998336,-0.72665083,-0.5361292,-0.20894831,0.198071,0.56577206,0.75142515,0.6546699,0.31297576,-0.15089518,-0.5663883,-0.81554866,-0.88269186,-0.82762766,-0.73450834,-0.66496164,-0.6371368,-0.6395711,-0.6552861,-0.6703849,-0.67583895,-0.6770407,-0.67583895,-0.6740209,-0.6722028,-0.66496164,-0.6546699,-0.6444088,-0.6365205,-0.630481,-0.62382525,-0.61596775,-0.60749394,-0.6008381,-0.59359694,-0.5851231,-0.5748313,-0.563954,-0.5542785,-0.546421,-0.5367454,-0.5240502,-0.51135486,-0.4986288,-0.48534805,-0.47203648,-0.45934117,-0.4472314,-0.43697035,-0.42547685,-0.40973103,-0.39161253,-0.3704434,-0.34865808,-0.32508546,-0.29784614,-0.2706375,-0.2446307,-0.22225988,-0.19988906,-0.17446774,-0.14725912,-0.11884886,-0.09222573,-0.06563336,-0.038394034,-0.013619661,0.007549405,0.023264408,0.03475797,0.04264629,0.040828347,0.02388072,-0.01180166,-0.06440085,-0.12852436,-0.20170707,-0.28151482,-0.36378765,-0.44359535,-0.51496005,-0.57544756,-0.626845,-0.6703849,-0.70729977,-0.73691183,-0.7611315,-0.78106797,-0.7980156,-0.8100946,-0.8167504,-0.8203864,-0.8227899,-0.82522416,-0.8282439,-0.82704216,-0.8246079,-0.8227899,-0.82100266,-0.81918466,-0.8143469,-0.8076911,-0.80285335,-0.7998336,-0.8004191,-0.79860103,-0.7961976,-0.79317784,-0.7907435,-0.7883401,-0.7835023,-0.77743196,-0.77139246,-0.76898897,-0.76898897,-0.76957446,-0.7683727,-0.76717097,-0.76535296,-0.7647367,-0.76353496,-0.7629187,-0.7629187,-0.7629187,-0.7623332,-0.7598989,-0.75687915,-0.7562937,-0.75749546,-0.75869715,-0.75808096,-0.75506115,-0.75142515,-0.7508397,-0.7502234,-0.74840534,-0.7465874,-0.74480015,-0.74480015,-0.74600196,-0.74720365,-0.74840534,-0.74902165,-0.74963796,-0.74963796,-0.7465874,-0.74298215,-0.7417496,-0.74298215,-0.74600196,-0.7465874,-0.74538565,-0.7423659,-0.74116415,-0.7399624,-0.73512465,-0.7260345,-0.716359,-0.70911777,-0.70548177,-0.7036637,-0.7030475,-0.7000277,-0.6909685,-0.67525345,-0.65346813,-0.62746125,-0.60567594,-0.5899609,-0.5790836,-0.57544756,-0.5851231,-0.60690844,-0.6407728,-0.6800912,-0.7139555,-0.7375281,-0.74902165,-0.7502234,-0.7441839,-0.73632634,-0.73087233,-0.7278526,-0.72723633,-0.7278526,-0.72665083,-0.72483283,-0.7242166,-0.7254491,-0.72723633,-0.72905433,-0.73269033,-0.74480015,-0.76717097,-0.7877238,-0.77743196,-0.6812929,-0.45992666,-0.10797155,0.30511808,0.653468,0.7973993,0.65950763,0.29239213,-0.17144793,-0.5645703,-0.7859058,-0.835516,-0.77924997,-0.69762427,-0.6431763,-0.62625957,-0.634117,-0.6486303,-0.65710413,-0.6564878,-0.6492466,-0.64135826,-0.6365205,-0.63229907,-0.62502694,-0.6177857,-0.6105137,-0.60509044,-0.59963644,-0.5929806,-0.5851231,-0.5784673,-0.5766493,-0.5748313,-0.5687918,-0.5585308,-0.5458047,-0.5349274,-0.52525187,-0.51496005,-0.5040828,-0.4932056,-0.48352998,-0.47443998,-0.46356267,-0.45086747,-0.43755585,-0.4266786,-0.41456872,-0.40005547,-0.3825224,-0.3625551,-0.34320402,-0.32326746,-0.30086583,-0.27547532,-0.24888301,-0.22225988,-0.19505131,-0.16540849,-0.13638186,-0.109758735,-0.08618617,-0.06563336,-0.043848097,-0.021477282,-0.00092446804,0.015406847,0.027516723,0.034172416,0.031152725,0.013588786,-0.022678912,-0.07712686,-0.14365393,-0.21924013,-0.3002804,-0.3837242,-0.46294641,-0.5331094,-0.5917789,-0.64197457,-0.68492895,-0.7211968,-0.74963796,-0.77139246,-0.7883401,-0.8040551,-0.81795216,-0.82704216,-0.8306782,-0.8306782,-0.8300619,-0.8282439,-0.8264259,-0.8227899,-0.8167504,-0.81132716,-0.80889285,-0.8040551,-0.80103534,-0.79681385,-0.7919453,-0.7883401,-0.7853203,-0.7853203,-0.7859058,-0.7883401,-0.7907435,-0.7889255,-0.784704,-0.7786645,-0.7738268,-0.76957446,-0.7647367,-0.7605152,-0.75749546,-0.75808096,-0.7598989,-0.7598989,-0.75749546,-0.7526577,-0.74963796,-0.74902165,-0.7508397,-0.75567746,-0.7605152,-0.7647367,-0.7647367,-0.75931346,-0.7526577,-0.74902165,-0.75142515,-0.75687915,-0.7598989,-0.75808096,-0.75324315,-0.74963796,-0.7478199,-0.74600196,-0.74480015,-0.7441839,-0.74600196,-0.7478199,-0.7478199,-0.74480015,-0.7417496,-0.7405479,-0.73934615,-0.73691183,-0.73330665,-0.7320741,-0.73571014,-0.7405479,-0.74298215,-0.7417496,-0.73691183,-0.73330665,-0.7314886,-0.7302869,-0.7284689,-0.7278526,-0.7278526,-0.7278526,-0.72723633,-0.72483283,-0.7211968,-0.7181771,-0.714541,-0.71090496,-0.70729977,-0.7066835,-0.70970327,-0.7139555,-0.7139555,-0.7103195,-0.7036637,-0.69762427,-0.69155395,-0.68551445,-0.6782732,-0.6722028,-0.66918314,-0.6661633,-0.6607094,-0.64742863,-0.628663,-0.60749394,-0.58755744,-0.5724278,-0.560318,-0.55125874,-0.5506425,-0.560318,-0.5809016,-0.61356425,-0.6540843,-0.6946045,-0.72301483,-0.73512465,-0.7314886,-0.7199951,-0.70970327,-0.7048655,-0.7030475,-0.702462,-0.7030475,-0.7048655,-0.7060672,-0.7036637,-0.69762427,-0.6946045,-0.700644,-0.7181771,-0.74480015,-0.7659693,-0.74963796,-0.63895476,-0.3921979,-0.0051459074,0.43814135,0.79921734,0.92620087,0.75204146,0.34804177,-0.14121968,-0.5458047,-0.76898897,-0.8167504,-0.75808096,-0.67525345,-0.62200725,-0.6105137,-0.62625957,-0.6486303,-0.66375995,-0.66918314,-0.6679814,-0.6625273,-0.65346813,-0.64379257,-0.63350075,-0.626845,-0.6226235,-0.61898744,-0.61535144,-0.60992825,-0.6044742,-0.59723294,-0.58755744,-0.5772656,-0.56940806,-0.56336856,-0.55729824,-0.54703724,-0.532524,-0.5185961,-0.5077188,-0.49924505,-0.49077123,-0.4805103,-0.46781504,-0.45570517,-0.4423936,-0.42788035,-0.41275078,-0.39583397,-0.3807044,-0.3619696,-0.33959883,-0.31359196,-0.28576708,-0.260962,-0.23738945,-0.21320063,-0.18719381,-0.16057068,-0.1345638,-0.1091733,-0.08255011,-0.0553416,-0.026931226,-0.0003080964,0.024496913,0.04748404,0.068036795,0.0813483,0.0813483,0.0674206,0.041413665,0.0027115345,-0.04930216,-0.1152128,-0.190799,-0.2706375,-0.34985977,-0.4266786,-0.49924505,-0.563954,-0.618402,-0.6619419,-0.69762427,-0.7278526,-0.7520414,-0.7701907,-0.7822697,-0.7907435,-0.79860103,-0.8040551,-0.80707484,-0.80707484,-0.80525684,-0.80525684,-0.8046714,-0.80285335,-0.79921734,-0.7961976,-0.79499584,-0.7943796,-0.7919453,-0.78710747,-0.7816843,-0.77743196,-0.7744122,-0.77139246,-0.76775646,-0.7647367,-0.7641512,-0.7641512,-0.7629187,-0.7611315,-0.75869715,-0.75931346,-0.7605152,-0.7611315,-0.7605152,-0.75931346,-0.7598989,-0.7605152,-0.7611315,-0.75931346,-0.75808096,-0.75869715,-0.7611315,-0.76171696,-0.7605152,-0.75869715,-0.75808096,-0.75808096,-0.75749546,-0.75506115,-0.7526577,-0.75324315,-0.7544757,-0.75506115,-0.7538594,-0.75142515,-0.7502234,-0.74963796,-0.74902165,-0.7465874,-0.7441839,-0.7435676,-0.7435676,-0.7423659,-0.74116415,-0.74116415,-0.7423659,-0.74116415,-0.73691183,-0.7296706,-0.72301483,-0.7199951,-0.72061133,-0.7223985,-0.72301483,-0.72363114,-0.7254491,-0.7260345,-0.72363114,-0.7181771,-0.712723,-0.70970327,-0.70911777,-0.7103195,-0.7103195,-0.70911777,-0.7103195,-0.71090496,-0.70970327,-0.70729977,-0.70428,-0.7036637,-0.7048655,-0.70548177,-0.7048655,-0.702462,-0.7030475,-0.7036637,-0.7036637,-0.700644,-0.6963917,-0.6946045,-0.69278646,-0.6909685,-0.68733245,-0.6836964,-0.6836964,-0.6861307,-0.68733245,-0.68551445,-0.6812929,-0.67885864,-0.6770407,-0.6746372,-0.6703849,-0.66554713,-0.65950763,-0.6522664,-0.64379257,-0.63593507,-0.6310973,-0.62927926,-0.62502694,-0.60931194,-0.5839214,-0.55729824,-0.54038143,-0.5361292,-0.5367454,-0.5367454,-0.5379472,-0.5488553,-0.5742458,-0.6123317,-0.6540843,-0.68915045,-0.7139555,-0.7242166,-0.72061133,-0.70911777,-0.69882596,-0.6946045,-0.69518995,-0.69762427,-0.69762427,-0.6963917,-0.69762427,-0.7030475,-0.71756077,-0.7417496,-0.76957446,-0.77924997,-0.7103195,-0.5107386,-0.15755093,0.29544258,0.71392477,0.94496655,0.8729856,0.5312915,0.039595723,-0.4248606,-0.72363114,-0.82944566,-0.7980156,-0.71756077,-0.6564878,-0.6365205,-0.6468123,-0.66677964,-0.68311095,-0.69155395,-0.69278646,-0.68853414,-0.6812929,-0.6740209,-0.6703849,-0.6679814,-0.6643454,-0.65710413,-0.64801407,-0.6395711,-0.63168275,-0.62382525,-0.6141497,-0.60388875,-0.5960004,-0.5887591,-0.5809016,-0.56940806,-0.5560965,-0.54340124,-0.5319077,-0.52284837,-0.51194036,-0.5004468,-0.49018586,-0.47807604,-0.46356267,-0.44602966,-0.42788035,-0.41096354,-0.39401597,-0.37706834,-0.35771734,-0.33716452,-0.31719714,-0.29544264,-0.2706375,-0.2428127,-0.21258438,-0.1847595,-0.15634918,-0.12790811,-0.098296046,-0.069854915,-0.045049727,-0.022093534,-0.0003080964,0.02206266,0.044433475,0.0613811,0.072874665,0.075894356,0.0674206,0.044433475,0.0027115345,-0.0553416,-0.12609011,-0.20290887,-0.28333282,-0.3668074,-0.44664592,-0.5185961,-0.57966906,-0.62986475,-0.6740209,-0.71152127,-0.7423659,-0.7665547,-0.7840878,-0.8004191,-0.81493235,-0.8258404,-0.8306782,-0.8306782,-0.82944566,-0.82762766,-0.8258404,-0.82158816,-0.8161649,-0.8100946,-0.8040551,-0.7973993,-0.7907435,-0.7859058,-0.784704,-0.784704,-0.784704,-0.7822697,-0.77924997,-0.7780483,-0.7780483,-0.77924997,-0.7780483,-0.7762302,-0.7756448,-0.7762302,-0.7768465,-0.7762302,-0.7738268,-0.7725942,-0.7720088,-0.7725942,-0.770807,-0.7683727,-0.76717097,-0.7665547,-0.7683727,-0.7701907,-0.7720088,-0.77321047,-0.77321047,-0.77139246,-0.7683727,-0.76535296,-0.7647367,-0.7647367,-0.76353496,-0.75869715,-0.75324315,-0.74902165,-0.7465874,-0.74538565,-0.7423659,-0.7405479,-0.74116415,-0.74298215,-0.7441839,-0.7423659,-0.73872983,-0.73691183,-0.73571014,-0.73450834,-0.7320741,-0.73087233,-0.7314886,-0.7338921,-0.73512465,-0.73330665,-0.7296706,-0.72723633,-0.72483283,-0.72301483,-0.7199951,-0.71756077,-0.71756077,-0.7181771,-0.7199951,-0.71937877,-0.71697533,-0.7157736,-0.714541,-0.7121375,-0.70911777,-0.70729977,-0.70729977,-0.70729977,-0.70729977,-0.70428,-0.70122945,-0.70122945,-0.702462,-0.7036637,-0.702462,-0.69944227,-0.697008,-0.69518995,-0.69278646,-0.68915045,-0.6861307,-0.68551445,-0.6861307,-0.6879487,-0.6861307,-0.6836964,-0.68311095,-0.68311095,-0.6836964,-0.6812929,-0.6782732,-0.6770407,-0.67645514,-0.6770407,-0.67645514,-0.67583895,-0.6782732,-0.6800912,-0.6806767,-0.67343545,-0.6607094,-0.64983207,-0.6401565,-0.63229907,-0.62564325,-0.61716944,-0.60327244,-0.5845068,-0.56336856,-0.54521924,-0.5367454,-0.5379472,-0.5409669,-0.5439867,-0.54944074,-0.563954,-0.5947986,-0.6365205,-0.6782732,-0.70729977,-0.71937877,-0.7181771,-0.70911777,-0.69944227,-0.69155395,-0.68733245,-0.6867162,-0.6861307,-0.6867162,-0.68733245,-0.69155395,-0.7060672,-0.73330665,-0.7641512,-0.7768465,-0.714541,-0.5258682,-0.1865775,0.25976026,0.6867162,0.94133043,0.8941544,0.563954,0.068036795,-0.41154897,-0.7260345,-0.8385357,-0.80285335,-0.70970327,-0.634117,-0.60509044,-0.61294794,-0.63531876,-0.65346813,-0.65950763,-0.6583059,-0.6564878,-0.6546699,-0.6516501,-0.646196,-0.63833857,-0.63168275,-0.62625957,-0.61960375,-0.6105137,-0.60145444,-0.5947986,-0.5887591,-0.5833051,-0.57544756,-0.56577206,-0.55729824,-0.550057,-0.5421995,-0.5331094,-0.52284837,-0.51317286,-0.5010631,-0.4883678,-0.47385448,-0.45934117,-0.44602966,-0.4321326,-0.41518503,-0.39463222,-0.37346315,-0.3565156,-0.34080058,-0.32446927,-0.30391645,-0.28092933,-0.2579422,-0.2367732,-0.21560413,-0.190799,-0.161187,-0.12972611,-0.097679675,-0.068036914,-0.04144454,-0.01784122,0.0021260977,0.020244718,0.036576033,0.05232179,0.06440079,0.06862235,0.06258273,0.043231726,0.009367347,-0.04144454,-0.109758735,-0.18839556,-0.27183932,-0.35287952,-0.42969835,-0.5022648,-0.5712261,-0.63229907,-0.68187845,-0.72301483,-0.7562937,-0.782886,-0.8040551,-0.81795216,-0.8258404,-0.83308166,-0.8391212,-0.843959,-0.8451915,-0.8427572,-0.8397375,-0.837334,-0.8367177,-0.8342834,-0.8300619,-0.8258404,-0.82158816,-0.8185684,-0.8161649,-0.8143469,-0.8143469,-0.81493235,-0.81311435,-0.80889285,-0.80525684,-0.8034388,-0.80285335,-0.80285335,-0.7998336,-0.7955813,-0.7943796,-0.79499584,-0.79681385,-0.79499584,-0.7901581,-0.7859058,-0.782886,-0.7840878,-0.7859058,-0.78710747,-0.7877238,-0.7877238,-0.7877238,-0.78710747,-0.7859058,-0.78652203,-0.7859058,-0.784704,-0.7816843,-0.77924997,-0.77924997,-0.77924997,-0.78106797,-0.78048253,-0.7798663,-0.78106797,-0.782886,-0.7835023,-0.78048253,-0.7768465,-0.7762302,-0.77743196,-0.77924997,-0.7768465,-0.77321047,-0.770807,-0.76898897,-0.76775646,-0.7641512,-0.7605152,-0.75869715,-0.75931346,-0.76171696,-0.7598989,-0.75687915,-0.75567746,-0.75506115,-0.75506115,-0.7520414,-0.74963796,-0.7478199,-0.7478199,-0.7478199,-0.74480015,-0.74116415,-0.7381444,-0.73571014,-0.73450834,-0.7314886,-0.72723633,-0.72723633,-0.7284689,-0.7296706,-0.7284689,-0.72723633,-0.7278526,-0.72905433,-0.7302869,-0.7284689,-0.72483283,-0.7199951,-0.712723,-0.70184577,-0.6879487,-0.6770407,-0.67343545,-0.6746372,-0.67281914,-0.65950763,-0.63531876,-0.6105137,-0.5917789,-0.5839214,-0.5802853,-0.5790836,-0.5833051,-0.5966166,-0.62323976,-0.6589221,-0.6963917,-0.7278526,-0.74720365,-0.75324315,-0.7465874,-0.73512465,-0.7254491,-0.7211968,-0.72061133,-0.71937877,-0.71756077,-0.7157736,-0.7151573,-0.71756077,-0.72483283,-0.7441839,-0.7701907,-0.7943796,-0.7720088,-0.6401565,-0.3619696,0.037808537,0.45206916,0.73509383,0.74600196,0.46840048,0.0033279657,-0.47869223,-0.81132716,-0.931655,-0.88571167,-0.76898897,-0.6703849,-0.62564325,-0.6208055,-0.6347333,-0.64983207,-0.6601238,-0.6643454,-0.6613256,-0.6546699,-0.6486303,-0.6431763,-0.63833857,-0.63168275,-0.6244415,-0.61898744,-0.614766,-0.6105137,-0.60388875,-0.5947986,-0.5863248,-0.57966906,-0.5742458,-0.5669738,-0.5579145,-0.548239,-0.53736174,-0.5258682,-0.51375836,-0.5034666,-0.4962253,-0.4883678,-0.47807604,-0.46236098,-0.4423936,-0.42365885,-0.40791303,-0.39161253,-0.3722306,-0.3522941,-0.3323267,-0.3129757,-0.29300833,-0.2706375,-0.245247,-0.22105813,-0.19686931,-0.17086256,-0.14242136,-0.114596486,-0.09040773,-0.06745136,-0.046867788,-0.023295283,-0.0015099049,0.015406847,0.02992022,0.040211916,0.046251535,0.039595723,0.0118016,-0.037808478,-0.10433549,-0.17872,-0.259144,-0.34080058,-0.4230426,-0.5010631,-0.5699935,-0.6310973,-0.68311095,-0.72723633,-0.7641512,-0.7901581,-0.8100946,-0.82762766,-0.8433735,-0.85668504,-0.86454254,-0.8675623,-0.86694604,-0.86454254,-0.86272454,-0.8584722,-0.8554525,-0.85304904,-0.8518473,-0.8518473,-0.847595,-0.8421717,-0.8361014,-0.83188,-0.82944566,-0.82762766,-0.8264259,-0.8258404,-0.8240224,-0.82158816,-0.8161649,-0.81132716,-0.80889285,-0.80889285,-0.8100946,-0.8082766,-0.8064894,-0.80525684,-0.8064894,-0.8082766,-0.80950916,-0.80950916,-0.80950916,-0.80950916,-0.8076911,-0.80285335,-0.7973993,-0.79499584,-0.7955813,-0.79860103,-0.7973993,-0.79317784,-0.7883401,-0.7853203,-0.78652203,-0.7877238,-0.7883401,-0.78710747,-0.78652203,-0.7859058,-0.782886,-0.7798663,-0.7780483,-0.77743196,-0.7768465,-0.7744122,-0.7725942,-0.7720088,-0.7738268,-0.77502847,-0.7725942,-0.76898897,-0.76775646,-0.76775646,-0.76775646,-0.76535296,-0.7611315,-0.75869715,-0.75808096,-0.75869715,-0.75869715,-0.75687915,-0.75567746,-0.7538594,-0.75142515,-0.7478199,-0.74480015,-0.74298215,-0.7399624,-0.73632634,-0.7302869,-0.7242166,-0.72061133,-0.72061133,-0.71879333,-0.7103195,-0.69580626,-0.6746372,-0.6504483,-0.62927926,-0.6123317,-0.5978184,-0.5887591,-0.5881429,-0.59963644,-0.6226235,-0.6589221,-0.700644,-0.7375281,-0.7623332,-0.77139246,-0.76898897,-0.7611315,-0.7526577,-0.74600196,-0.73934615,-0.7338921,-0.7320741,-0.73450834,-0.73934615,-0.74116415,-0.74116415,-0.7441839,-0.75324315,-0.7725942,-0.7943796,-0.8064894,-0.76353496,-0.61294794,-0.32144946,0.08375192,0.49499273,0.7659385,0.7623024,0.48171198,0.026314974,-0.43999016,-0.76353496,-0.8923674,-0.8675623,-0.7725942,-0.68733245,-0.64499426,-0.6425909,-0.6589221,-0.67525345,-0.68551445,-0.68733245,-0.68733245,-0.68551445,-0.6800912,-0.6740209,-0.6685977,-0.66314363,-0.6589221,-0.6510338,-0.64197457,-0.634117,-0.62746125,-0.62323976,-0.6177857,-0.61112994,-0.60388875,-0.5954149,-0.5857394,-0.57304406,-0.5609343,-0.551875,-0.544603,-0.5355437,-0.52284837,-0.5071026,-0.49018586,-0.47505623,-0.46054298,-0.4442116,-0.42788035,-0.41216528,-0.39765197,-0.38190615,-0.3613534,-0.33898258,-0.31661177,-0.29362464,-0.27125382,-0.2428127,-0.21138257,-0.17992175,-0.15151137,-0.12550455,-0.097679675,-0.07047117,-0.043848097,-0.01965928,0.000308156,0.01904285,0.033556223,0.040828347,0.035990477,0.017224908,-0.015437663,-0.065017104,-0.13154405,-0.21015012,-0.29544264,-0.37830096,-0.45570517,-0.5264536,-0.5911626,-0.6492466,-0.697008,-0.73571014,-0.76717097,-0.79317784,-0.8143469,-0.8282439,-0.837334,-0.843959,-0.85002923,-0.8554525,-0.85668504,-0.85486704,-0.8524327,-0.851231,-0.8506147,-0.8487967,-0.845777,-0.8433735,-0.8421717,-0.8415555,-0.8379195,-0.8324654,-0.8258404,-0.8203864,-0.81554866,-0.8107109,-0.8082766,-0.8076911,-0.80889285,-0.80889285,-0.8058731,-0.8004191,-0.7955813,-0.7937633,-0.79317784,-0.7919453,-0.7901581,-0.7877238,-0.78652203,-0.7859058,-0.784704,-0.7859058,-0.7883401,-0.79317784,-0.7973993,-0.7980156,-0.7955813,-0.7907435,-0.78710747,-0.7853203,-0.782886,-0.7816843,-0.78106797,-0.78106797,-0.7816843,-0.78048253,-0.77924997,-0.7780483,-0.7780483,-0.7780483,-0.77502847,-0.770807,-0.7665547,-0.7641512,-0.76353496,-0.7623332,-0.7605152,-0.75869715,-0.75808096,-0.75749546,-0.75506115,-0.75142515,-0.74902165,-0.74902165,-0.7508397,-0.7508397,-0.7502234,-0.74963796,-0.74902165,-0.74840534,-0.74720365,-0.74538565,-0.7441839,-0.74480015,-0.74480015,-0.74116415,-0.73571014,-0.7314886,-0.7296706,-0.72905433,-0.7242166,-0.71756077,-0.7103195,-0.7048655,-0.70122945,-0.6963917,-0.68853414,-0.67525345,-0.65710413,-0.634117,-0.60931194,-0.5905771,-0.5772656,-0.5706098,-0.57181156,-0.58148706,-0.6026561,-0.6365205,-0.67947495,-0.71879333,-0.74538565,-0.75749546,-0.7562937,-0.74963796,-0.74298215,-0.7375281,-0.73450834,-0.73269033,-0.7320741,-0.73269033,-0.7320741,-0.7320741,-0.73330665,-0.73872983,-0.7508397,-0.76775646,-0.7895418,-0.8034388,-0.7744122,-0.6425909,-0.36739284,0.042029977,0.48593354,0.8197701,0.8953564,0.6710012,0.23375344,-0.26037657,-0.6425909,-0.83126366,-0.8482112,-0.77321047,-0.6903522,-0.646196,-0.64135826,-0.6564878,-0.6740209,-0.68551445,-0.6909685,-0.69155395,-0.6879487,-0.68187845,-0.6746372,-0.6703849,-0.6661633,-0.6613256,-0.6546699,-0.6468123,-0.63895476,-0.63168275,-0.62323976,-0.6141497,-0.60567594,-0.5984347,-0.5911626,-0.5821034,-0.5724278,-0.56155056,-0.55125874,-0.5409669,-0.52768624,-0.51496005,-0.50288105,-0.4920038,-0.4805103,-0.46417898,-0.44664592,-0.4284966,-0.41275078,-0.39645028,-0.37706834,-0.35469753,-0.32992327,-0.30573446,-0.28274733,-0.25674057,-0.22953194,-0.20047456,-0.1726805,-0.14365393,-0.1133948,-0.08196467,-0.05232179,-0.025113285,-0.0003080964,0.02388072,0.04748404,0.066835165,0.077096105,0.07651067,0.06258273,0.033556223,-0.013619661,-0.07651067,-0.15151137,-0.23313713,-0.31661177,-0.39885378,-0.47927773,-0.55307674,-0.61716944,-0.67100114,-0.7151573,-0.75142515,-0.78048253,-0.80103534,-0.8167504,-0.82944566,-0.8409392,-0.8487967,-0.8518473,-0.8506147,-0.847595,-0.845777,-0.8433735,-0.8403537,-0.8367177,-0.833698,-0.83308166,-0.83188,-0.82762766,-0.8227899,-0.8185684,-0.8167504,-0.81554866,-0.81311435,-0.8100946,-0.80707484,-0.8058731,-0.80525684,-0.8034388,-0.79921734,-0.7943796,-0.7907435,-0.7889255,-0.78710747,-0.7859058,-0.7853203,-0.78652203,-0.7883401,-0.78710747,-0.782886,-0.7780483,-0.7756448,-0.7756448,-0.7756448,-0.7756448,-0.7756448,-0.7768465,-0.7780483,-0.7780483,-0.77743196,-0.7762302,-0.7762302,-0.7762302,-0.7744122,-0.7720088,-0.76957446,-0.76957446,-0.7701907,-0.76775646,-0.76353496,-0.7598989,-0.75931346,-0.7605152,-0.76171696,-0.7623332,-0.7623332,-0.7629187,-0.76353496,-0.7623332,-0.7598989,-0.75808096,-0.75808096,-0.75869715,-0.75687915,-0.7520414,-0.74600196,-0.7417496,-0.7399624,-0.7375281,-0.73512465,-0.73330665,-0.73269033,-0.73269033,-0.7320741,-0.7314886,-0.73087233,-0.7320741,-0.7338921,-0.7338921,-0.7320741,-0.7296706,-0.72905433,-0.72665083,-0.7223985,-0.7181771,-0.714541,-0.7139555,-0.712723,-0.70729977,-0.69882596,-0.68976676,-0.68311095,-0.6800912,-0.6770407,-0.67100114,-0.6583059,-0.63895476,-0.6141497,-0.5887591,-0.5706098,-0.5579145,-0.55125874,-0.55125874,-0.55911624,-0.5802853,-0.61596775,-0.6613256,-0.7030475,-0.7296706,-0.7399624,-0.73632634,-0.72723633,-0.7181771,-0.7121375,-0.7085015,-0.70788527,-0.7085015,-0.70970327,-0.70911777,-0.70729977,-0.70729977,-0.712723,-0.7260345,-0.7478199,-0.7725942,-0.7840878,-0.73512465,-0.56759006,-0.2531045,0.17810369,0.6081102,0.88811517,0.8802576,0.5857086,0.11037493,-0.3746649,-0.7133393,-0.8487967,-0.82704216,-0.73571014,-0.6546699,-0.61960375,-0.62200725,-0.6401565,-0.6564878,-0.66496164,-0.6661633,-0.6625273,-0.6564878,-0.64983207,-0.64499426,-0.64135826,-0.637753,-0.62986475,-0.61960375,-0.60931194,-0.60145444,-0.59723294,-0.5923952,-0.5863248,-0.5784673,-0.5712261,-0.5627523,-0.55307674,-0.5427849,-0.532524,-0.52284837,-0.51375836,-0.5022648,-0.4883678,-0.47385448,-0.46115923,-0.4490494,-0.43573785,-0.4206391,-0.40369153,-0.38856196,-0.3728469,-0.35411215,-0.33294302,-0.3093397,-0.28515083,-0.26157826,-0.23615694,-0.20836288,-0.17933625,-0.15089518,-0.1230703,-0.094659984,-0.06621891,-0.039010286,-0.014205217,0.008165598,0.031152725,0.05232179,0.06923854,0.07771242,0.07651067,0.065017104,0.040211916,-0.0003080964,-0.060179293,-0.13518012,-0.21862382,-0.3045019,-0.38856196,-0.46840048,-0.5415832,-0.6044742,-0.65710413,-0.70184577,-0.7405479,-0.7720088,-0.7955813,-0.8119126,-0.8240224,-0.835516,-0.8451915,-0.851231,-0.85304904,-0.85304904,-0.8536345,-0.8536345,-0.8506147,-0.8445752,-0.837334,-0.8324654,-0.82944566,-0.8264259,-0.82340616,-0.8203864,-0.81918466,-0.81736666,-0.81311435,-0.8076911,-0.80285335,-0.8016516,-0.80285335,-0.80285335,-0.8022371,-0.7998336,-0.79860103,-0.7973993,-0.79499584,-0.7913598,-0.7877238,-0.78710747,-0.7883401,-0.7895418,-0.7889255,-0.7877238,-0.7877238,-0.7883401,-0.7877238,-0.78710747,-0.7859058,-0.78652203,-0.7877238,-0.7877238,-0.78652203,-0.7853203,-0.7859058,-0.78652203,-0.784704,-0.7816843,-0.77743196,-0.7762302,-0.7768465,-0.77743196,-0.77743196,-0.7768465,-0.7786645,-0.78048253,-0.78048253,-0.7786645,-0.7768465,-0.7756448,-0.7744122,-0.77321047,-0.7701907,-0.7665547,-0.76535296,-0.7647367,-0.7641512,-0.76171696,-0.75749546,-0.7562937,-0.75506115,-0.7526577,-0.74963796,-0.7478199,-0.74840534,-0.75142515,-0.7538594,-0.7538594,-0.7520414,-0.75142515,-0.7502234,-0.74840534,-0.74538565,-0.74116415,-0.73934615,-0.7381444,-0.73691183,-0.73512465,-0.7338921,-0.73330665,-0.73269033,-0.7278526,-0.71756077,-0.70729977,-0.700644,-0.69762427,-0.69580626,-0.6921702,-0.6812929,-0.66314363,-0.6371368,-0.60749394,-0.5833051,-0.5682063,-0.56155056,-0.562136,-0.56940806,-0.5863248,-0.616584,-0.6607094,-0.7066835,-0.7417496,-0.75931346,-0.7598989,-0.7508397,-0.73872983,-0.72905433,-0.7223985,-0.71879333,-0.71879333,-0.7218131,-0.72483283,-0.72723633,-0.72723633,-0.7284689,-0.7338921,-0.74720365,-0.76957446,-0.7913598,-0.7961976,-0.72363114,-0.52161586,-0.16962993,0.27787876,0.68853414,0.910486,0.8258097,0.46840048,-0.037192225,-0.50953686,-0.8046714,-0.8935692,-0.8385357,-0.73512465,-0.6589221,-0.6310973,-0.63895476,-0.6583059,-0.67645514,-0.68733245,-0.6903522,-0.6879487,-0.6806767,-0.67100114,-0.6625273,-0.6552861,-0.6486303,-0.64197457,-0.6371368,-0.6347333,-0.63229907,-0.626845,-0.6177857,-0.6087265,-0.6008381,-0.59359694,-0.5851231,-0.57362956,-0.56155056,-0.551875,-0.5415832,-0.5294734,-0.5143746,-0.4986288,-0.48716605,-0.47749054,-0.46781504,-0.45450342,-0.43937385,-0.42424428,-0.40914553,-0.39281422,-0.37164515,-0.34563828,-0.32024777,-0.29424095,-0.2670015,-0.23979294,-0.21015012,-0.1829415,-0.15755093,-0.12852436,-0.099497676,-0.07228917,-0.04868579,-0.028132975,-0.0069639683,0.016023159,0.037808537,0.05290723,0.05956304,0.05592704,0.04264629,0.01482141,-0.032970786,-0.098296046,-0.176902,-0.26339626,-0.35167783,-0.43937385,-0.52284837,-0.6008381,-0.6673651,-0.7218131,-0.76535296,-0.7980156,-0.8222044,-0.8403537,-0.8536345,-0.8657443,-0.8760361,-0.88327736,-0.88691336,-0.88691336,-0.8862971,-0.88509536,-0.88327736,-0.87905586,-0.8736018,-0.8717838,-0.8699658,-0.86694604,-0.8615228,-0.8542507,-0.8487967,-0.845777,-0.843959,-0.8397375,-0.8348997,-0.83188,-0.83126366,-0.8324654,-0.83308166,-0.83308166,-0.8324654,-0.8306782,-0.82762766,-0.8222044,-0.81736666,-0.8161649,-0.81554866,-0.81493235,-0.81373066,-0.8119126,-0.81373066,-0.8167504,-0.8185684,-0.8167504,-0.8119126,-0.80889285,-0.80707484,-0.8064894,-0.80525684,-0.8022371,-0.8016516,-0.80103534,-0.80103534,-0.80103534,-0.7998336,-0.79860103,-0.79681385,-0.7943796,-0.79317784,-0.79256153,-0.7943796,-0.7961976,-0.7961976,-0.7937633,-0.7913598,-0.7913598,-0.7919453,-0.7907435,-0.7877238,-0.7853203,-0.7859058,-0.7883401,-0.7889255,-0.784704,-0.7798663,-0.7762302,-0.7744122,-0.77321047,-0.7701907,-0.7683727,-0.7701907,-0.7725942,-0.7738268,-0.77139246,-0.76775646,-0.7647367,-0.7629187,-0.7629187,-0.76171696,-0.7605152,-0.7605152,-0.75869715,-0.75324315,-0.7435676,-0.73330665,-0.72665083,-0.7211968,-0.71697533,-0.7103195,-0.69882596,-0.6843127,-0.66375995,-0.6395711,-0.61716944,-0.60145444,-0.5923952,-0.5911626,-0.59905094,-0.614766,-0.6444088,-0.68492895,-0.7254491,-0.75567746,-0.770807,-0.77321047,-0.7683727,-0.7623332,-0.75869715,-0.75687915,-0.7544757,-0.7526577,-0.7508397,-0.7478199,-0.74600196,-0.74480015,-0.74840534,-0.75567746,-0.76957446,-0.7883401,-0.80525684,-0.7937633,-0.6909685,-0.45025116,-0.069854915,0.35891902,0.69580626,0.78652215,0.5736295,0.13998699,-0.3601516,-0.74963796,-0.9340893,-0.93106955,-0.82522416,-0.7133393,-0.64983207,-0.6347333,-0.646196,-0.6607094,-0.6673651,-0.6703849,-0.67100114,-0.6703849,-0.6685977,-0.66375995,-0.6564878,-0.6486303,-0.6407728,-0.63350075,-0.626845,-0.6226235,-0.61716944,-0.60992825,-0.59963644,-0.5881429,-0.5802853,-0.5742458,-0.56759006,-0.55729824,-0.5458047,-0.5355437,-0.5258682,-0.5161927,-0.5046991,-0.4925893,-0.48171198,-0.47021848,-0.4569069,-0.4405756,-0.4218408,-0.40430778,-0.38797647,-0.37164515,-0.35167783,-0.32930702,-0.30573446,-0.28213108,-0.2579422,-0.2307337,-0.20229256,-0.175084,-0.14787537,-0.12186855,-0.09586167,-0.069854915,-0.04628235,-0.024496973,-0.0045297146,0.015406847,0.032970786,0.043231726,0.04384792,0.032970786,0.008165598,-0.032354414,-0.09102398,-0.16359043,-0.2446307,-0.32748896,-0.40852928,-0.48534805,-0.55729824,-0.6201892,-0.67281914,-0.716359,-0.75324315,-0.782886,-0.8064894,-0.82340616,-0.8361014,-0.84700954,-0.85606873,-0.86090654,-0.86090654,-0.8572705,-0.8554525,-0.8554525,-0.8554525,-0.8536345,-0.8487967,-0.843959,-0.8385357,-0.8342834,-0.82944566,-0.82704216,-0.82704216,-0.82704216,-0.8264259,-0.82100266,-0.81493235,-0.81132716,-0.8082766,-0.80707484,-0.8022371,-0.79681385,-0.7943796,-0.79317784,-0.79256153,-0.7907435,-0.7889255,-0.7883401,-0.7907435,-0.79256153,-0.7913598,-0.7895418,-0.7883401,-0.7883401,-0.7889255,-0.78652203,-0.7835023,-0.7822697,-0.7853203,-0.7889255,-0.7895418,-0.7883401,-0.7877238,-0.7877238,-0.7883401,-0.7859058,-0.78048253,-0.77502847,-0.770807,-0.76957446,-0.76898897,-0.77139246,-0.7744122,-0.7762302,-0.77502847,-0.770807,-0.7659693,-0.7647367,-0.7659693,-0.76775646,-0.76717097,-0.7641512,-0.76353496,-0.7629187,-0.7623332,-0.7598989,-0.75749546,-0.75567746,-0.7538594,-0.75324315,-0.7502234,-0.7465874,-0.74538565,-0.7435676,-0.7405479,-0.73450834,-0.7278526,-0.7242166,-0.7223985,-0.7218131,-0.7199951,-0.716359,-0.70911777,-0.69518995,-0.67343545,-0.6444088,-0.618402,-0.5984347,-0.5863248,-0.5827196,-0.58755744,-0.60327244,-0.6347333,-0.67525345,-0.7157736,-0.74298215,-0.75687915,-0.75931346,-0.7538594,-0.7465874,-0.73934615,-0.73450834,-0.73269033,-0.7338921,-0.73632634,-0.73512465,-0.73269033,