0.31853306,0.26254153,0.20866561,0.15794802,0.11462045,0.07767081,0.047007322,0.018490076,-0.010026932,-0.032227397,-0.048080385,-0.056512892,-0.060744405,-0.063902855,-0.064976096,-0.06709182,-0.06813437,-0.071323395,-0.074481785,-0.07555491,-0.07343918,-0.06813437,-0.06286019,-0.05862868,-0.054397106,-0.05019617,-0.044891417,-0.041733086,-0.03961724,-0.03645891,-0.032227397,-0.02587998,-0.021648407,-0.01637423,-0.012142718,-0.007911146,-0.002636969,-0.0015944839,-0.0037102103,-0.0005212426,0.0037103891,0.011100292,0.016374469,0.016374469,0.015331864,0.015331864,0.016374469,0.018490076,0.020606041,0.024837494,0.029069066,0.032227516,0.032227516,0.031154275,0.031154275,0.032227516,0.034343243,0.032227516,0.027995825,0.025880098,0.024837494,0.024837494,0.021648526,0.01744759,0.015331864,0.015331864,0.01744759,0.01744759,0.015331864,0.014258623,0.013216019,0.013216019,0.010027051,0.007911205,0.007911205,0.011100292,0.015331864,0.016374469,0.014258623,0.012142777,0.011100292,0.011100292,0.010027051,0.010027051,0.012142777,0.011100292,0.00686872,-0.002636969,-0.0047528744,0.0026370287,0.01744759,0.03011167,0.032227516,0.024837494,0.020606041,0.020606041,0.023764253,0.023764253,0.022721767,0.021648526,0.022721767,0.024837494,0.025880098,0.022721767,0.020606041,0.018490076,0.016374469,0.013216019,0.0089844465,0.00686872,0.00686872,0.010027051,0.012142777,0.014258623,0.018490076,0.021648526,0.02695334,0.027995825,0.027995825,0.029069066,0.032227516,0.03645897,0.038574815,0.04277575,0.057586193,0.085060716,0.11992526,0.14632666,0.16533792,0.17591691,0.18646514,0.2097081,0.23718262,0.26465726,0.2879002,0.30798483,0.32172203,0.32595372,0.32488048,0.31433225,0.29847908,0.27943707,0.25199318,0.21182394,0.16217959,0.107230544,0.05970204,0.027995825,0.018490076,0.022721767,0.03011167,0.03011167,0.020606041,0.0058261156,-0.0057953596,-0.012142718,-0.013215959,-0.013215959,-0.012142718,-0.010026932,-0.008984387,-0.008984387,-0.012142718,-0.017416894,-0.020605862,-0.022721648,-0.022721648,-0.002636969,0.061817765,0.18226421,0.34284925,0.49816024,0.55942607,0.5002761,0.352355,0.09879804,-0.24141413,-0.5773948,-0.8034772,-0.8235618,-0.6133019,-0.27732116,0.0195328,0.18330681,0.22767699,0.21078134,0.18119109,0.16110635,0.15583217,0.1632222,0.17803264,0.19492829,0.20866561,0.21924448,0.22875011,0.2403717,0.25199318,0.26042557,0.26465726,0.26993132,0.27627873,0.28474188,0.29317427,0.30163753,0.31114328,0.32172203,0.33334363,0.34389186,0.35658658,0.3703239,0.38406122,0.3956827,0.40307248,0.4104625,0.41892564,0.4315896,0.4463694,0.46010673,0.47384405,0.48758137,0.504477,0.5245615,0.543573,0.56261504,0.58478475,0.6069852,0.6291549,0.65028214,0.66825104,0.68833566,0.71050525,0.73374844,0.7527597,0.76649714,0.7749603,0.78130746,0.78658164,0.7886975,0.7908132,0.79397166,0.7950449,0.7950449,0.7886975,0.7770759,0.76018035,0.73797977,0.70838964,0.67036676,0.62388074,0.5731633,0.5203301,0.46541154,0.40834665,0.35128176,0.29847908,0.24987733,0.20339143,0.15902126,0.11462045,0.07343924,0.038574815,0.0089844465,-0.01637423,-0.037501454,-0.05228132,-0.061817646,-0.064976096,-0.06601858,-0.06709182,-0.06813437,-0.07025015,-0.07025015,-0.07236594,-0.071323395,-0.06709182,-0.06286019,-0.055470347,-0.051238835,-0.047007143,-0.04277563,-0.03961724,-0.03538567,-0.032227397,-0.02903837,-0.022721648,-0.015331745,-0.010026932,-0.007911146,-0.008984387,-0.007911146,-0.0037102103,0.0015945435,0.0037103891,0.0037103891,0.0037103891,0.0047528744,0.0089844465,0.010027051,0.007911205,0.0047528744,0.0015945435,-0.0005212426,-0.0057953596,-0.0057953596,-0.0047528744,-0.0037102103,-0.002636969,-0.007911146,-0.017416894,-0.022721648,-0.024837434,-0.023764193,-0.021648407,-0.021648407,-0.01953262,-0.01637423,-0.015331745,-0.017416894,-0.022721648,-0.02587998,-0.02695322,-0.02695322,-0.02903837,-0.030111492,-0.027995825,-0.023764193,-0.01637423,-0.013215959,-0.013215959,-0.013215959,-0.014258504,-0.013215959,-0.013215959,-0.013215959,-0.011100173,-0.0068685412,-0.0037102103,-0.0068685412,-0.012142718,-0.01637423,-0.018490136,-0.015331745,-0.013215959,-0.012142718,-0.011100173,-0.011100173,-0.010026932,-0.010026932,-0.008984387,-0.0047528744,0.0005213022,0.0058261156,0.007911205,0.0089844465,0.012142777,0.01744759,0.024837494,0.029069066,0.03011167,0.031154275,0.03327,0.03645897,0.03961742,0.041733146,0.04277575,0.04384899,0.041733146,0.035385728,0.027995825,0.023764253,0.022721767,0.029069066,0.034343243,0.037501574,0.03961742,0.04069054,0.04069054,0.038574815,0.038574815,0.03961742,0.04277575,0.04912305,0.052312016,0.057586193,0.07343924,0.10299897,0.13682091,0.16429543,0.18014848,0.18646514,0.19069672,0.20866561,0.23190856,0.25410903,0.2731204,0.2879002,0.30059493,0.3122164,0.31853306,0.31641734,0.30375326,0.28474188,0.2561941,0.21817136,0.16745377,0.11462045,0.06920767,0.04069054,0.031154275,0.035385728,0.041733146,0.04384899,0.03961742,0.03011167,0.018490076,0.007911205,-0.0005212426,-0.008984387,-0.014258504,-0.015331745,-0.015331745,-0.015331745,-0.018490136,-0.01953262,-0.015331745,-0.008984387,0.0058261156,0.041733146,0.12415671,0.2551515,0.41573668,0.53934133,0.55203605,0.46010673,0.25726736,-0.05862868,-0.4284312,-0.7327057,-0.86793196,-0.769686,-0.47595972,-0.14316809,0.08929229,0.18965411,0.20550716,0.18965411,0.1769594,0.1769594,0.18542266,0.20127559,0.21817136,0.23295105,0.24353004,0.25092006,0.25830984,0.26888883,0.2805103,0.28897333,0.2952901,0.29952168,0.30479586,0.31114328,0.31537473,0.323838,0.33438623,0.34708095,0.3587023,0.36609232,0.37136638,0.37982953,0.391451,0.40730417,0.42312646,0.43897963,0.45379007,0.46961248,0.48442292,0.4960444,0.504477,0.5150559,0.5298357,0.5499203,0.57000506,0.59217477,0.61118615,0.6270392,0.64500797,0.660861,0.67775667,0.6978413,0.72001123,0.739053,0.7517173,0.76018035,0.76757026,0.7770759,0.78762424,0.79292905,0.7908132,0.7886975,0.78658164,0.78658164,0.78235006,0.7718017,0.7559488,0.73270583,0.7062738,0.67036676,0.6270392,0.5763216,0.5214032,0.46329582,0.40411508,0.3460077,0.29317427,0.24564588,0.19808662,0.14948487,0.107230544,0.07025027,0.041733146,0.018490076,-0.0037102103,-0.024837434,-0.041733086,-0.05228132,-0.06286019,-0.071323395,-0.07659745,-0.07555491,-0.06601858,-0.0533545,-0.044891417,-0.038574696,-0.034343123,-0.030111492,-0.023764193,-0.021648407,-0.022721648,-0.021648407,-0.020605862,-0.01637423,-0.013215959,-0.008984387,-0.0057953596,-0.0015944839,-0.0005212426,-0.0047528744,-0.010026932,-0.014258504,-0.015331745,-0.012142718,-0.011100173,-0.010026932,-0.007911146,-0.0057953596,-0.0037102103,-0.0068685412,-0.010026932,-0.013215959,-0.011100173,-0.008984387,-0.008984387,-0.013215959,-0.017416894,-0.01953262,-0.017416894,-0.014258504,-0.0068685412,-0.002636969,0.0037103891,0.00686872,0.0026370287,-0.0037102103,-0.0068685412,-0.0068685412,-0.002636969,-0.002636969,-0.0057953596,-0.012142718,-0.01637423,-0.01637423,-0.015331745,-0.012142718,-0.008984387,-0.0047528744,-0.002636969,-0.002636969,-0.002636969,-0.0005212426,0.0037103891,0.00686872,0.0037103891,-0.0005212426,-0.0037102103,-0.0015944839,0.0047528744,0.0089844465,0.013216019,0.016374469,0.022721767,0.02695334,0.02695334,0.025880098,0.022721767,0.01744759,0.015331864,0.013216019,0.013216019,0.01744759,0.020606041,0.021648526,0.020606041,0.01744759,0.016374469,0.018490076,0.0195328,0.01744759,0.01744759,0.0195328,0.021648526,0.023764253,0.021648526,0.018490076,0.016374469,0.018490076,0.021648526,0.023764253,0.025880098,0.029069066,0.04069054,0.06286025,0.09033489,0.11357796,0.13154674,0.14209497,0.14739978,0.15794802,0.1769594,0.19915986,0.22132957,0.24353004,0.25938308,0.27100456,0.2805103,0.28366864,0.27627873,0.25830984,0.22979283,0.18858087,0.13682091,0.085060716,0.037501574,0.0089844465,0.0015945435,0.00686872,0.015331864,0.015331864,0.0089844465,0.0005213022,-0.0057953596,-0.007911146,-0.011100173,-0.014258504,-0.01637423,-0.015331745,-0.014258504,-0.012142718,-0.010026932,-0.0047528744,0.0037103891,0.012142777,0.029069066,0.074481845,0.16641116,0.29636335,0.43370545,0.50555015,0.46856987,0.341776,0.11673617,-0.19704401,-0.528793,-0.76649696,-0.82567763,-0.6661351,-0.3607874,-0.07025015,0.107230544,0.17168534,0.17064273,0.15055811,0.13470507,0.13154674,0.13682091,0.15267396,0.17168534,0.18646514,0.19492829,0.20127559,0.207623,0.21605551,0.22132957,0.22767699,0.23190856,0.23718262,0.24353004,0.2477616,0.25199318,0.2614988,0.27839458,0.29952168,0.3206489,0.3396603,0.352355,0.36081815,0.3671348,0.37243974,0.38194525,0.39672518,0.4136207,0.4315896,0.44428444,0.45799088,0.47384405,0.49285543,0.5140133,0.5340673,0.5499203,0.566816,0.5879432,0.60910106,0.63022816,0.65028214,0.66720843,0.68410397,0.70311546,0.72001123,0.7369374,0.7517173,0.7633387,0.77072847,0.77072847,0.76861286,0.76757026,0.7696861,0.7718017,0.76757026,0.75699127,0.74009573,0.72108424,0.69572556,0.6597879,0.6143751,0.56261504,0.5087086,0.45799088,0.40518832,0.35023928,0.2942475,0.23929846,0.18646514,0.13470507,0.085060716,0.04277575,0.0089844465,-0.017416894,-0.040659845,-0.060744405,-0.077640116,-0.08926159,-0.097724795,-0.10511464,-0.11146206,-0.116736114,-0.117809355,-0.11357778,-0.11146206,-0.10934615,-0.107230365,-0.10299885,-0.094566345,-0.0861032,-0.07871336,-0.07236594,-0.06709182,-0.061817646,-0.057586133,-0.054397106,-0.05019617,-0.044891417,-0.037501454,-0.032227397,-0.02903837,-0.027995825,-0.02903837,-0.030111492,-0.030111492,-0.02587998,-0.01953262,-0.012142718,-0.007911146,-0.008984387,-0.014258504,-0.020605862,-0.024837434,-0.024837434,-0.024837434,-0.024837434,-0.02587998,-0.02587998,-0.027995825,-0.031154156,-0.03538567,-0.040659845,-0.044891417,-0.048080385,-0.05019617,-0.0533545,-0.054397106,-0.0533545,-0.05228132,-0.0533545,-0.0533545,-0.05228132,-0.048080385,-0.04596466,-0.04596466,-0.04912293,-0.05228132,-0.051238835,-0.043848872,-0.03645891,-0.031154156,-0.02587998,-0.022721648,-0.022721648,-0.024837434,-0.02587998,-0.024837434,-0.018490136,-0.012142718,-0.008984387,-0.007911146,-0.0068685412,-0.002636969,0.0037103891,0.007911205,0.007911205,0.0058261156,0.0037103891,0.0005213022,0.0005213022,0.0026370287,0.00686872,0.010027051,0.011100292,0.0089844465,0.0047528744,0.0015945435,0.0015945435,0.0026370287,0.0005213022,-0.0005212426,0.0026370287,0.016374469,0.04069054,0.06709194,0.0913775,0.10934627,0.12308359,0.13682091,0.15583217,0.17484367,0.19176996,0.20550716,0.21924448,0.23190856,0.24880409,0.26361465,0.2678156,0.25938308,0.23614013,0.20127559,0.15583217,0.108303785,0.06604934,0.031154275,0.012142777,0.00686872,0.0089844465,0.011100292,0.0037103891,-0.0068685412,-0.018490136,-0.027995825,-0.034343123,-0.040659845,-0.04596466,-0.051238835,-0.0533545,-0.05228132,-0.05228132,-0.051238835,-0.04912293,-0.048080385,-0.043848872,-0.01953262,0.04384899,0.15794802,0.3058691,0.44428444,0.49497128,0.43793702,0.2952901,0.058628798,-0.25830978,-0.5710474,-0.77496004,-0.78973997,-0.59217465,-0.2783944,-0.0057953596,0.14528394,0.18542266,0.17168534,0.14844239,0.13258922,0.12835765,0.1304735,0.1378634,0.14844239,0.15902126,0.168527,0.17907524,0.19069672,0.20020235,0.20654976,0.21182394,0.21924448,0.22979283,0.24353004,0.2551515,0.26573038,0.27523613,0.2868576,0.29847908,0.30798483,0.31749058,0.3269962,0.3396603,0.3533975,0.36501908,0.37664056,0.38826203,0.40199935,0.41469395,0.4252423,0.43793702,0.45167422,0.47280145,0.497087,0.5182142,0.53829885,0.5551945,0.5731633,0.5942905,0.6154177,0.63761806,0.65662944,0.6767142,0.69676816,0.7115785,0.7253158,0.73797977,0.7506746,0.76018035,0.7633387,0.76122296,0.75699127,0.75487554,0.75383294,0.748559,0.73482156,0.7115785,0.68410397,0.652398,0.613302,0.57000506,0.5203301,0.4675274,0.41150498,0.3533975,0.29636335,0.24353004,0.19600153,0.15160072,0.1051147,0.060744524,0.0195328,-0.011100173,-0.032227397,-0.04912293,-0.061817646,-0.074481785,-0.08294487,-0.08717644,-0.08821905,-0.08717644,-0.08294487,-0.077640116,-0.07236594,-0.07343918,-0.077640116,-0.07975584,-0.074481785,-0.06286019,-0.04912293,-0.038574696,-0.031154156,-0.02587998,-0.018490136,-0.012142718,-0.0037102103,0.0015945435,0.0058261156,0.0058261156,0.0015945435,-0.0015944839,-0.0037102103,-0.0015944839,0.0026370287,0.0058261156,0.0089844465,0.012142777,0.016374469,0.0195328,0.018490076,0.016374469,0.012142777,0.0089844465,0.0089844465,0.007911205,0.0047528744,0.0015945435,0.0005213022,0.0015945435,0.0047528744,0.0089844465,0.012142777,0.013216019,0.011100292,0.0058261156,0.0005213022,-0.002636969,-0.0015944839,0.0005213022,0.0005213022,-0.0005212426,-0.002636969,-0.0015944839,-0.0015944839,-0.0015944839,-0.0015944839,-0.002636969,-0.0005212426,0.0015945435,0.0005213022,-0.0005212426,0.0005213022,0.0047528744,0.011100292,0.013216019,0.013216019,0.0089844465,0.0058261156,0.00686872,0.010027051,0.015331864,0.0195328,0.021648526,0.021648526,0.0195328,0.0195328,0.021648526,0.02695334,0.032227516,0.032227516,0.03011167,0.02695334,0.024837494,0.02695334,0.031154275,0.035385728,0.04069054,0.045964718,0.048080564,0.047007322,0.047007322,0.052312016,0.06920767,0.09560895,0.120967746,0.14316821,0.15794802,0.168527,0.18330681,0.20339143,0.22451866,0.24141431,0.2551515,0.2678156,0.27839458,0.29213178,0.30375326,0.30268002,0.28897333,0.25938308,0.21817136,0.16745377,0.11462045,0.06604934,0.024837494,0.0005213022,-0.0057953596,0.0005213022,0.00686872,0.00686872,0.0026370287,-0.0057953596,-0.011100173,-0.014258504,-0.01953262,-0.02587998,-0.030111492,-0.030111492,-0.027995825,-0.02695322,-0.02695322,-0.02695322,-0.024837434,-0.01637423,0.013216019,0.085060716,0.20339143,0.35551345,0.49497128,0.5414573,0.47491717,0.32276475,0.07025027,-0.26042557,-0.5773948,-0.7781185,-0.7802342,-0.5625843,-0.23506683,0.041733146,0.18753839,0.21924448,0.19600153,0.16533792,0.14632666,0.14316821,0.15160072,0.16533792,0.17907524,0.18965411,0.19704413,0.20550716,0.21393967,0.22132957,0.22344542,0.22451866,0.22767699,0.23825586,0.25199318,0.26361465,0.274163,0.2815528,0.29213178,0.30375326,0.3122164,0.3196063,0.32911205,0.34389186,0.3587023,0.37136638,0.38087213,0.38933527,0.40095675,0.41573668,0.42947388,0.44428444,0.45906413,0.47807562,0.49920285,0.5203301,0.53934133,0.5573102,0.57739484,0.5964062,0.6143751,0.632344,0.65028214,0.6692935,0.68937814,0.70734704,0.7253158,0.74009573,0.75383294,0.7633387,0.76545453,0.7633387,0.7580645,0.7559488,0.7527597,0.74644315,0.73586416,0.71685266,0.691494,0.6597879,0.61649096,0.5678891,0.51294005,0.45799088,0.40518832,0.352355,0.29740596,0.24248743,0.18965411,0.13893664,0.09245074,0.052312016,0.016374469,-0.011100173,-0.03538567,-0.05862868,-0.077640116,-0.09245062,-0.10195631,-0.107230365,-0.10830361,-0.107230365,-0.10511464,-0.09984046,-0.09560889,-0.093493104,-0.093493104,-0.09560889,-0.09668213,-0.094566345,-0.09137738,-0.083987415,-0.07659745,-0.06709182,-0.061817646,-0.061817646,-0.063902855,-0.06601858,-0.06286019,-0.05862868,-0.055470347,-0.0533545,-0.051238835,-0.04596466,-0.03961724,-0.03645891,-0.034343123,-0.03538567,-0.033269882,-0.02903837,-0.02903837,-0.031154156,-0.034343123,-0.034343123,-0.034343123,-0.03538567,-0.03961724,-0.04596466,-0.051238835,-0.054397106,-0.05862868,-0.05970192,-0.060744405,-0.057586133,-0.054397106,-0.055470347,-0.056512892,-0.05862868,-0.057586133,-0.05228132,-0.04912293,-0.044891417,-0.041733086,-0.03645891,-0.034343123,-0.03645891,-0.03961724,-0.041733086,-0.040659845,-0.038574696,-0.03961724,-0.03961724,-0.03961724,-0.03538567,-0.031154156,-0.02903837,-0.030111492,-0.032227397,-0.032227397,-0.031154156,-0.033269882,-0.03538567,-0.03538567,-0.033269882,-0.031154156,-0.032227397,-0.034343123,-0.037501454,-0.03645891,-0.032227397,-0.031154156,-0.02903837,-0.02903837,-0.02587998,-0.021648407,-0.01953262,-0.017416894,-0.018490136,-0.01637423,-0.0057953596,0.016374469,0.045964718,0.07767081,0.107230544,0.12519944,0.13366246,0.14528394,0.16006386,0.17803264,0.19704413,0.21078134,0.22663438,0.24248743,0.26254153,0.27100456,0.26254153,0.23614013,0.19600153,0.14844239,0.094566464,0.03961742,-0.007911146,-0.040659845,-0.05228132,-0.051238835,-0.05019617,-0.0533545,-0.061817646,-0.06920761,-0.074481785,-0.07871336,-0.08187163,-0.083987415,-0.08294487,-0.07975584,-0.07555491,-0.07236594,-0.074481785,-0.074481785,-0.07659745,-0.08294487,-0.07555491,-0.034343123,0.06604934,0.21393967,0.37982953,0.48334968,0.46645415,0.3587023,0.14948487,-0.16745365,-0.52140313,-0.79924566,-0.9017539,-0.7643812,-0.45167416,-0.12412608,0.08821905,0.17064273,0.17168534,0.1442107,0.12415671,0.11885202,0.1304735,0.14844239,0.16533792,0.1769594,0.18330681,0.19388568,0.20654976,0.21712863,0.22344542,0.22767699,0.23295105,0.2403717,0.24987733,0.2614988,0.27100456,0.28366864,0.2952901,0.30479586,0.3122164,0.3196063,0.33015454,0.341776,0.35447073,0.36820805,0.38406122,0.40411508,0.42312646,0.43793702,0.45167422,0.46329582,0.47914886,0.49816024,0.5150559,0.5287931,0.5425304,0.56261504,0.58478475,0.6080278,0.6270392,0.64184976,0.65767217,0.67459834,0.6936097,0.7126212,0.72847426,0.7422116,0.75487554,0.76545453,0.7739177,0.77919185,0.78130746,0.77919185,0.7739177,0.7643813,0.7517173,0.7369374,0.7158103,0.6872624,0.65347123,0.61014354,0.5604993,0.504477,0.44109535,0.37559795,0.3122164,0.25410903,0.20231819,0.15371644,0.107230544,0.061817765,0.023764253,-0.0068685412,-0.033269882,-0.055470347,-0.074481785,-0.08717644,-0.09668213,-0.10088307,-0.10299885,-0.104072094,-0.10299885,-0.10299885,-0.10299885,-0.10195631,-0.097724795,-0.08821905,-0.07871336,-0.07025015,-0.064976096,-0.060744405,-0.055470347,-0.05019617,-0.044891417,-0.03961724,-0.03645891,-0.033269882,-0.030111492,-0.027995825,-0.024837434,-0.020605862,-0.014258504,-0.008984387,-0.0057953596,-0.0057953596,-0.0068685412,-0.0047528744,-0.002636969,-0.0015944839,-0.002636969,-0.0047528744,-0.0057953596,-0.007911146,-0.011100173,-0.014258504,-0.01637423,-0.01637423,-0.012142718,-0.011100173,-0.013215959,-0.015331745,-0.015331745,-0.015331745,-0.015331745,-0.014258504,-0.017416894,-0.018490136,-0.018490136,-0.01953262,-0.023764193,-0.02695322,-0.02903837,-0.02903837,-0.030111492,-0.02903837,-0.027995825,-0.023764193,-0.020605862,-0.022721648,-0.02587998,-0.031154156,-0.031154156,-0.02695322,-0.023764193,-0.024837434,-0.027995825,-0.030111492,-0.031154156,-0.031154156,-0.031154156,-0.02903837,-0.021648407,-0.013215959,-0.0068685412,-0.002636969,-0.002636969,-0.0037102103,-0.0047528744,-0.008984387,-0.013215959,-0.012142718,0.0015945435,0.024837494,0.051238775,0.075555086,0.09245074,0.10407221,0.11569369,0.1304735,0.15160072,0.17272782,0.19388568,0.21078134,0.22344542,0.23825586,0.25410903,0.2614988,0.25303578,0.22240281,0.17272782,0.10934627,0.048080564,-0.002636969,-0.037501454,-0.051238835,-0.051238835,-0.043848872,-0.03961724,-0.040659845,-0.047007143,-0.055470347,-0.06286019,-0.06709182,-0.071323395,-0.07343918,-0.07343918,-0.07025015,-0.064976096,-0.061817646,-0.060744405,-0.060744405,-0.057586133,-0.047007143,-0.018490136,0.04384899,0.15371644,0.29636335,0.43054712,0.4759599,0.4104625,0.24668837,-0.018490136,-0.36186063,-0.6862198,-0.88590086,-0.8827119,-0.6597878,-0.32803875,-0.04596466,0.11253524,0.16217959,0.16217959,0.15055811,0.14528394,0.14948487,0.16006386,0.17380118,0.18646514,0.19600153,0.20020235,0.20550716,0.21501291,0.22663438,0.23614013,0.24248743,0.24668837,0.25303578,0.2614988,0.27100456,0.2815528,0.29105854,0.30268002,0.31641734,0.33015454,0.34284925,0.35447073,0.36925066,0.38298798,0.39460945,0.40623093,0.41892564,0.43474793,0.45167422,0.46645415,0.48123395,0.49497128,0.5108243,0.52771986,0.54568875,0.56261504,0.5805533,0.6016804,0.621765,0.6407765,0.6597879,0.6767142,0.69572556,0.71473706,0.72951674,0.74325395,0.7527597,0.7643813,0.77284443,0.7781186,0.77919185,0.77600265,0.7739177,0.77072847,0.7643813,0.75487554,0.73586416,0.7115785,0.6798725,0.63761806,0.5900589,0.5361831,0.48334968,0.42735815,0.36925066,0.30902743,0.2477616,0.19281256,0.14316821,0.09668219,0.055470467,0.018490076,-0.008984387,-0.02695322,-0.043848872,-0.057586133,-0.07025015,-0.07975584,-0.08294487,-0.08294487,-0.08294487,-0.085060656,-0.083987415,-0.080829084,-0.077640116,-0.07343918,-0.07236594,-0.06920761,-0.06601858,-0.063902855,-0.061817646,-0.05862868,-0.054397106,-0.04912293,-0.047007143,-0.04596466,-0.04596466,-0.04277563,-0.03961724,-0.037501454,-0.03645891,-0.03645891,-0.02695322,-0.012142718,-0.0015944839,0.0047528744,0.0026370287,-0.002636969,-0.007911146,-0.010026932,-0.011100173,-0.014258504,-0.015331745,-0.01637423,-0.018490136,-0.01953262,-0.020605862,-0.017416894,-0.015331745,-0.018490136,-0.01953262,-0.018490136,-0.012142718,-0.0047528744,-0.0037102103,-0.011100173,-0.021648407,-0.027995825,-0.02903837,-0.02903837,-0.031154156,-0.033269882,-0.033269882,-0.02903837,-0.02587998,-0.022721648,-0.021648407,-0.01953262,-0.01637423,-0.015331745,-0.015331745,-0.01953262,-0.020605862,-0.021648407,-0.022721648,-0.024837434,-0.027995825,-0.02903837,-0.027995825,-0.024837434,-0.021648407,-0.01953262,-0.01637423,-0.012142718,-0.0068685412,-0.002636969,0.0005213022,0.0037103891,0.0047528744,0.010027051,0.023764253,0.04277575,0.06813443,0.08929229,0.10299897,0.11357796,0.12943089,0.15583217,0.18330681,0.20550716,0.22240281,0.23506689,0.25092006,0.26993132,0.27839458,0.26993132,0.24248743,0.20127559,0.14948487,0.08929229,0.03327,-0.013215959,-0.040659845,-0.04912293,-0.048080385,-0.04596466,-0.048080385,-0.051238835,-0.057586133,-0.06709182,-0.07555491,-0.08187163,-0.08187163,-0.07975584,-0.07659745,-0.07343918,-0.071323395,-0.06601858,-0.06286019,-0.063902855,-0.071323395,-0.06709182,-0.023764193,0.07659769,0.21817136,0.37982953,0.48442292,0.47491717,0.36925066,0.17064273,-0.1262418,-0.46433824,-0.7369373,-0.8510364,-0.74644303,-0.45799088,-0.1336624,0.09560895,0.19176996,0.19704413,0.16745377,0.14105248,0.13258922,0.1378634,0.14948487,0.16006386,0.16745377,0.17591691,0.18330681,0.18858087,0.19492829,0.20020235,0.21289718,0.22875011,0.24353004,0.2551515,0.26361465,0.27204716,0.2805103,0.29001606,0.29952168,0.30902743,0.32172203,0.33650196,0.35023928,0.36186075,0.3703239,0.38194525,0.39776766,0.41469395,0.43474793,0.45483267,0.47491717,0.49285543,0.5076659,0.5214032,0.5351404,0.5509628,0.566816,0.5816264,0.5964062,0.61225927,0.6344291,0.6597879,0.68410397,0.7052313,0.72212684,0.73797977,0.7527597,0.7643813,0.7718017,0.7739177,0.7749603,0.7749603,0.7718017,0.76649714,0.75699127,0.74644315,0.73059,0.70838964,0.6798725,0.64184976,0.5964062,0.54464614,0.48758137,0.42843127,0.3703239,0.31641734,0.26361465,0.21078134,0.16006386,0.11253524,0.072366,0.037501574,0.0047528744,-0.02587998,-0.0533545,-0.07236594,-0.0861032,-0.094566345,-0.10088307,-0.10511464,-0.10195631,-0.094566345,-0.08821905,-0.08187163,-0.08187163,-0.080829084,-0.077640116,-0.07343918,-0.06813437,-0.06286019,-0.057586133,-0.0533545,-0.055470347,-0.061817646,-0.06813437,-0.06813437,-0.061817646,-0.0533545,-0.04596466,-0.043848872,-0.041733086,-0.03961724,-0.03645891,-0.033269882,-0.02903837,-0.021648407,-0.013215959,-0.008984387,-0.0068685412,-0.007911146,-0.007911146,-0.0057953596,-0.0037102103,-0.0037102103,-0.0068685412,-0.0068685412,-0.0047528744,-0.0005212426,0.0037103891,0.007911205,0.013216019,0.014258623,0.011100292,0.00686872,0.0005213022,0.0005213022,0.0015945435,0.0026370287,0.0005213022,-0.002636969,-0.002636969,-0.0005212426,0.0015945435,0.0015945435,-0.0015944839,-0.0037102103,-0.0057953596,-0.010026932,-0.014258504,-0.01953262,-0.01953262,-0.017416894,-0.01637423,-0.015331745,-0.01637423,-0.015331745,-0.014258504,-0.014258504,-0.015331745,-0.01637423,-0.015331745,-0.013215959,-0.011100173,-0.008984387,-0.008984387,-0.0068685412,-0.0047528744,-0.0015944839,0.010027051,0.031154275,0.060744524,0.08929229,0.10934627,0.11992526,0.12943089,0.14948487,0.1769594,0.20550716,0.22979283,0.24668837,0.25938308,0.27523613,0.28578448,0.28578448,0.27100456,0.24248743,0.20127559,0.14739978,0.08610332,0.029069066,-0.012142718,-0.031154156,-0.033269882,-0.02903837,-0.027995825,-0.030111492,-0.034343123,-0.03961724,-0.047007143,-0.0533545,-0.056512892,-0.056512892,-0.056512892,-0.054397106,-0.0533545,-0.04912293,-0.04596466,-0.04596466,-0.05019617,-0.057586133,-0.047007143,0.0026370287,0.108303785,0.2561941,0.4178524,0.5150559,0.49181283,0.3703239,0.14528394,-0.18753827,-0.5446461,-0.81617194,-0.90595484,-0.759107,-0.4400527,-0.10830361,0.10618794,0.18646514,0.18226421,0.14948487,0.12624192,0.11885202,0.12624192,0.14209497,0.15794802,0.1769594,0.18858087,0.19388568,0.19492829,0.19388568,0.20127559,0.21501291,0.22767699,0.23718262,0.24564588,0.25726736,0.2731204,0.29105854,0.30479586,0.313259,0.3206489,0.3280388,0.3375752,0.34919667,0.36081815,0.37559795,0.39037776,0.40307248,0.41573668,0.42843127,0.4463694,0.4675274,0.48758137,0.504477,0.5182142,0.5351404,0.55307865,0.5721208,0.59113216,0.6080278,0.6291549,0.6545137,0.6788299,0.702073,0.72108424,0.739053,0.75383294,0.76649714,0.77600265,0.78130746,0.78553903,0.78658164,0.7834233,0.77600265,0.7633387,0.74960136,0.7316326,0.7094629,0.6809151,0.6460506,0.6080278,0.56470025,0.5140133,0.4569484,0.39672518,0.3375752,0.27943707,0.22132957,0.16429543,0.11041951,0.06393349,0.022721767,-0.014258504,-0.048080385,-0.077640116,-0.09668213,-0.10934615,-0.1188519,-0.12519932,-0.13047338,-0.12943083,-0.1262418,-0.12308341,-0.120967746,-0.11992514,-0.11462033,-0.10830361,-0.10195631,-0.097724795,-0.09668213,-0.09245062,-0.08926159,-0.0861032,-0.08294487,-0.08187163,-0.080829084,-0.07871336,-0.074481785,-0.06920761,-0.061817646,-0.056512892,-0.055470347,-0.05862868,-0.063902855,-0.06601858,-0.064976096,-0.06286019,-0.060744405,-0.05862868,-0.05970192,-0.057586133,-0.057586133,-0.05970192,-0.060744405,-0.060744405,-0.056512892,-0.057586133,-0.064976096,-0.07236594,-0.07975584,-0.07659745,-0.06813437,-0.05970192,-0.056512892,-0.05862868,-0.05970192,-0.05862868,-0.054397106,-0.04912293,-0.04596466,-0.041733086,-0.038574696,-0.040659845,-0.04277563,-0.047007143,-0.047007143,-0.044891417,-0.041733086,-0.040659845,-0.03961724,-0.033269882,-0.02695322,-0.020605862,-0.017416894,-0.018490136,-0.018490136,-0.01637423,-0.012142718,-0.007911146,-0.010026932,-0.008984387,-0.007911146,-0.0068685412,-0.0057953596,-0.0068685412,-0.008984387,-0.0068685412,-0.0037102103,0.0015945435,0.0015945435,0.0026370287,0.0037103891,0.011100292,0.031154275,0.058628798,0.08929229,0.11462045,0.12943089,0.1378634,0.15371644,0.18119109,0.21393967,0.24141431,0.26042557,0.26993132,0.2805103,0.2952901,0.30163753,0.29317427,0.26465726,0.22344542,0.17064273,0.111462,0.057586193,0.013216019,-0.008984387,-0.014258504,-0.012142718,-0.013215959,-0.020605862,-0.027995825,-0.03538567,-0.04277563,-0.05019617,-0.057586133,-0.057586133,-0.0533545,-0.051238835,-0.04912293,-0.05228132,-0.054397106,-0.0533545,-0.05228132,-0.0533545,-0.048080385,-0.017416894,0.057586193,0.18542266,0.3449651,0.48123395,0.5171716,0.44532692,0.26361465,-0.04277563,-0.42419964,-0.75699127,-0.93554515,-0.8805961,-0.6080277,-0.26254135,0.0058261156,0.13997924,0.17064273,0.15583217,0.13258922,0.12519944,0.13366246,0.14844239,0.16429543,0.1769594,0.18858087,0.19704413,0.20443404,0.2097081,0.21501291,0.22451866,0.23402429,0.2403717,0.24564588,0.24987733,0.26042557,0.274163,0.28897333,0.30163753,0.31433225,0.33015454,0.3460077,0.36081815,0.3703239,0.37559795,0.38406122,0.39672518,0.41257823,0.4315896,0.44744265,0.46117997,0.47384405,0.48546553,0.5013186,0.5214032,0.543573,0.56261504,0.5805533,0.5964062,0.61225927,0.63550234,0.6597879,0.68198824,0.70311546,0.72108424,0.74009573,0.75699127,0.76649714,0.77072847,0.7718017,0.77284443,0.7749603,0.78023446,0.78130746,0.77600265,0.76861286,0.75699127,0.739053,0.71369445,0.67775667,0.6344291,0.582669,0.5245615,0.46117997,0.39672518,0.33650196,0.28262603,0.22979283,0.17591691,0.11992526,0.071323514,0.031154275,-0.0005212426,-0.022721648,-0.044891417,-0.063902855,-0.08187163,-0.09560889,-0.10618788,-0.11146206,-0.11250454,-0.10934615,-0.10830361,-0.10618788,-0.10511464,-0.10088307,-0.09560889,-0.09033483,-0.085060656,-0.08187163,-0.077640116,-0.07659745,-0.07236594,-0.06920761,-0.064976096,-0.054397106,-0.044891417,-0.034343123,-0.02587998,-0.020605862,-0.01637423,-0.014258504,-0.013215959,-0.012142718,-0.013215959,-0.008984387,-0.0047528744,-0.0015944839,-0.002636969,-0.0068685412,-0.008984387,-0.010026932,-0.011100173,-0.012142718,-0.01637423,-0.018490136,-0.018490136,-0.01953262,-0.021648407,-0.02587998,-0.02903837,-0.027995825,-0.023764193,-0.020605862,-0.018490136,-0.015331745,-0.015331745,-0.017416894,-0.018490136,-0.018490136,-0.013215959,-0.0068685412,-0.0037102103,-0.0047528744,-0.010026932,-0.011100173,-0.012142718,-0.010026932,-0.007911146,-0.0068685412,-0.002636969,0.0015945435,0.0015945435,-0.0015944839,-0.0047528744,-0.0068685412,-0.0057953596,-0.0015944839,0.0026370287,0.0058261156,0.013216019,0.0195328,0.021648526,0.020606041,0.01744759,0.014258623,0.012142777,0.012142777,0.012142777,0.016374469,0.03645897,0.06393349,0.09349322,0.11673617,0.12835765,0.13577831,0.14632666,0.16429543,0.18858087,0.21393967,0.23614013,0.25303578,0.26465726,0.2731204,0.2731204,0.26465726,0.24141431,0.20231819,0.14528394,0.07975602,0.023764253,-0.01637423,-0.034343123,-0.037501454,-0.034343123,-0.027995825,-0.024837434,-0.02587998,-0.030111492,-0.038574696,-0.043848872,-0.047007143,-0.04912293,-0.051238835,-0.055470347,-0.055470347,-0.0533545,-0.05228132,-0.0533545,-0.055470347,-0.05228132,-0.040659845,-0.007911146,0.06393349,0.17591691,0.31537473,0.42843127,0.44744265,0.3671348,0.18646514,-0.094566345,-0.43582112,-0.72424257,-0.86581624,-0.79712987,-0.5330246,-0.20970803,0.032227516,0.15055811,0.1769594,0.168527,0.15902126,0.15794802,0.1632222,0.17064273,0.18226421,0.19600153,0.20654976,0.21501291,0.22028708,0.22875011,0.23825586,0.2477616,0.2561941,0.2614988,0.26993132,0.27943707,0.29105854,0.30163753,0.3122164,0.32488048,0.3386178,0.3533975,0.36925066,0.38406122,0.40199935,0.41892564,0.4326322,0.4421686,0.4495585,0.46117997,0.47491717,0.4886545,0.5002761,0.50978184,0.52351904,0.53934133,0.55838346,0.5763216,0.59113216,0.60910106,0.6281123,0.64923966,0.67036676,0.68937814,0.70734704,0.7232001,0.73797977,0.74960136,0.7591071,0.7696861,0.7781186,0.78235006,0.7834233,0.78130746,0.7770759,0.7696861,0.7580645,0.7422116,0.72001123,0.6936097,0.660861,0.6186067,0.566816,0.50659263,0.4463694,0.3861462,0.3269962,0.26993132,0.21501291,0.16429543,0.117809415,0.072366,0.032227516,-0.0015944839,-0.024837434,-0.04277563,-0.057586133,-0.07025015,-0.08187163,-0.085060656,-0.08294487,-0.080829084,-0.08187163,-0.08294487,-0.08294487,-0.080829084,-0.07871336,-0.080829084,-0.083987415,-0.08187163,-0.07871336,-0.07236594,-0.06601858,-0.061817646,-0.054397106,-0.047007143,-0.040659845,-0.03538567,-0.032227397,-0.027995825,-0.023764193,-0.01953262,-0.015331745,-0.014258504,-0.012142718,-0.010026932,-0.007911146,-0.0057953596,-0.0015944839,0.0047528744,0.0089844465,0.0089844465,0.0037103891,-0.0015944839,-0.002636969,-0.0015944839,0.0015945435,0.0015945435,0.0005213022,0.0015945435,0.0037103891,0.0026370287,-0.002636969,-0.010026932,-0.013215959,-0.013215959,-0.010026932,-0.0068685412,-0.0047528744,-0.002636969,-0.0005212426,0.0005213022,-0.0005212426,-0.0015944839,0.0005213022,0.0026370287,0.0037103891,0.0037103891,0.0037103891,0.00686872,0.012142777,0.018490076,0.021648526,0.020606041,0.020606041,0.018490076,0.01744759,0.016374469,0.013216019,0.015331864,0.01744759,0.01744759,0.016374469,0.013216019,0.011100292,0.0089844465,0.0089844465,0.010027051,0.014258623,0.032227516,0.057586193,0.08717656,0.111462,0.12624192,0.13682091,0.15055811,0.17064273,0.19281256,0.21289718,0.23190856,0.24880409,0.2678156,0.28578448,0.2942475,0.28897333,0.26888883,0.23402429,0.18646514,0.12624192,0.06604934,0.012142777,-0.02587998,-0.04277563,-0.04912293,-0.04596466,-0.041733086,-0.038574696,-0.034343123,-0.031154156,-0.02903837,-0.030111492,-0.034343123,-0.03961724,-0.04277563,-0.03961724,-0.03645891,-0.033269882,-0.03538567,-0.040659845,-0.04596466,-0.05019617,-0.033269882,0.031154275,0.14316821,0.2942475,0.44109535,0.497087,0.4315896,0.2815528,0.054397225,-0.24880409,-0.5382987,-0.73058987,-0.7548755,-0.57420576,-0.27312022,0.0015945435,0.15794802,0.20020235,0.18542266,0.15794802,0.14316821,0.14209497,0.15055811,0.16533792,0.17907524,0.19069672,0.19915986,0.20550716,0.21393967,0.22240281,0.22979283,0.23614013,0.24248743,0.25092006,0.2614988,0.2731204,0.28474188,0.2952901,0.30798483,0.3196063,0.3280388,0.33545935,0.34389186,0.35762918,0.3745247,0.391451,0.40411508,0.41257823,0.42208397,0.43370545,0.44744265,0.46222258,0.47807562,0.49816024,0.5203301,0.5414573,0.5604993,0.57843745,0.59852207,0.62072253,0.64184976,0.66401947,0.6851467,0.70838964,0.73270583,0.75487554,0.7718017,0.7834233,0.7950449,0.8045504,0.81405616,0.81933033,0.8214462,0.8204036,0.81509876,0.80347717,0.78658164,0.76545453,0.74113834,0.7094629,0.67036676,0.6196493,0.5615418,0.5023918,0.44428444,0.3861462,0.3269962,0.2678156,0.21393967,0.16429543,0.117809415,0.075555086,0.037501574,0.007911205,-0.012142718,-0.024837434,-0.034343123,-0.04277563,-0.04912293,-0.054397106,-0.057586133,-0.060744405,-0.061817646,-0.057586133,-0.05019617,-0.04277563,-0.03645891,-0.034343123,-0.032227397,-0.030111492,-0.027995825,-0.027995825,-0.031154156,-0.027995825,-0.020605862,-0.012142718,-0.0047528744,-0.0015944839,0.0005213022,0.0005213022,0.0015945435,0.0037103891,0.0058261156,0.010027051,0.014258623,0.016374469,0.014258623,0.012142777,0.015331864,0.021648526,0.027995825,0.029069066,0.023764253,0.021648526,0.020606041,0.024837494,0.029069066,0.029069066,0.02695334,0.021648526,0.012142777,0.0047528744,0.0015945435,0.0037103891,0.00686872,0.0089844465,0.0047528744,-0.0005212426,-0.0037102103,-0.0047528744,-0.0037102103,-0.0015944839,-0.0005212426,0.0047528744,0.010027051,0.013216019,0.013216019,0.013216019,0.016374469,0.020606041,0.025880098,0.029069066,0.029069066,0.031154275,0.032227516,0.032227516,0.03011167,0.027995825,0.027995825,0.029069066,0.03011167,0.029069066,0.024837494,0.022721767,0.024837494,0.034343243,0.054397225,0.08082926,0.10934627,0.1304735,0.1442107,0.15055811,0.16533792,0.19069672,0.21924448,0.24564588,0.26254153,0.27204716,0.2815528,0.29213178,0.2952901,0.28474188,0.25938308,0.22240281,0.17380118,0.11569369,0.05651295,0.00686872,-0.023764193,-0.034343123,-0.033269882,-0.031154156,-0.033269882,-0.037501454,-0.04277563,-0.05019617,-0.05970192,-0.06813437,-0.06920761,-0.06813437,-0.064976096,-0.06286019,-0.063902855,-0.064976096,-0.06709182,-0.06920761,-0.07659745,-0.07975584,-0.055470347,0.018490076,0.14739978,0.31010056,0.45799088,0.5076659,0.43582118,0.2731204,0.0015945435,-0.34916592,-0.67879915,-0.8827119,-0.8774377,-0.6513553,-0.31218565,-0.022721648,0.13154674,0.16956961,0.14844239,0.117809415,0.10299897,0.10407221,0.11569369,0.12835765,0.13997924,0.15478969,0.16641116,0.1769594,0.18330681,0.18646514,0.19600153,0.21078134,0.22875011,0.24564588,0.25726736,0.26573038,0.2731204,0.2805103,0.29213178,0.3058691,0.32276475,0.34073353,0.35447073,0.36820805,0.38298798,0.3998835,0.41573668,0.42947388,0.43793702,0.4463694,0.45906413,0.47384405,0.49181283,0.5087086,0.52771986,0.5478046,0.566816,0.58374226,0.60275364,0.621765,0.6471238,0.6735252,0.69995713,0.72001123,0.73586416,0.7527597,0.76649714,0.7781186,0.78973997,0.7971606,0.80347717,0.8066664,0.80347717,0.7950449,0.7844658,0.77284443,0.7580645,0.73586416,0.70311546,0.66401947,0.6228075,0.57739484,0.52667737,0.46856987,0.40199935,0.33650196,0.2731204,0.21289718,0.15583217,0.10299897,0.061817765,0.025880098,-0.0068685412,-0.03645891,-0.063902855,-0.08187163,-0.094566345,-0.10088307,-0.104072094,-0.104072094,-0.09879792,-0.09137738,-0.0861032,-0.083987415,-0.085060656,-0.083987415,-0.080829084,-0.07555491,-0.07025015,-0.06920761,-0.06813437,-0.06709182,-0.063902855,-0.05862868,-0.051238835,-0.04277563,-0.038574696,-0.03645891,-0.037501454,-0.040659845,-0.03538567,-0.02903837,-0.021648407,-0.018490136,-0.018490136,-0.01953262,-0.018490136,-0.015331745,-0.013215959,-0.015331745,-0.01953262,-0.02695322,-0.034343123,-0.040659845,-0.041733086,-0.037501454,-0.032227397,-0.027995825,-0.027995825,-0.02587998,-0.020605862,-0.014258504,-0.011100173,-0.013215959,-0.018490136,-0.018490136,-0.017416894,-0.012142718,-0.007911146,-0.0047528744,-0.002636969,-0.0015944839,-0.002636969,-0.0068685412,-0.013215959,-0.013215959,-0.013215959,-0.013215959,-0.014258504,-0.01637423,-0.015331745,-0.010026932,-0.002636969,0.0005213022,-0.0005212426,-0.0015944839,-0.0015944839,-0.0015944839,0.0005213022,0.0015945435,0.0037103891,0.0058261156,0.0058261156,0.0026370287,0.0015945435,0.011100292,0.032227516,0.064976096,0.09668219,0.11992526,0.13366246,0.1378634,0.13893664,0.14844239,0.16956961,0.20020235,0.23086607,0.25199318,0.266773,0.274163,0.28578448,0.29213178,0.28474188,0.26042557,0.21924448,0.16533792,0.108303785,0.05335474,0.012142777,-0.010026932,-0.013215959,-0.0068685412,-0.0047528744,-0.008984387,-0.018490136,-0.02587998,-0.031154156,-0.034343123,-0.037501454,-0.04277563,-0.044891417,-0.048080385,-0.055470347,-0.06286019,-0.07025015,-0.07343918,-0.06813437,-0.060744405,-0.048080385,-0.017416894,0.051238775,0.16641116,0.31010056,0.4241997,0.43793702,0.35128176,0.16006386,-0.13574755,-0.49285537,-0.79292893,-0.93342936,-0.8520789,-0.5700048,-0.23402423,0.014258623,0.13366246,0.16006386,0.14739978,0.13154674,0.12415671,0.12943089,0.14105248,0.15583217,0.168527,0.1769594,0.18646514,0.19492829,0.20339143,0.21078134,0.21605551,0.22344542,0.23190856,0.24141431,0.25092006,0.26254153,0.27735186,0.29317427,0.3069116,0.3122164,0.31114328,0.31537473,0.32595372,0.34284925,0.36290324,0.3787564,0.39460945,0.40834665,0.42208397,0.43474793,0.44744265,0.46222258,0.47914886,0.5002761,0.5214032,0.5414573,0.56261504,0.5795107,0.59536374,0.60910106,0.62388074,0.64184976,0.66297686,0.68410397,0.70311546,0.72212684,0.739053,0.75487554,0.76649714,0.7718017,0.77284443,0.77600265,0.7770759,0.7770759,0.7739177,0.7633387,0.74748576,0.7253158,0.691494,0.6481664,0.59747946,0.5425304,0.4823072,0.41996813,0.35762918,0.2952901,0.24141431,0.18858087,0.13470507,0.08187175,0.032227516,-0.008984387,-0.043848872,-0.07025015,-0.09137738,-0.107230365,-0.11462033,-0.116736114,-0.116736114,-0.117809355,-0.116736114,-0.11357778,-0.10934615,-0.104072094,-0.10299885,-0.104072094,-0.10088307,-0.094566345,-0.0861032,-0.07975584,-0.077640116,-0.074481785,-0.07025015,-0.060744405,-0.04912293,-0.040659845,-0.032227397,-0.027995825,-0.027995825,-0.02903837,-0.02903837,-0.02695322,-0.023764193,-0.022721648,-0.022721648,-0.021648407,-0.01637423,-0.010026932,-0.0057953596,-0.0068685412,-0.012142718,-0.01953262,-0.027995825,-0.034343123,-0.03961724,-0.040659845,-0.038574696,-0.03645891,-0.03645891,-0.03961724,-0.043848872,-0.044891417,-0.044891417,-0.043848872,-0.04596466,-0.047007143,-0.04277563,-0.038574696,-0.034343123,-0.03538567,-0.03961724,-0.041733086,-0.040659845,-0.037501454,-0.03538567,-0.03538567,-0.033269882,-0.030111492,-0.02695322,-0.02695322,-0.031154156,-0.032227397,-0.030111492,-0.020605862,-0.0068685412,0.015331864,0.041733146,0.06813443,0.08929229,0.09984064,0.10299897,0.111462,0.12624192,0.1442107,0.16110635,0.17484367,0.19069672,0.2097081,0.23295105,0.2477616,0.24457264,0.22556114,0.19069672,0.14105248,0.07975602,0.0195328,-0.02695322,-0.055470347,-0.061817646,-0.057586133,-0.054397106,-0.054397106,-0.061817646,-0.07343918,-0.085060656,-0.093493104,-0.09560889,-0.094566345,-0.093493104,-0.094566345,-0.09668213,-0.09879792,-0.09984046,-0.09984046,-0.10088307,-0.10195631,-0.09668213,-0.06920761,-0.0047528744,0.10407221,0.23929846,0.37243974,0.42735815,0.37559795,0.23929846,0.0089844465,-0.30056417,-0.6101434,-0.81828773,-0.8478474,-0.6671777,-0.357629,-0.071323395,0.097724795,0.14948487,0.13997924,0.117809415,0.107230544,0.10934627,0.11673617,0.12624192,0.1378634,0.14948487,0.15794802,0.1632222,0.16533792,0.17272782,0.18330681,0.19600153,0.20550716,0.21289718,0.22344542,0.23614013,0.25092006,0.26254153,0.27100456,0.27943707,0.28897333,0.30163753,0.313259,0.323838,0.33545935,0.3449651,0.3533975,0.36186075,0.37348223,0.38933527,0.40834665,0.42631543,0.43897963,0.4495585,0.4643383,0.48334968,0.50659263,0.53195155,0.5551945,0.5795107,0.6016804,0.621765,0.63866067,0.6545137,0.6735252,0.6925672,0.71050525,0.72212684,0.73059,0.73797977,0.74325395,0.74644315,0.7453699,0.73797977,0.73059,0.7178954,0.70099974,0.67564094,0.6397339,0.59956455,0.55307865,0.5023918,0.4463694,0.3851037,0.3280388,0.2731204,0.22132957,0.16956961,0.11673617,0.06813443,0.022721767,-0.013215959,-0.04596466,-0.071323395,-0.09033483,-0.10299885,-0.11250454,-0.11992514,-0.12731504,-0.13047338,-0.13258916,-0.13258916,-0.1336624,-0.1368208,-0.13574755,-0.13154662,-0.12519932,-0.1188519,-0.11250454,-0.10511464,-0.09984046,-0.093493104,-0.085060656,-0.077640116,-0.06709182,-0.05862868,-0.056512892,-0.05970192,-0.06601858,-0.06813437,-0.06601858,-0.061817646,-0.05862868,-0.05970192,-0.05970192,-0.05970192,-0.05862868,-0.05862868,-0.05970192,-0.05970192,-0.061817646,-0.061817646,-0.063902855,-0.064976096,-0.063902855,-0.061817646,-0.05970192,-0.06286019,-0.06601858,-0.063902855,-0.05970192,-0.0533545,-0.05228132,-0.057586133,-0.063902855,-0.06813437,-0.06709182,-0.064976096,-0.063902855,-0.06286019,-0.061817646,-0.05862868,-0.0533545,-0.047007143,-0.040659845,-0.037501454,-0.03645891,-0.037501454,-0.03961724,-0.037501454,-0.033269882,-0.030111492,-0.02903837,-0.030111492,-0.030111492,-0.02903837,-0.02587998,-0.022721648,-0.015331745,0.0026370287,0.02695334,0.05335474,0.071323514,0.08187175,0.094566464,0.11673617,0.14316821,0.168527,0.18438005,0.19808662,0.21393967,0.23506689,0.2551515,0.26254153,0.2561941,0.23190856,0.19176996,0.13682091,0.072366,0.013216019,-0.032227397,-0.056512892,-0.06286019,-0.05862868,-0.0533545,-0.051238835,-0.0533545,-0.061817646,-0.07343918,-0.08294487,-0.09033483,-0.09245062,-0.09245062,-0.09033483,-0.083987415,-0.07975584,-0.077640116,-0.080829084,-0.083987415,-0.08821905,-0.083987415,-0.05019617,0.031154275,0.16110635,0.32172203,0.45483267,0.48123395,0.39460945,0.21924448,-0.054397106,-0.3903777,-0.69149387,-0.86370045,-0.8299092,-0.5879431,-0.26042557,0.0037103891,0.1378634,0.16533792,0.14739978,0.12308359,0.10934627,0.107230544,0.11569369,0.1304735,0.14739978,0.1632222,0.17484367,0.18438005,0.19492829,0.20550716,0.21501291,0.22028708,0.22240281,0.22767699,0.23506689,0.24457264,0.25199318,0.25830984,0.26888883,0.2815528,0.29636335,0.31114328,0.323838,0.3386178,0.35447073,0.36925066,0.38087213,0.391451,0.40623093,0.4241997,0.44428444,0.46222258,0.47703314,0.49181283,0.5087086,0.52667737,0.54464614,0.56365764,0.58374226,0.60591197,0.6281123,0.64923966,0.66825104,0.68833566,0.70734704,0.7253158,0.739053,0.7506746,0.76018035,0.76861286,0.7749603,0.7781186,0.77600265,0.7718017,0.7633387,0.74960136,0.73059,0.7041887,0.67564094,0.63866067,0.593248,0.53725636,0.47491717,0.4136207,0.352355,0.2942475,0.23506689,0.1769594,0.12415671,0.07659769,0.034343243,-0.0037102103,-0.037501454,-0.061817646,-0.07975584,-0.09137738,-0.10088307,-0.10934615,-0.11357778,-0.11462033,-0.11357778,-0.11250454,-0.11146206,-0.10830361,-0.10511464,-0.10299885,-0.10195631,-0.097724795,-0.08926159,-0.07659745,-0.06709182,-0.064976096,-0.06813437,-0.07025015,-0.07025015,-0.06601858,-0.060744405,-0.056512892,-0.05228132,-0.048080385,-0.043848872,-0.040659845,-0.038574696,-0.03538567,-0.032227397,-0.030111492,-0.027995825,-0.027995825,-0.024837434,-0.021648407,-0.01953262,-0.020605862,-0.022721648,-0.024837434,-0.027995825,-0.02695322,-0.02587998,-0.020605862,-0.012142718,-0.0068685412,-0.0047528744,-0.007911146,-0.014258504,-0.017416894,-0.01637423,-0.013215959,-0.013215959,-0.01637423,-0.020605862,-0.024837434,-0.02695322,-0.030111492,-0.033269882,-0.033269882,-0.031154156,-0.02695322,-0.024837434,-0.024837434,-0.023764193,-0.024837434,-0.023764193,-0.024837434,-0.023764193,-0.01953262,-0.01637423,-0.012142718,-0.012142718,-0.011100173,-0.0037102103,0.011100292,0.035385728,0.05970204,0.08187175,0.10195637,0.11673617,0.12943089,0.14528394,0.16429543,0.18646514,0.20866561,0.22875011,0.24353004,0.25726736,0.27204716,0.2805103,0.27523613,0.25092006,0.21182394,0.16006386,0.09984064,0.04069054,-0.007911146,-0.03538567,-0.03645891,-0.022721648,-0.008984387,-0.0047528744,-0.014258504,-0.027995825,-0.040659845,-0.048080385,-0.05228132,-0.055470347,-0.057586133,-0.05970192,-0.061817646,-0.064976096,-0.06813437,-0.071323395,-0.07343918,-0.07236594,-0.07236594,-0.05862868,-0.0037102103,0.111462,0.26888883,0.43370545,0.5182142,0.47807562,0.34389186,0.10091376,-0.24457246,-0.6027535,-0.86158466,-0.9228811,-0.7453698,-0.4136207,-0.097724795,0.09245074,0.15690541,0.14632666,0.117809415,0.09879804,0.09879804,0.11462045,0.13682091,0.15583217,0.168527,0.17591691,0.18226421,0.18965411,0.19704413,0.20654976,0.21712863,0.22767699,0.23825586,0.2477616,0.25830984,0.26993132,0.28262603,0.29317427,0.29847908,0.30268002,0.30902743,0.31749058,0.33015454,0.34389186,0.35658658,0.37348223,0.39037776,0.40938926,0.42735815,0.4421686,0.45799088,0.4759599,0.497087,0.51928735,0.53934133,0.5604993,0.5795107,0.59956455,0.6186067,0.63866067,0.660861,0.68303084,0.7041887,0.72212684,0.73586416,0.74748576,0.75699127,0.7643813,0.76757026,0.76757026,0.7696861,0.7749603,0.78023446,0.78023446,0.7718017,0.75383294,0.72847426,0.6978413,0.6587453,0.6154177,0.5678891,0.5150559,0.4569484,0.3924936,0.32488048,0.26042557,0.19915986,0.14105248,0.08929229,0.04277575,0.0058261156,-0.02695322,-0.054397106,-0.080829084,-0.10088307,-0.11146206,-0.11569357,-0.117809355,-0.120967746,-0.1262418,-0.13047338,-0.12943083,-0.12412608,-0.120967746,-0.116736114,-0.11041939,-0.10511464,-0.097724795,-0.093493104,-0.09033483,-0.08717644,-0.080829084,-0.074481785,-0.06920761,-0.06601858,-0.060744405,-0.055470347,-0.047007143,-0.040659845,-0.037501454,-0.033269882,-0.030111492,-0.02903837,-0.032227397,-0.03538567,-0.034343123,-0.02903837,-0.021648407,-0.020605862,-0.022721648,-0.024837434,-0.02587998,-0.024837434,-0.02587998,-0.02903837,-0.030111492,-0.02695322,-0.022721648,-0.022721648,-0.02695322,-0.032227397,-0.033269882,-0.02903837,-0.024837434,-0.022721648,-0.022721648,-0.027995825,-0.03538567,-0.04277563,-0.048080385,-0.047007143,-0.04277563,-0.038574696,-0.037501454,-0.03645891,-0.033269882,-0.02903837,-0.024837434,-0.023764193,-0.024837434,-0.027995825,-0.030111492,-0.02903837,-0.02903837,-0.027995825,-0.024837434,-0.021648407,-0.017416894,-0.014258504,-0.013215959,-0.011100173,-0.008984387,-0.0037102103,-0.0005212426,0.0005213022,0.0015945435,0.0047528744,0.018490076,0.03961742,0.06604934,0.09349322,0.11462045,0.12835765,0.13366246,0.1442107,0.16110635,0.18330681,0.20443404,0.22240281,0.23506689,0.25092006,0.266773,0.27735186,0.27204716,0.24668837,0.20231819,0.1442107,0.08294499,0.029069066,-0.010026932,-0.024837434,-0.024837434,-0.018490136,-0.017416894,-0.022721648,-0.027995825,-0.032227397,-0.037501454,-0.04596466,-0.0533545,-0.05970192,-0.05970192,-0.054397106,-0.0533545,-0.0533545,-0.055470347,-0.056512892,-0.056512892,-0.056512892,-0.051238835,-0.024837434,0.031154275,0.13577831,0.26888883,0.3988409,0.45271683,0.3998835,0.25092006,-0.008984387,-0.35447067,-0.680915,-0.87955344,-0.87320614,-0.6534711,-0.32488036,-0.04277563,0.11462045,0.16533792,0.16006386,0.1442107,0.13682091,0.14105248,0.15267396,0.16429543,0.1769594,0.19069672,0.20339143,0.21501291,0.22132957,0.22344542,0.22767699,0.23402429,0.24457264,0.2561941,0.26888883,0.28262603,0.29636335,0.30798483,0.3196063,0.33015454,0.34284925,0.35551345,0.3671348,0.37664056,0.38826203,0.40411508,0.4252423,0.44744265,0.4643383,0.47703314,0.4896971,0.5013186,0.5150559,0.5298357,0.546762,0.5678891,0.59113216,0.613302,0.63022816,0.64500797,0.6619036,0.6798725,0.69995713,0.71685266,0.7316326,0.74644315,0.76122296,0.7739177,0.78130746,0.78658164,0.78973997,0.79397166,0.79820323,0.7971606,0.7908132,0.78023446,0.76649714,0.748559,0.72212684,0.68833566,0.6481664,0.59956455,0.54568875,0.48653877,0.4241997,0.36397648,0.3069116,0.25303578,0.20127559,0.15267396,0.10934627,0.071323514,0.037501574,0.0037103891,-0.024837434,-0.047007143,-0.05970192,-0.064976096,-0.06920761,-0.07343918,-0.074481785,-0.07343918,-0.07025015,-0.07025015,-0.07025015,-0.06813437,-0.063902855,-0.055470347,-0.04912293,-0.044891417,-0.038574696,-0.033269882,-0.02695322,-0.024837434,-0.024837434,-0.02695322,-0.02695322,-0.02587998,-0.024837434,-0.024837434,-0.02587998,-0.024837434,-0.022721648,-0.021648407,-0.021648407,-0.021648407,-0.023764193,-0.027995825,-0.032227397,-0.033269882,-0.02903837,-0.020605862,-0.015331745,-0.014258504,-0.01637423,-0.017416894,-0.017416894,-0.017416894,-0.021648407,-0.02695322,-0.02903837,-0.027995825,-0.02587998,-0.027995825,-0.034343123,-0.038574696,-0.038574696,-0.034343123,-0.031154156,-0.030111492,-0.031154156,-0.033269882,-0.034343123,-0.03645891,-0.037501454,-0.03645891,-0.032227397,-0.024837434,-0.020605862,-0.017416894,-0.015331745,-0.01637423,-0.018490136,-0.022721648,-0.02587998,-0.022721648,-0.01637423,-0.0068685412,-0.002636969,0.0005213022,0.0026370287,0.0047528744,0.00686872,0.0058261156,0.0026370287,0.0015945435,0.0026370287,0.0047528744,0.0047528744,0.0026370287,0.0005213022,-0.0015944839,-0.002636969,-0.0057953596,-0.007911146,-0.007911146,-0.002636969,0.013216019,0.038574815,0.071323514,0.10195637,0.12204099,0.13258922,0.13258922,0.14316821,0.1632222,0.18753839,0.21182394,0.22663438,0.23614013,0.24457264,0.2561941,0.26361465,0.25830984,0.24353004,0.21605551,0.17591691,0.12308359,0.06286025,0.00686872,-0.033269882,-0.04912293,-0.04912293,-0.048080385,-0.05019617,-0.054397106,-0.060744405,-0.063902855,-0.07025015,-0.07659745,-0.080829084,-0.08294487,-0.08294487,-0.085060656,-0.08926159,-0.09033483,-0.08926159,-0.0861032,-0.0861032,-0.08926159,-0.074481785,-0.01637423,0.09668219,0.24668837,0.3988409,0.46645415,0.41573668,0.2815528,0.052312016,-0.26042557,-0.57632154,-0.79712987,-0.84045744,-0.67140925,-0.36501896,-0.07025015,0.10618794,0.16533792,0.15371644,0.120967746,0.09984064,0.094566464,0.1051147,0.11885202,0.13470507,0.15160072,0.16745377,0.18119109,0.18858087,0.19281256,0.19704413,0.20231819,0.21289718,0.22132957,0.23086607,0.24248743,0.25410903,0.266773,0.27839458,0.2868576,0.29636335,0.3069116,0.3196063,0.32911205,0.33650196,0.34812343,0.36186075,0.3787564,0.39460945,0.40938926,0.42312646,0.43793702,0.45483267,0.47068572,0.48546553,0.5034344,0.52351904,0.54464614,0.56365764,0.582669,0.60275364,0.62492347,0.6481664,0.6661352,0.6798725,0.6925672,0.7041887,0.71473706,0.72212684,0.7232001,0.72424257,0.7263584,0.72847426,0.7263584,0.72108424,0.71050525,0.6978413,0.6809151,0.65767217,0.6270392,0.5890163,0.54568875,0.497087,0.44428444,0.38826203,0.33438623,0.2805103,0.22767699,0.17380118,0.12204099,0.07767081,0.04069054,0.010027051,-0.01637423,-0.03961724,-0.056512892,-0.06709182,-0.07343918,-0.07871336,-0.08294487,-0.083987415,-0.083987415,-0.08187163,-0.08294487,-0.08294487,-0.07975584,-0.07236594,-0.06286019,-0.05862868,-0.057586133,-0.057586133,-0.0533545,-0.04596466,-0.03961724,-0.03538567,-0.031154156,-0.02695322,-0.022721648,-0.01953262,-0.01637423,-0.012142718,-0.0068685412,-0.002636969,-0.0015944839,-0.002636969,-0.0037102103,-0.0057953596,-0.0057953596,-0.010026932,-0.015331745,-0.01637423,-0.015331745,-0.011100173,-0.007911146,-0.0057953596,-0.0047528744,-0.0037102103,-0.002636969,-0.0047528744,-0.0068685412,-0.008984387,-0.008984387,-0.0068685412,-0.0057953596,-0.0057953596,-0.0047528744,-0.0037102103,-0.0005212426,0.0005213022,0.0005213022,-0.0005212426,-0.0015944839,-0.002636969,-0.007911146,-0.015331745,-0.018490136,-0.01637423,-0.008984387,-0.002636969,-0.0015944839,-0.002636969,-0.0047528744,-0.0057953596,-0.0068685412,-0.007911146,-0.008984387,-0.010026932,-0.007911146,-0.007911146,-0.007911146,-0.008984387,-0.011100173,-0.011100173,-0.012142718,-0.011100173,-0.007911146,-0.0047528744,-0.0015944839,-0.0015944839,-0.0047528744,-0.0068685412,-0.008984387,-0.008984387,-0.011100173,-0.011100173,-0.007911146,-0.0057953596,-0.0005212426,0.0026370287,0.011100292,0.03011167,0.05970204,0.08929229,0.111462,0.12415671,0.13258922,0.15055811,0.17484367,0.19492829,0.21182394,0.22663438,0.24353004,0.26254153,0.27943707,0.28474188,0.27523613,0.2551515,0.22663438,0.18646514,0.13258922,0.07343924,0.01744759,-0.023764193,-0.047007143,-0.051238835,-0.044891417,-0.038574696,-0.03645891,-0.041733086,-0.051238835,-0.05970192,-0.063902855,-0.063902855,-0.063902855,-0.063902855,-0.061817646,-0.05970192,-0.057586133,-0.060744405,-0.063902855,-0.07025015,-0.07236594,-0.04912293,0.016374469,0.13577831,0.29213178,0.44005287,0.49285543,0.42843127,0.27627873,0.021648526,-0.31537467,-0.6397338,-0.8520789,-0.86158466,-0.6428921,-0.3037532,-0.007911146,0.14844239,0.18542266,0.1632222,0.13366246,0.120967746,0.12204099,0.13154674,0.1442107,0.15690541,0.16641116,0.17064273,0.17272782,0.17907524,0.18965411,0.20550716,0.21817136,0.22875011,0.23614013,0.24248743,0.25092006,0.25830984,0.266773,0.27735186,0.29001606,0.3058691,0.31749058,0.3280388,0.3386178,0.352355,0.36925066,0.3861462,0.40307248,0.41892564,0.43686378,0.45483267,0.46961248,0.48123395,0.4960444,0.51294005,0.53195155,0.54887784,0.56365764,0.5805533,0.59956455,0.621765,0.64184976,0.65662944,0.6724826,0.68833566,0.7062738,0.72212684,0.73482156,0.7453699,0.75487554,0.76122296,0.7622962,0.76018035,0.75699127,0.7527597,0.7453699,0.72951674,0.7041887,0.6735252,0.63654494,0.59536374,0.5478046,0.49285543,0.43582118,0.37982953,0.32488048,0.26993132,0.21605551,0.16217959,0.11357796,0.07025027,0.03011167,-0.0037102103,-0.031154156,-0.05228132,-0.06601858,-0.077640116,-0.08717644,-0.094566345,-0.097724795,-0.097724795,-0.09984046,-0.10088307,-0.10088307,-0.09879792,-0.09137738,-0.085060656,-0.07871336,-0.07025015,-0.06286019,-0.057586133,-0.05862868,-0.060744405,-0.061817646,-0.05970192,-0.0533545,-0.051238835,-0.05019617,-0.048080385,-0.04277563,-0.03538567,-0.030111492,-0.024837434,-0.022721648,-0.020605862,-0.020605862,-0.024837434,-0.030111492,-0.034343123,-0.03645891,-0.038574696,-0.03961724,-0.041733086,-0.040659845,-0.037501454,-0.034343123,-0.034343123,-0.03645891,-0.037501454,-0.03645891,-0.034343123,-0.034343123,-0.03538567,-0.03538567,-0.03538567,-0.03538567,-0.03645891,-0.037501454,-0.037501454,-0.037501454,-0.038574696,-0.04277563,-0.047007143,-0.04596466,-0.041733086,-0.03538567,-0.032227397,-0.031154156,-0.032227397,-0.032227397,-0.030111492,-0.030111492,-0.032227397,-0.03538567,-0.03961724,-0.041733086,-0.044891417,-0.048080385,-0.04912293,-0.04912293,-0.04912293,-0.05019617,-0.05019617,-0.047007143,-0.041733086,-0.037501454,-0.03538567,-0.03645891,-0.037501454,-0.038574696,-0.038574696,-0.040659845,-0.03961724,-0.037501454,-0.032227397,-0.02587998,-0.021648407,-0.017416894,-0.014258504,-0.012142718,-0.011100173,-0.011100173,-0.008984387,-0.0057953596,-0.0015944839,0.0037103891,0.012142777,0.032227516,0.060744524,0.09033489,0.11569369,0.13154674,0.14209497,0.16217959,0.18542266,0.20654976,0.22132957,0.22979283,0.24141431,0.26042557,0.2805103,0.2879002,0.27735186,0.25199318,0.21605551,0.17064273,0.11569369,0.058628798,0.010027051,-0.020605862,-0.031154156,-0.030111492,-0.02903837,-0.030111492,-0.033269882,-0.037501454,-0.044891417,-0.054397106,-0.063902855,-0.06920761,-0.07025015,-0.06920761,-0.06920761,-0.06920761,-0.071323395,-0.07343918,-0.077640116,-0.08187163,-0.071323395,-0.023764193,0.07767081,0.22132957,0.3861462,0.49816024,0.49077034,0.38298798,0.16956961,-0.15371639,-0.5182141,-0.8034772,-0.9144179,-0.7876242,-0.4728014,-0.13154662,0.10195637,0.19704413,0.20020235,0.16956961,0.1442107,0.1378634,0.14632666,0.16006386,0.17380118,0.18646514,0.19915986,0.21289718,0.22344542,0.23295105,0.2403717,0.24668837,0.2551515,0.2614988,0.26888883,0.27627873,0.2868576,0.29847908,0.30902743,0.32172203,0.33545935,0.35023928,0.36290324,0.36925066,0.37559795,0.38298798,0.391451,0.40411508,0.41469395,0.42631543,0.44109535,0.45799088,0.4759599,0.4896971,0.5023918,0.5171716,0.5351404,0.55626774,0.57739484,0.6016804,0.6270392,0.65347123,0.67775667,0.69676816,0.71050525,0.72424257,0.739053,0.75487554,0.76649714,0.7749603,0.78023446,0.78130746,0.7781186,0.7696861,0.75699127,0.7443272,0.7316326,0.71685266,0.69572556,0.6661352,0.632344,0.59113216,0.5425304,0.48653877,0.42631543,0.3671348,0.3122164,0.26042557,0.20550716,0.15371644,0.1051147,0.061817765,0.02695334,-0.0068685412,-0.037501454,-0.061817646,-0.080829084,-0.09137738,-0.09879792,-0.09879792,-0.09245062,-0.083987415,-0.07871336,-0.08294487,-0.09033483,-0.097724795,-0.09879792,-0.09033483,-0.07975584,-0.07025015,-0.06286019,-0.05970192,-0.05970192,-0.06286019,-0.06286019,-0.05862868,-0.051238835,-0.047007143,-0.05019617,-0.056512892,-0.060744405,-0.05862868,-0.04912293,-0.041733086,-0.03645891,-0.033269882,-0.030111492,-0.02695322,-0.024837434,-0.02587998,-0.02695322,-0.02695322,-0.02695322,-0.02695322,-0.02587998,-0.020605862,-0.015331745,-0.011100173,-0.012142718,-0.017416894,-0.022721648,-0.02587998,-0.02587998,-0.02587998,-0.02695322,-0.02903837,-0.031154156,-0.030111492,-0.031154156,-0.030111492,-0.027995825,-0.023764193,-0.021648407,-0.023764193,-0.030111492,-0.037501454,-0.041733086,-0.040659845,-0.03645891,-0.034343123,-0.030111492,-0.02587998,-0.021648407,-0.017416894,-0.014258504,-0.013215959,-0.012142718,-0.011100173,-0.014258504,-0.01637423,-0.015331745,-0.011100173,-0.002636969,0.0037103891,0.00686872,0.0058261156,0.0005213022,-0.0068685412,-0.01637423,-0.020605862,-0.021648407,-0.017416894,-0.010026932,-0.007911146,-0.007911146,-0.0057953596,-0.002636969,0.0037103891,0.00686872,0.0089844465,0.0089844465,0.013216019,0.018490076,0.018490076,0.016374469,0.011100292,0.007911205,0.012142777,0.029069066,0.057586193,0.09033489,0.11992526,0.14105248,0.14844239,0.15478969,0.16745377,0.18753839,0.207623,0.22344542,0.23718262,0.25199318,0.26993132,0.2868576,0.2879002,0.27204716,0.23825586,0.18753839,0.12835765,0.06604934,0.013216019,-0.015331745,-0.01953262,-0.011100173,-0.0047528744,-0.010026932,-0.022721648,-0.03645891,-0.044891417,-0.051238835,-0.0533545,-0.055470347,-0.057586133,-0.057586133,-0.060744405,-0.063902855,-0.06601858,-0.064976096,-0.05970192,-0.055470347,-0.044891417,-0.015331745,0.052312016,0.17168534,0.31853306,0.4432112,0.46856987,0.38721943,0.19388568,-0.11569357,-0.48653865,-0.79608727,-0.94189256,-0.8584263,-0.57632154,-0.24037158,0.0089844465,0.1304735,0.16110635,0.15267396,0.14105248,0.13893664,0.1442107,0.15371644,0.1632222,0.17272782,0.18330681,0.19281256,0.20127559,0.20654976,0.21393967,0.22451866,0.23825586,0.24987733,0.2551515,0.2551515,0.25938308,0.26888883,0.28262603,0.29740596,0.30798483,0.31537473,0.32488048,0.33650196,0.35023928,0.36501908,0.3787564,0.39672518,0.41573668,0.43370545,0.4495585,0.46117997,0.4759599,0.49285543,0.51294005,0.5351404,0.5573102,0.57843745,0.59747946,0.61225927,0.6228075,0.6344291,0.652398,0.67564094,0.6978413,0.7178954,0.73270583,0.7422116,0.74748576,0.748559,0.748559,0.7506746,0.7559488,0.7622962,0.76018035,0.75383294,0.7443272,0.73059,0.7158103,0.6936097,0.6661352,0.63127077,0.59113216,0.546762,0.49497128,0.43582118,0.37243974,0.30798483,0.2477616,0.19281256,0.14528394,0.10299897,0.06393349,0.02695334,-0.010026932,-0.03961724,-0.06286019,-0.077640116,-0.083987415,-0.08821905,-0.08821905,-0.085060656,-0.080829084,-0.07871336,-0.07871336,-0.07871336,-0.077640116,-0.071323395,-0.06286019,-0.057586133,-0.057586133,-0.05862868,-0.056512892,-0.05019617,-0.04277563,-0.034343123,-0.027995825,-0.023764193,-0.01953262,-0.015331745,-0.013215959,-0.011100173,-0.011100173,-0.011100173,-0.013215959,-0.013215959,-0.010026932,-0.0047528744,0.0026370287,0.0037103891,-0.0005212426,-0.0057953596,-0.007911146,-0.008984387,-0.010026932,-0.011100173,-0.012142718,-0.011100173,-0.011100173,-0.015331745,-0.021648407,-0.027995825,-0.027995825,-0.024837434,-0.021648407,-0.01953262,-0.01637423,-0.013215959,-0.008984387,-0.008984387,-0.010026932,-0.013215959,-0.013215959,-0.012142718,-0.011100173,-0.010026932,-0.008984387,-0.0057953596,-0.0047528744,-0.008984387,-0.014258504,-0.018490136,-0.018490136,-0.015331745,-0.012142718,-0.0068685412,-0.002636969,0.0005213022,0.0005213022,-0.0047528744,-0.008984387,-0.010026932,-0.002636969,0.00686872,0.012142777,0.012142777,0.007911205,0.00686872,0.007911205,0.0089844465,0.0089844465,0.0058261156,0.0005213022,-0.002636969,-0.0057953596,-0.0068685412,-0.0047528744,-0.0005212426,0.0058261156,0.007911205,0.013216019,0.02695334,0.051238775,0.08082926,0.10618794,0.12415671,0.13258922,0.1442107,0.1632222,0.18119109,0.19808662,0.21078134,0.22240281,0.23614013,0.25303578,0.26888883,0.2731204,0.26361465,0.23825586,0.19600153,0.14209497,0.08717656,0.04069054,0.0089844465,-0.007911146,-0.011100173,-0.011100173,-0.011100173,-0.014258504,-0.024837434,-0.038574696,-0.051238835,-0.05970192,-0.063902855,-0.06709182,-0.06813437,-0.06709182,-0.064976096,-0.06286019,-0.06286019,-0.061817646,-0.05862868,-0.043848872,-0.0015944839,0.08082926,0.20339143,0.34389186,0.44848537,0.4506011,0.35551345,0.17168534,-0.107230365,-0.4379369,-0.7168526,-0.85315216,-0.7781185,-0.5150558,-0.19492817,0.047007322,0.15902126,0.18014848,0.1632222,0.14739978,0.1442107,0.15055811,0.16217959,0.17484367,0.18858087,0.19915986,0.20550716,0.2097081,0.21501291,0.22344542,0.23402429,0.24353004,0.25092006,0.25830984,0.266773,0.27627873,0.28474188,0.2952901,0.3058691,0.3196063,0.33545935,0.34919667,0.36290324,0.37559795,0.38826203,0.40411508,0.41680992,0.4315896,0.4463694,0.46222258,0.47914886,0.49392867,0.5076659,0.5224458,0.53829885,0.5573102,0.5752791,0.59536374,0.61649096,0.6397339,0.660861,0.6788299,0.69572556,0.71050525,0.72743165,0.7443272,0.7580645,0.76757026,0.7749603,0.78023446,0.7834233,0.7834233,0.78130746,0.77919185,0.7770759,0.7739177,0.7622962,0.7422116,0.7126212,0.67459834,0.63022816,0.57843745,0.5245615,0.46856987,0.41469395,0.36290324,0.31010056,0.25938308,0.21182394,0.16641116,0.12415671,0.08294499,0.045964718,0.016374469,-0.0057953596,-0.01953262,-0.032227397,-0.043848872,-0.05019617,-0.0533545,-0.051238835,-0.051238835,-0.051238835,-0.0533545,-0.0533545,-0.051238835,-0.047007143,-0.041733086,-0.034343123,-0.023764193,-0.015331745,-0.010026932,-0.0068685412,-0.0047528744,0.0015945435,0.0089844465,0.015331864,0.0195328,0.023764253,0.029069066,0.034343243,0.035385728,0.035385728,0.03645897,0.04069054,0.047007322,0.05019629,0.04912305,0.045964718,0.041733146,0.037501574,0.031154275,0.023764253,0.0195328,0.021648526,0.02695334,0.03011167,0.029069066,0.02695334,0.025880098,0.027995825,0.03011167,0.031154275,0.03011167,0.029069066,0.029069066,0.027995825,0.02695334,0.025880098,0.027995825,0.03011167,0.03011167,0.027995825,0.025880098,0.024837494,0.023764253,0.0195328,0.016374469,0.013216019,0.013216019,0.014258623,0.014258623,0.014258623,0.014258623,0.015331864,0.01744759,0.015331864,0.011100292,0.007911205,0.007911205,0.010027051,0.010027051,0.0089844465,0.00686872,0.007911205,0.012142777,0.01744759,0.022721767,0.02695334,0.031154275,0.032227516,0.029069066,0.025880098,0.021648526,0.020606041,0.020606041,0.018490076,0.016374469,0.015331864,0.018490076,0.029069066,0.045964718,0.071323514,0.097724795,0.12204099,0.1442107,0.15902126,0.1769594,0.20020235,0.22240281,0.2403717,0.25410903,0.2678156,0.28474188,0.3069116,0.32276475,0.3206489,0.30375326,0.274163,0.23718262,0.18965411,0.1304735,0.07025027,0.022721767,-0.002636969,-0.0057953596,-0.0015944839,0.0037103891,0.0037103891,-0.0005212426,-0.0057953596,-0.012142718,-0.018490136,-0.021648407,-0.022721648,-0.022721648,-0.023764193,-0.023764193,-0.022721648,-0.01953262,-0.01637423,-0.01953262,-0.013215959,0.024837494,0.11673617,0.2551515,0.4178524,0.53195155,0.5298357,0.42947388,0.23718262,-0.05970192,-0.40727335,-0.69676805,-0.83306754,-0.7453698,-0.46222246,-0.12943083,0.108303785,0.21182394,0.22028708,0.18965411,0.16110635,0.15055811,0.15690541,0.17272782,0.18753839,0.19704413,0.20550716,0.21605551,0.22875011,0.2403717,0.24987733,0.2561941,0.26254153,0.26993132,0.27735186,0.28578448,0.2942475,0.30375326,0.313259,0.3206489,0.32911205,0.34073353,0.3587023,0.3777138,0.3924936,0.40307248,0.41150498,0.42101073,0.43474793,0.44744265,0.46117997,0.47491717,0.49181283,0.5108243,0.5287931,0.5478046,0.56577337,0.585858,0.6080278,0.6281123,0.6471238,0.66401947,0.68198824,0.70311546,0.7232001,0.74113834,0.7580645,0.7749603,0.7886975,0.7971606,0.80031896,0.80031896,0.79820323,0.7950449,0.78762424,0.77919185,0.76757026,0.75383294,0.73586416,0.7094629,0.6735252,0.63022816,0.582669,0.53090894,0.47172832,0.41150498,0.35128176,0.29636335,0.24668837,0.19915986,0.15267396,0.108303785,0.06813443,0.034343243,0.0026370287,-0.024837434,-0.04596466,-0.060744405,-0.06920761,-0.074481785,-0.07555491,-0.07343918,-0.06709182,-0.05970192,-0.057586133,-0.056512892,-0.057586133,-0.055470347,-0.051238835,-0.04912293,-0.047007143,-0.044891417,-0.03961724,-0.03538567,-0.03645891,-0.037501454,-0.037501454,-0.032227397,-0.022721648,-0.013215959,-0.0068685412,-0.0037102103,-0.0015944839,0.0026370287,0.0047528744,0.00686872,0.007911205,0.0089844465,0.010027051,0.007911205,0.0047528744,-0.0005212426,-0.0057953596,-0.010026932,-0.014258504,-0.015331745,-0.013215959,-0.008984387,-0.0047528744,-0.0047528744,-0.008984387,-0.013215959,-0.015331745,-0.015331745,-0.01637423,-0.018490136,-0.01953262,-0.018490136,-0.01637423,-0.015331745,-0.014258504,-0.014258504,-0.012142718,-0.008984387,-0.0068685412,-0.0057953596,-0.008984387,-0.014258504,-0.01953262,-0.02695322,-0.030111492,-0.031154156,-0.02695322,-0.021648407,-0.018490136,-0.01637423,-0.015331745,-0.011100173,-0.0057953596,-0.0037102103,-0.0047528744,-0.0068685412,-0.007911146,-0.0068685412,-0.007911146,-0.008984387,-0.012142718,-0.012142718,-0.012142718,-0.014258504,-0.01637423,-0.015331745,-0.011100173,-0.0047528744,-0.002636969,-0.0037102103,-0.0068685412,-0.007911146,-0.0057953596,-0.0047528744,-0.0015944839,0.0047528744,0.018490076,0.041733146,0.07025027,0.09879804,0.12204099,0.13893664,0.15055811,0.16641116,0.19069672,0.21393967,0.23825586,0.25726736,0.26888883,0.2805103,0.29317427,0.30268002,0.30059493,0.28578448,0.2561941,0.21393967,0.16006386,0.10091376,0.045964718,0.0058261156,-0.013215959,-0.011100173,-0.0047528744,-0.0037102103,-0.008984387,-0.017416894,-0.02587998,-0.033269882,-0.041733086,-0.048080385,-0.051238835,-0.048080385,-0.04277563,-0.041733086,-0.04596466,-0.05228132,-0.054397106,-0.056512892,-0.044891417,0.0037103891,0.108303785,0.26042557,0.4326322,0.53934133,0.5214032,0.40411508,0.18753839,-0.13258916,-0.49285537,-0.77919173,-0.8922176,-0.7643812,-0.4474426,-0.10511464,0.12308359,0.21078134,0.21078134,0.18119109,0.15478969,0.14528394,0.14844239,0.16641116,0.18965411,0.207623,0.21924448,0.22344542,0.22344542,0.22663438,0.22767699,0.23295105,0.23825586,0.2477616,0.26042557,0.2731204,0.28474188,0.2952901,0.30479586,0.313259,0.3196063,0.3269962,0.33650196,0.34919667,0.36501908,0.37982953,0.39356685,0.40623093,0.42208397,0.43897963,0.45271683,0.4675274,0.4823072,0.5013186,0.5214032,0.5404146,0.55838346,0.5752791,0.5942905,0.6154177,0.63654494,0.65558696,0.6767142,0.69676816,0.71896863,0.73586416,0.748559,0.7580645,0.76757026,0.7770759,0.7834233,0.78762424,0.78973997,0.78973997,0.78762424,0.7781186,0.7643813,0.7453699,0.72424257,0.69676816,0.660861,0.61649096,0.56470025,0.5150559,0.46329582,0.40938926,0.35658658,0.30268002,0.25092006,0.19915986,0.14632666,0.09668219,0.052312016,0.016374469,-0.012142718,-0.034343123,-0.05019617,-0.05862868,-0.061817646,-0.06286019,-0.06286019,-0.06601858,-0.06920761,-0.06709182,-0.063902855,-0.05862868,-0.055470347,-0.0533545,-0.051238835,-0.048080385,-0.044891417,-0.04277563,-0.041733086,-0.03538567,-0.024837434,-0.015331745,-0.0057953596,0.0005213022,0.0037103891,0.00686872,0.007911205,0.00686872,0.0037103891,0.0015945435,0.0005213022,-0.0015944839,-0.0005212426,-0.0005212426,0.0026370287,0.0058261156,0.0089844465,0.0089844465,0.007911205,0.007911205,0.00686872,0.0037103891,0.0005213022,-0.0057953596,-0.012142718,-0.017416894,-0.021648407,-0.021648407,-0.021648407,-0.021648407,-0.021648407,-0.023764193,-0.02587998,-0.024837434,-0.020605862,-0.017416894,-0.018490136,-0.023764193,-0.032227397,-0.03538567,-0.033269882,-0.02903837,-0.022721648,-0.01637423,-0.008984387,-0.0015944839,0.0037103891,0.0047528744,0.0037103891,0.0026370287,-0.0015944839,-0.0057953596,-0.0068685412,-0.0068685412,-0.002636969,0.0047528744,0.0058261156,0.0037103891,-0.0005212426,-0.0037102103,-0.0037102103,-0.0047528744,-0.002636969,-0.0005212426,0.0026370287,0.0047528744,0.0037103891,0.0005213022,-0.0005212426,0.0005213022,0.0058261156,0.010027051,0.015331864,0.031154275,0.057586193,0.08929229,0.11462045,0.12835765,0.13258922,0.1378634,0.15583217,0.17803264,0.20127559,0.21712863,0.23295105,0.24457264,0.25830984,0.27100456,0.27204716,0.26254153,0.23825586,0.19808662,0.14316821,0.08294499,0.031154275,-0.0015944839,-0.013215959,-0.012142718,-0.011100173,-0.013215959,-0.01953262,-0.027995825,-0.03538567,-0.04277563,-0.044891417,-0.044891417,-0.04596466,-0.04912293,-0.05228132,-0.055470347,-0.057586133,-0.060744405,-0.05970192,-0.055470347,-0.040659845,-0.007911146,0.055470467,0.16217959,0.29636335,0.41573668,0.4421686,0.36081815,0.17803264,-0.10830361,-0.45694828,-0.7612228,-0.92708206,-0.8837851,-0.63442904,-0.29952157,-0.02903837,0.11569369,0.16110635,0.15690541,0.14739978,0.14739978,0.15160072,0.16110635,0.17168534,0.18542266,0.19808662,0.20550716,0.21078134,0.21393967,0.22132957,0.23295105,0.24457264,0.2561941,0.26573038,0.27523613,0.28262603,0.2879002,0.29317427,0.29952168,0.30902743,0.32276475,0.33545935,0.34919667,0.36501908,0.3851037,0.40411508,0.42101073,0.43370545,0.4432112,0.4569484,0.4759599,0.49392867,0.51294005,0.5287931,0.53934133,0.54887784,0.55838346,0.57000506,0.5890163,0.6143751,0.64184976,0.66401947,0.68303084,0.6978413,0.71473706,0.73270583,0.74644315,0.76018035,0.76757026,0.7770759,0.78553903,0.78762424,0.78762424,0.77919185,0.76861286,0.75699127,0.7422116,0.7263584,0.70734704,0.68198824,0.64923966,0.60275364,0.5499203,0.49077034,0.43054712,0.36820805,0.30479586,0.24353004,0.18753839,0.14105248,0.09879804,0.05970204,0.025880098,-0.002636969,-0.023764193,-0.03645891,-0.04912293,-0.05970192,-0.06920761,-0.07343918,-0.07343918,-0.074481785,-0.07343918,-0.07236594,-0.06709182,-0.05970192,-0.0533545,-0.05019617,-0.047007143,-0.04277563,-0.038574696,-0.032227397,-0.02903837,-0.02903837,-0.02695322,-0.024837434,-0.022721648,-0.01953262,-0.015331745,-0.007911146,-0.0005212426,0.0037103891,0.00686872,0.007911205,0.012142777,0.01744759,0.0195328,0.0195328,0.015331864,0.013216019,0.010027051,0.0058261156,0.0015945435,-0.0037102103,-0.0047528744,-0.0037102103,-0.0037102103,-0.0037102103,-0.0037102103,-0.0005212426,0.0015945435,0.0015945435,-0.0005212426,-0.0047528744,-0.007911146,-0.0068685412,-0.0068685412,-0.0057953596,-0.0057953596,-0.0037102103,-0.0005212426,-0.0005212426,-0.0005212426,-0.0015944839,0.0015945435,0.00686872,0.011100292,0.012142777,0.0089844465,0.00686872,0.0058261156,0.0047528744,0.0037103891,0.0015945435,0.0026370287,0.0058261156,0.007911205,0.011100292,0.012142777,0.014258623,0.016374469,0.016374469,0.014258623,0.012142777,0.012142777,0.018490076,0.032227516,0.054397225,0.075555086,0.09560895,0.11041951,0.117809415,0.13258922,0.15371644,0.18014848,0.20443404,0.22240281,0.23506689,0.24668837,0.26361465,0.27627873,0.27523613,0.25726736,0.22451866,0.18014848,0.12731516,0.07025027,0.020606041,-0.013215959,-0.02587998,-0.022721648,-0.01953262,-0.01953262,-0.024837434,-0.031154156,-0.038574696,-0.047007143,-0.056512892,-0.064976096,-0.06709182,-0.064976096,-0.061817646,-0.05970192,-0.061817646,-0.064976096,-0.06920761,-0.07025015,-0.05970192,-0.022721648,0.05970204,0.18014848,0.31749058,0.42631543,0.44109535,0.36397648,0.20127559,-0.06286019,-0.39356673,-0.6862198,-0.8415307,-0.7908132,-0.5456887,-0.22767687,0.018490076,0.14209497,0.16956961,0.15160072,0.12835765,0.11673617,0.120967746,0.13258922,0.14632666,0.15794802,0.16429543,0.17272782,0.18119109,0.18858087,0.19808662,0.207623,0.22132957,0.23402429,0.24353004,0.24880409,0.25199318,0.26254153,0.27523613,0.29001606,0.29952168,0.3069116,0.31433225,0.323838,0.33545935,0.34812343,0.36081815,0.3787564,0.3956827,0.4104625,0.4252423,0.43897963,0.4559059,0.4759599,0.4960444,0.51189744,0.52667737,0.54464614,0.56577337,0.585858,0.60591197,0.6270392,0.65028214,0.67459834,0.69572556,0.71050525,0.72001123,0.7316326,0.74325395,0.75383294,0.76122296,0.7633387,0.76018035,0.7559488,0.74644315,0.7369374,0.72424257,0.70838964,0.68621993,0.65767217,0.62072253,0.57739484,0.53195155,0.4823072,0.42843127,0.36925066,0.3069116,0.24668837,0.19281256,0.14739978,0.108303785,0.071323514,0.03961742,0.0089844465,-0.020605862,-0.04277563,-0.060744405,-0.071323395,-0.077640116,-0.085060656,-0.09033483,-0.09245062,-0.09033483,-0.085060656,-0.07871336,-0.07343918,-0.07236594,-0.06920761,-0.063902855,-0.060744405,-0.056512892,-0.05228132,-0.04596466,-0.040659845,-0.037501454,-0.033269882,-0.027995825,-0.01953262,-0.008984387,-0.0005212426,0.0015945435,-0.0005212426,-0.002636969,-0.0037102103,-0.0057953596,-0.0047528744,-0.002636969,0.0037103891,0.0089844465,0.007911205,0.0037103891,-0.002636969,-0.0068685412,-0.0068685412,-0.0068685412,-0.008984387,-0.0068685412,-0.0005212426,0.0037103891,0.0058261156,0.0037103891,-0.002636969,-0.007911146,-0.011100173,-0.013215959,-0.014258504,-0.014258504,-0.010026932,-0.0068685412,-0.007911146,-0.007911146,-0.011100173,-0.010026932,-0.007911146,-0.0068685412,-0.0037102103,-0.0037102103,-0.0015944839,0.0005213022,-0.0037102103,-0.0057953596,-0.0068685412,-0.0068685412,-0.0047528744,-0.0057953596,-0.007911146,-0.010026932,-0.0057953596,0.0005213022,0.0058261156,0.0058261156,0.0026370287,0.0005213022,-0.0005212426,-0.0005212426,-0.0015944839,-0.0015944839,0.0037103891,0.0089844465,0.015331864,0.021648526,0.02695334,0.041733146,0.06813443,0.09668219,0.12204099,0.13997924,0.14948487,0.1632222,0.18438005,0.20866561,0.23190856,0.24987733,0.26361465,0.274163,0.2868576,0.29952168,0.30268002,0.29213178,0.26254153,0.21924448,0.16217959,0.09984064,0.04384899,-0.0005212426,-0.024837434,-0.031154156,-0.02587998,-0.021648407,-0.023764193,-0.02903837,-0.037501454,-0.043848872,-0.04912293,-0.054397106,-0.05970192,-0.063902855,-0.063902855,-0.05970192,-0.05862868,-0.057586133,-0.057586133,-0.055470347,-0.0533545,-0.034343123,0.022721767,0.1304735,0.27839458,0.43054712,0.49920285,0.44848537,0.31114328,0.074481845,-0.25199312,-0.58374214,-0.8172145,-0.86370045,-0.6798724,-0.35447067,-0.051238835,0.12731516,0.18119109,0.16745377,0.1378634,0.11885202,0.117809415,0.12731516,0.1442107,0.1632222,0.17591691,0.18646514,0.19492829,0.20339143,0.21182394,0.21817136,0.22663438,0.23506689,0.24564588,0.2561941,0.26361465,0.26888883,0.2731204,0.28366864,0.29636335,0.31010056,0.323838,0.33438623,0.34708095,0.36081815,0.37243974,0.38721943,0.40095675,0.41573668,0.4315896,0.4421686,0.45271683,0.4643383,0.48334968,0.504477,0.52667737,0.5478046,0.5678891,0.5879432,0.6069852,0.62388074,0.6407765,0.65662944,0.6767142,0.6988839,0.72108424,0.74009573,0.75383294,0.7633387,0.77072847,0.77284443,0.7739177,0.7718017,0.76861286,0.76122296,0.74748576,0.72847426,0.7062738,0.68198824,0.65347123,0.6154177,0.5689317,0.5150559,0.46010673,0.40518832,0.35023928,0.29636335,0.24353004,0.19388568,0.14844239,0.10407221,0.06286025,0.02695334,-0.0015944839,-0.023764193,-0.040659845,-0.05228132,-0.060744405,-0.06286019,-0.064976096,-0.06813437,-0.071323395,-0.074481785,-0.07343918,-0.071323395,-0.071323395,-0.071323395,-0.07236594,-0.06920761,-0.06709182,-0.06601858,-0.06813437,-0.07025015,-0.06813437,-0.063902855,-0.057586133,-0.05019617,-0.04277563,-0.032227397,-0.023764193,-0.017416894,-0.015331745,-0.015331745,-0.013215959,-0.010026932,-0.008984387,-0.007911146,-0.0068685412,-0.002636969,0.0015945435,0.0026370287,0.0005213022,-0.002636969,-0.0037102103,-0.0015944839,-0.0005212426,0.0015945435,0.0015945435,0.0026370287,0.0047528744,0.0058261156,0.0058261156,0.0058261156,0.011100292,0.016374469,0.018490076,0.016374469,0.011100292,0.00686872,0.0037103891,0.0005213022,-0.0047528744,-0.010026932,-0.010026932,-0.007911146,-0.0068685412,-0.0068685412,-0.007911146,-0.008984387,-0.008984387,-0.008984387,-0.0068685412,-0.0047528744,0.0005213022,0.0058261156,0.007911205,0.010027051,0.010027051,0.013216019,0.01744759,0.020606041,0.021648526,0.020606041,0.01744759,0.015331864,0.013216019,0.012142777,0.013216019,0.01744759,0.021648526,0.023764253,0.022721767,0.020606041,0.018490076,0.01744759,0.0195328,0.029069066,0.05019629,0.08187175,0.11357796,0.1378634,0.15371644,0.16429543,0.18646514,0.21501291,0.2403717,0.25830984,0.26888883,0.27839458,0.29105854,0.30375326,0.3069116,0.2952901,0.274163,0.2403717,0.19600153,0.13893664,0.07767081,0.023764253,-0.013215959,-0.031154156,-0.034343123,-0.032227397,-0.027995825,-0.027995825,-0.034343123,-0.044891417,-0.055470347,-0.061817646,-0.06286019,-0.06286019,-0.06286019,-0.064976096,-0.063902855,-0.063902855,-0.06601858,-0.06813437,-0.07343918,-0.061817646,-0.017416894,0.07975602,0.22240281,0.3861462,0.504477,0.504477,0.3998835,0.19808662,-0.11146206,-0.47172815,-0.77180177,-0.9154606,-0.82883596,-0.54145706,-0.19808656,0.04912305,0.15690541,0.16533792,0.13577831,0.11253524,0.108303785,0.117809415,0.13366246,0.14739978,0.16217959,0.17484367,0.18646514,0.19808662,0.20866561,0.22132957,0.23402429,0.24353004,0.25303578,0.26042557,0.26993132,0.27943707,0.28578448,0.29213178,0.30059493,0.31641734,0.33334363,0.34919667,0.36290324,0.37559795,0.39037776,0.40623093,0.41996813,0.43054712,0.43793702,0.4495585,0.46329582,0.47703314,0.49181283,0.50555015,0.52351904,0.543573,0.56470025,0.585858,0.6080278,0.632344,0.65662944,0.67775667,0.6936097,0.7062738,0.71896863,0.73270583,0.7443272,0.75383294,0.76018035,0.76545453,0.76861286,0.7696861,0.76649714,0.76122296,0.75383294,0.7443272,0.72743165,0.7041887,0.6735252,0.6397339,0.59956455,0.5541519,0.5013186,0.4432112,0.3861462,0.33015454,0.27627873,0.22556114,0.1769594,0.13258922,0.09349322,0.057586193,0.025880098,-0.0015944839,-0.022721648,-0.038574696,-0.051238835,-0.05970192,-0.064976096,-0.064976096,-0.063902855,-0.063902855,-0.063902855,-0.063902855,-0.05970192,-0.055470347,-0.0533545,-0.051238835,-0.05019617,-0.043848872,-0.03538567,-0.027995825,-0.023764193,-0.021648407,-0.018490136,-0.014258504,-0.012142718,-0.012142718,-0.01637423,-0.01637423,-0.014258504,-0.011100173,-0.0057953596,-0.0015944839,0.0037103891,0.0089844465,0.011100292,0.011100292,0.007911205,0.007911205,0.0089844465,0.010027051,0.0089844465,0.0047528744,0.0026370287,0.0015945435,0.0005213022,0.0005213022,0.0005213022,0.0026370287,0.0058261156,0.00686872,0.0058261156,0.0037103891,0.0037103891,0.0026370287,0.0005213022,-0.0037102103,-0.008984387,-0.010026932,-0.008984387,-0.008984387,-0.007911146,-0.008984387,-0.0068685412,-0.0015944839,0.0026370287,0.00686872,0.010027051,0.011100292,0.012142777,0.012142777,0.012142777,0.013216019,0.018490076,0.023764253,0.025880098,0.025880098,0.023764253,0.023764253,0.025880098,0.03011167,0.035385728,0.038574815,0.04277575,0.047007322,0.048080564,0.047007322,0.045964718,0.045964718,0.045964718,0.045964718,0.045964718,0.041733146,0.03961742,0.037501574,0.035385728,0.03327,0.032227516,0.03327,0.04069054,0.057586193,0.083987474,0.111462,0.13682091,0.15690541,0.168527,0.18330681,0.20443404,0.23190856,0.25726736,0.2805103,0.30163753,0.31537473,0.33015454,0.3375752,0.33015454,0.31010056,0.2805103,0.24141431,0.19069672,0.1304735,0.07343924,0.02695334,0.0047528744,0.0015945435,0.0037103891,0.0026370287,-0.002636969,-0.010026932,-0.021648407,-0.033269882,-0.044891417,-0.05228132,-0.0533545,-0.051238835,-0.051238835,-0.0533545,-0.054397106,-0.05019617,-0.04277563,-0.040659845,-0.032227397,-0.0037102103,0.07767081,0.21289718,0.38194525,0.5171716,0.53829885,0.45167422,0.26361465,-0.04277563,-0.41785228,-0.74432725,-0.9154606,-0.8478474,-0.5625843,-0.20866549,0.055470467,0.18226421,0.20443404,0.18330681,0.15583217,0.13997924,0.14105248,0.15055811,0.16533792,0.18014848,0.18965411,0.19704413,0.20550716,0.21078134,0.21501291,0.22028708,0.22767699,0.23614013,0.24564588,0.2551515,0.26465726,0.27839458,0.29317427,0.3069116,0.32172203,0.33650196,0.35447073,0.37243974,0.3851037,0.3924936,0.39672518,0.40938926,0.42735815,0.4463694,0.4643383,0.47703314,0.49077034,0.50555015,0.5203301,0.53934133,0.55942607,0.58374226,0.61118615,0.63654494,0.65662944,0.6735252,0.691494,0.70838964,0.72424257,0.739053,0.7517173,0.76649714,0.77919185,0.78553903,0.7886975,0.78973997,0.79292905,0.7971606,0.7971606,0.78973997,0.77600265,0.7591071,0.73797977,0.7115785,0.6788299,0.6407765,0.59747946,0.546762,0.48546553,0.42101073,0.35551345,0.29740596,0.24564588,0.19915986,0.15267396,0.107230544,0.06920767,0.037501574,0.012142777,-0.0047528744,-0.018490136,-0.027995825,-0.03538567,-0.041733086,-0.048080385,-0.05019617,-0.04596466,-0.03961724,-0.03538567,-0.031154156,-0.02695322,-0.022721648,-0.01637423,-0.013215959,-0.013215959,-0.017416894,-0.018490136,-0.017416894,-0.014258504,-0.010026932,-0.010026932,-0.007911146,-0.007911146,-0.0068685412,-0.0037102103,0.0015945435,0.012142777,0.021648526,0.027995825,0.032227516,0.032227516,0.03327,0.035385728,0.037501574,0.03961742,0.03961742,0.041733146,0.04069054,0.04069054,0.041733146,0.04277575,0.044891477,0.044891477,0.038574815,0.031154275,0.022721767,0.0195328,0.023764253,0.03011167,0.034343243,0.03645897,0.038574815,0.037501574,0.03645897,0.03327,0.02695334,0.023764253,0.020606041,0.018490076,0.018490076,0.018490076,0.021648526,0.021648526,0.020606041,0.0195328,0.016374469,0.018490076,0.021648526,0.021648526,0.020606041,0.018490076,0.020606041,0.022721767,0.024837494,0.02695334,0.02695334,0.029069066,0.03011167,0.029069066,0.029069066,0.027995825,0.031154275,0.035385728,0.03961742,0.04384899,0.04384899,0.04384899,0.04069054,0.03645897,0.037501574,0.04384899,0.064976096,0.09349322,0.12415671,0.14739978,0.1632222,0.17168534,0.18226421,0.19915986,0.21712863,0.23402429,0.24987733,0.26573038,0.2805103,0.29847908,0.31010056,0.30798483,0.29105854,0.25830984,0.21289718,0.15794802,0.10618794,0.061817765,0.031154275,0.018490076,0.01744759,0.021648526,0.023764253,0.0195328,0.012142777,0.0015945435,-0.0057953596,-0.011100173,-0.015331745,-0.017416894,-0.018490136,-0.014258504,-0.010026932,-0.007911146,-0.007911146,-0.007911146,-0.0037102103,0.013216019,0.051238775,0.12731516,0.24248743,0.37559795,0.46645415,0.45379007,0.3460077,0.1378634,-0.16217953,-0.49920273,-0.76226544,-0.86581624,-0.7538328,-0.46541142,-0.14632642,0.075555086,0.17484367,0.19281256,0.18542266,0.17803264,0.17484367,0.1769594,0.18014848,0.18858087,0.19915986,0.2097081,0.21712863,0.22240281,0.22979283,0.23614013,0.24248743,0.25092006,0.2614988,0.27627873,0.29213178,0.30268002,0.3122164,0.3196063,0.33122778,0.34389186,0.35551345,0.36501908,0.37243974,0.3851037,0.40095675,0.41892564,0.43474793,0.44848537,0.46117997,0.47280145,0.48546553,0.49816024,0.51189744,0.5298357,0.5509628,0.57000506,0.5879432,0.60275364,0.62072253,0.6397339,0.660861,0.6798725,0.69676816,0.71473706,0.7316326,0.7453699,0.7580645,0.76545453,0.7739177,0.77919185,0.78235006,0.78235006,0.77919185,0.77600265,0.77284443,0.76545453,0.7506746,0.72847426,0.702073,0.67036676,0.63022816,0.582669,0.52667737,0.46856987,0.40938926,0.35128176,0.2942475,0.23929846,0.19069672,0.14528394,0.10299897,0.064976096,0.03011167,0.0037103891,-0.015331745,-0.02903837,-0.038574696,-0.04596466,-0.04912293,-0.04912293,-0.05019617,-0.048080385,-0.04596466,-0.041733086,-0.038574696,-0.038574696,-0.037501454,-0.03538567,-0.02903837,-0.022721648,-0.018490136,-0.01637423,-0.013215959,-0.0057953596,0.0058261156,0.016374469,0.023764253,0.029069066,0.035385728,0.041733146,0.044891477,0.047007322,0.045964718,0.048080564,0.05019629,0.05019629,0.04912305,0.045964718,0.045964718,0.04912305,0.052312016,0.05335474,0.052312016,0.052312016,0.051238775,0.04912305,0.047007322,0.04277575,0.041733146,0.03961742,0.03645897,0.032227516,0.03011167,0.03327,0.04069054,0.047007322,0.052312016,0.05335474,0.057586193,0.05970204,0.05970204,0.057586193,0.054397225,0.05651295,0.06286025,0.07025027,0.075555086,0.07767081,0.08082926,0.08187175,0.08082926,0.075555086,0.06813443,0.064976096,0.06393349,0.06393349,0.06393349,0.06286025,0.06604934,0.06813443,0.06920767,0.06709194,0.06286025,0.06286025,0.064976096,0.06604934,0.06813443,0.06813443,0.07025027,0.07343924,0.074481845,0.07343924,0.071323514,0.07659769,0.0913775,0.11569369,0.14209497,0.1632222,0.18014848,0.18965411,0.19915986,0.21817136,0.23825586,0.26042557,0.27839458,0.29213178,0.30479586,0.31749058,0.33015454,0.33015454,0.31537473,0.28897333,0.24987733,0.20443404,0.15160072,0.09984064,0.055470467,0.02695334,0.0195328,0.021648526,0.024837494,0.024837494,0.0195328,0.015331864,0.012142777,0.010027051,0.0089844465,0.007911205,0.010027051,0.012142777,0.012142777,0.010027051,0.0037103891,0.0015945435,-0.002636969,-0.0005212426,0.025880098,0.09984064,0.22663438,0.3851037,0.5214032,0.55203605,0.46961248,0.30479586,0.04277575,-0.28685755,-0.59005886,-0.77180177,-0.74855876,-0.51294,-0.18223351,0.08821905,0.22556114,0.2561941,0.23614013,0.21078134,0.19808662,0.20020235,0.21393967,0.23086607,0.24457264,0.2551515,0.26254153,0.27204716,0.28366864,0.2942475,0.30375326,0.31010056,0.3196063,0.32911205,0.3396603,0.34919667,0.35658658,0.36397648,0.37136638,0.3777138,0.3851037,0.39356685,0.40623093,0.4178524,0.42947388,0.44109535,0.45167422,0.46645415,0.4823072,0.4960444,0.50978184,0.5224458,0.53934133,0.55838346,0.5763216,0.593248,0.61014354,0.6291549,0.65028214,0.67036676,0.6872624,0.70099974,0.71685266,0.73270583,0.748559,0.76122296,0.7696861,0.77919185,0.78762424,0.7950449,0.7992457,0.7992457,0.7992457,0.79820323,0.7918558,0.78023446,0.76018035,0.7369374,0.71050525,0.6788299,0.6439655,0.6016804,0.5573102,0.50659263,0.4506011,0.3924936,0.33438623,0.28366864,0.23614013,0.19281256,0.15055811,0.11041951,0.07767081,0.05019629,0.025880098,0.0047528744,-0.013215959,-0.021648407,-0.024837434,-0.024837434,-0.024837434,-0.024837434,-0.023764193,-0.022721648,-0.021648407,-0.023764193,-0.024837434,-0.022721648,-0.017416894,-0.011100173,-0.0057953596,-0.002636969,0.0026370287,0.0089844465,0.014258623,0.01744759,0.018490076,0.022721767,0.029069066,0.035385728,0.03961742,0.041733146,0.045964718,0.047007322,0.047007322,0.045964718,0.041733146,0.04069054,0.04069054,0.04069054,0.03961742,0.037501574,0.037501574,0.037501574,0.035385728,0.032227516,0.025880098,0.021648526,0.018490076,0.015331864,0.011100292,0.007911205,0.0089844465,0.012142777,0.015331864,0.01744759,0.016374469,0.01744759,0.018490076,0.020606041,0.022721767,0.024837494,0.031154275,0.037501574,0.04069054,0.04069054,0.03645897,0.03645897,0.03645897,0.03645897,0.037501574,0.03645897,0.037501574,0.037501574,0.035385728,0.031154275,0.027995825,0.029069066,0.03011167,0.029069066,0.02695334,0.023764253,0.023764253,0.025880098,0.02695334,0.024837494,0.0195328,0.016374469,0.014258623,0.015331864,0.016374469,0.016374469,0.0195328,0.023764253,0.034343243,0.057586193,0.08717656,0.11992526,0.14739978,0.16533792,0.17484367,0.19176996,0.21605551,0.2403717,0.25938308,0.27204716,0.2815528,0.2952901,0.3122164,0.3196063,0.313259,0.29105854,0.25726736,0.21182394,0.15478969,0.094566464,0.04069054,0.007911205,-0.0005212426,0.0037103891,0.010027051,0.0089844465,0.0026370287,-0.0057953596,-0.013215959,-0.018490136,-0.022721648,-0.023764193,-0.02587998,-0.027995825,-0.031154156,-0.03538567,-0.03538567,-0.033269882,-0.033269882,-0.034343123,-0.018490136,0.041733146,0.15794802,0.313259,0.47068572,0.54568875,0.5013186,0.3671348,0.12835765,-0.20231813,-0.5478045,-0.7918557,-0.8457316,-0.6671777,-0.33754438,-0.024837434,0.16641116,0.23086607,0.22132957,0.19281256,0.17272782,0.17064273,0.18014848,0.19388568,0.20654976,0.21501291,0.22451866,0.23295105,0.24248743,0.25199318,0.25938308,0.2678156,0.27735186,0.28474188,0.29213178,0.30059493,0.313259,0.32595372,0.3375752,0.3460077,0.35128176,0.36081815,0.37136638,0.3851037,0.3988409,0.41257823,0.42735815,0.4421686,0.45483267,0.4675274,0.48019135,0.497087,0.5150559,0.5330248,0.5509628,0.5678891,0.5869006,0.60591197,0.621765,0.63550234,0.6481664,0.6650927,0.68198824,0.6988839,0.7126212,0.7232001,0.73482156,0.74748576,0.7580645,0.76545453,0.76757026,0.77072847,0.77284443,0.77072847,0.7643813,0.7506746,0.73482156,0.71473706,0.68937814,0.6597879,0.62388074,0.5816264,0.5340673,0.48019135,0.42312646,0.3671348,0.31641734,0.26888883,0.22240281,0.1769594,0.13154674,0.09033489,0.052312016,0.018490076,-0.010026932,-0.032227397,-0.04596466,-0.054397106,-0.05970192,-0.063902855,-0.06709182,-0.06709182,-0.064976096,-0.06286019,-0.060744405,-0.060744405,-0.05970192,-0.05862868,-0.056512892,-0.056512892,-0.054397106,-0.04912293,-0.04277563,-0.03645891,-0.030111492,-0.02695322,-0.020605862,-0.015331745,-0.013215959,-0.013215959,-0.015331745,-0.014258504,-0.012142718,-0.010026932,-0.010026932,-0.012142718,-0.013215959,-0.014258504,-0.015331745,-0.01637423,-0.01953262,-0.01953262,-0.018490136,-0.018490136,-0.01953262,-0.022721648,-0.022721648,-0.021648407,-0.022721648,-0.024837434,-0.030111492,-0.033269882,-0.03538567,-0.03645891,-0.03961724,-0.043848872,-0.044891417,-0.047007143,-0.051238835,-0.057586133,-0.06286019,-0.06286019,-0.05970192,-0.054397106,-0.051238835,-0.054397106,-0.057586133,-0.05862868,-0.05970192,-0.054397106,-0.04912293,-0.03961724,-0.033269882,-0.032227397,-0.032227397,-0.03538567,-0.03645891,-0.03645891,-0.033269882,-0.031154156,-0.02903837,-0.027995825,-0.022721648,-0.01953262,-0.015331745,-0.012142718,-0.010026932,-0.014258504,-0.018490136,-0.020605862,-0.021648407,-0.018490136,-0.012142718,-0.010026932,-0.007911146,-0.012142718,-0.015331745,-0.01953262,-0.020605862,-0.013215959,0.0037103891,0.03327,0.064976096,0.09245074,0.111462,0.11992526,0.1304735,0.14844239,0.16956961,0.19069672,0.2097081,0.22875011,0.24141431,0.2561941,0.26573038,0.26042557,0.24668837,0.21605551,0.17064273,0.107230544,0.04277575,-0.011100173,-0.047007143,-0.057586133,-0.055470347,-0.05019617,-0.044891417,-0.04596466,-0.051238835,-0.05970192,-0.071323395,-0.07871336,-0.07871336,-0.077640116,-0.074481785,-0.07659745,-0.07871336,-0.08187163,-0.083987415,-0.083987415,-0.08294487,-0.064976096,-0.01953262,0.07767081,0.21817136,0.3777138,0.48334968,0.47068572,0.36081815,0.14209497,-0.18965405,-0.55731016,-0.8457316,-0.9556298,-0.8246044,-0.5034343,-0.16110629,0.06920767,0.1632222,0.16745377,0.13997924,0.11992526,0.11569369,0.11992526,0.12731516,0.13997924,0.15478969,0.168527,0.18119109,0.18753839,0.19388568,0.20550716,0.21501291,0.22451866,0.22979283,0.23506689,0.24248743,0.25199318,0.26254153,0.26888883,0.27627873,0.28474188,0.29636335,0.31010056,0.32595372,0.341776,0.36081815,0.3787564,0.3956827,0.4104625,0.41680992,0.42631543,0.44005287,0.45906413,0.47807562,0.49497128,0.51294005,0.53090894,0.5509628,0.5721208,0.58478475,0.60379624,0.62072253,0.6407765,0.660861,0.67564094,0.6936097,0.7115785,0.72847426,0.73797977,0.74009573,0.73797977,0.73586416,0.73270583,0.7316326,0.7263584,0.72108424,0.70838964,0.6904514,0.66297686,0.6291549,0.59217477,0.55203605,0.5076659,0.4559059,0.3988409,0.341776,0.2879002,0.23614013,0.18753839,0.13893664,0.097724795,0.057586193,0.023764253,-0.007911146,-0.040659845,-0.071323395,-0.094566345,-0.11041939,-0.117809355,-0.117809355,-0.116736114,-0.11250454,-0.11146206,-0.11041939,-0.11146206,-0.10830361,-0.10299885,-0.09668213,-0.08717644,-0.085060656,-0.08294487,-0.08717644,-0.093493104,-0.09560889,-0.097724795,-0.093493104,-0.08294487,-0.074481785,-0.06813437,-0.064976096,-0.06286019,-0.05970192,-0.054397106,-0.048080385,-0.044891417,-0.040659845,-0.040659845,-0.043848872,-0.05019617,-0.0533545,-0.056512892,-0.0533545,-0.04912293,-0.04912293,-0.05019617,-0.05228132,-0.0533545,-0.05862868,-0.05970192,-0.061817646,-0.05862868,-0.054397106,-0.056512892,-0.05970192,-0.06709182,-0.07025015,-0.06813437,-0.06709182,-0.061817646,-0.05862868,-0.054397106,-0.05019617,-0.048080385,-0.044891417,-0.04596466,-0.043848872,-0.043848872,-0.04912293,-0.05228132,-0.04912293,-0.03961724,-0.030111492,-0.021648407,-0.021648407,-0.030111492,-0.032227397,-0.030111492,-0.02695322,-0.023764193,-0.022721648,-0.020605862,-0.018490136,-0.011100173,-0.0068685412,-0.007911146,-0.010026932,-0.011100173,-0.012142718,-0.013215959,-0.0068685412,0.0015945435,0.007911205,0.011100292,0.007911205,0.0015945435,0.0015945435,0.0058261156,0.018490076,0.037501574,0.06286025,0.08929229,0.11569369,0.13682091,0.14948487,0.1632222,0.18014848,0.19808662,0.21289718,0.22451866,0.23614013,0.25092006,0.266773,0.27943707,0.27735186,0.25726736,0.22767699,0.18014848,0.12415671,0.06813443,0.018490076,-0.011100173,-0.020605862,-0.021648407,-0.020605862,-0.021648407,-0.02695322,-0.034343123,-0.04277563,-0.054397106,-0.06709182,-0.07236594,-0.07343918,-0.071323395,-0.07236594,-0.07236594,-0.071323395,-0.06813437,-0.061817646,-0.061817646,-0.05228132,-0.012142718,0.07659769,0.2097081,0.35658658,0.4432112,0.42208397,0.30163753,0.07343924,-0.24987727,-0.60063773,-0.8594689,-0.93870354,-0.7876242,-0.47172815,-0.14528388,0.072366,0.16745377,0.17907524,0.16110635,0.14105248,0.13258922,0.13470507,0.1378634,0.15055811,0.16429543,0.17907524,0.19388568,0.20339143,0.21078134,0.21712863,0.22344542,0.23190856,0.23506689,0.2403717,0.2477616,0.26254153,0.27839458,0.29213178,0.29847908,0.30059493,0.31433225,0.32911205,0.34708095,0.36397648,0.36925066,0.37982953,0.39460945,0.40834665,0.4241997,0.43897963,0.45167422,0.4675274,0.48546553,0.497087,0.5108243,0.5287931,0.54887784,0.5689317,0.5900589,0.6069852,0.6228075,0.6407765,0.6597879,0.67564094,0.6925672,0.71050525,0.7232001,0.7263584,0.72951674,0.72951674,0.73586416,0.74325395,0.74325395,0.7422116,0.73374844,0.72847426,0.72001123,0.6978413,0.66825104,0.632344,0.5942905,0.55838346,0.5150559,0.4643383,0.40730417,0.34708095,0.29001606,0.23718262,0.18858087,0.14316821,0.1051147,0.06920767,0.037501574,0.0058261156,-0.01953262,-0.037501454,-0.04912293,-0.055470347,-0.05862868,-0.061817646,-0.060744405,-0.05862868,-0.055470347,-0.054397106,-0.05228132,-0.04912293,-0.048080385,-0.04277563,-0.03961724,-0.034343123,-0.02695322,-0.023764193,-0.023764193,-0.020605862,-0.018490136,-0.010026932,-0.0015944839,0.0037103891,0.0015945435,0.0026370287,0.0037103891,0.0089844465,0.015331864,0.018490076,0.01744759,0.018490076,0.014258623,0.013216019,0.013216019,0.011100292,0.012142777,0.0089844465,0.0089844465,0.00686872,0.0058261156,0.007911205,0.0026370287,-0.002636969,-0.0057953596,-0.0057953596,-0.002636969,0.0047528744,0.00686872,0.0015945435,-0.002636969,-0.002636969,0.0005213022,0.0047528744,0.0047528744,0.0026370287,0.0015945435,-0.0005212426,0.0037103891,0.007911205,0.0089844465,0.011100292,0.010027051,0.010027051,0.00686872,0.00686872,0.013216019,0.015331864,0.016374469,0.011100292,0.0015945435,0.0026370287,0.0058261156,0.015331864,0.023764253,0.02695334,0.02695334,0.03011167,0.03327,0.034343243,0.03327,0.034343243,0.03327,0.034343243,0.032227516,0.03011167,0.029069066,0.029069066,0.03327,0.035385728,0.03645897,0.03645897,0.03327,0.03327,0.03327,0.035385728,0.047007322,0.06920767,0.09560895,0.120967746,0.14632666,0.16429543,0.1769594,0.20127559,0.22663438,0.24668837,0.26361465,0.27627873,0.2815528,0.2942475,0.31114328,0.323838,0.32488048,0.31010056,0.27839458,0.22875011,0.17380118,0.117809415,0.06604934,0.025880098,0.0089844465,0.0089844465,0.018490076,0.025880098,0.021648526,0.010027051,-0.0057953596,-0.017416894,-0.023764193,-0.030111492,-0.03538567,-0.032227397,-0.02903837,-0.02587998,-0.02695322,-0.031154156,-0.031154156,-0.027995825,-0.0037102103,0.055470467,0.16641116,0.31641734,0.4643383,0.5224458,0.46856987,0.3269962,0.09245074,-0.23190844,-0.5625843,-0.79608727,-0.83518326,-0.63761795,-0.30267996,0.0015945435,0.16956961,0.21182394,0.19492829,0.16641116,0.15160072,0.14948487,0.15794802,0.17272782,0.19176996,0.21078134,0.21817136,0.22240281,0.22875011,0.23506689,0.24668837,0.2561941,0.26254153,0.27100456,0.27627873,0.28474188,0.29213178,0.30059493,0.31433225,0.32595372,0.3396603,0.35128176,0.36397648,0.3777138,0.3861462,0.39672518,0.40411508,0.4136207,0.4315896,0.4506011,0.46645415,0.48442292,0.5013186,0.5171716,0.5340673,0.55307865,0.5689317,0.585858,0.6069852,0.6259967,0.6407765,0.65028214,0.660861,0.6788299,0.6988839,0.72001123,0.7369374,0.7422116,0.7506746,0.7527597,0.7580645,0.7622962,0.7591071,0.7559488,0.7517173,0.74113834,0.72424257,0.7041887,0.6788299,0.652398,0.61753345,0.5731633,0.52563477,0.4759599,0.4241997,0.3777138,0.3280388,0.27523613,0.22556114,0.1769594,0.12519944,0.08294499,0.047007322,0.023764253,0.00686872,-0.008984387,-0.024837434,-0.043848872,-0.051238835,-0.055470347,-0.056512892,-0.054397106,-0.054397106,-0.054397106,-0.04912293,-0.048080385,-0.047007143,-0.04277563,-0.037501454,-0.033269882,-0.032227397,-0.038574696,-0.040659845,-0.03645891,-0.02587998,-0.01637423,-0.010026932,-0.007911146,-0.0037102103,0.0005213022,0.007911205,0.011100292,0.012142777,0.014258623,0.016374469,0.018490076,0.018490076,0.022721767,0.03011167,0.032227516,0.031154275,0.024837494,0.013216019,0.00686872,0.00686872,0.007911205,0.011100292,0.011100292,0.0089844465,0.011100292,0.010027051,0.014258623,0.01744759,0.018490076,0.0195328,0.0195328,0.016374469,0.01744759,0.01744759,0.018490076,0.020606041,0.016374469,0.015331864,0.0195328,0.022721767,0.024837494,0.021648526,0.011100292,0.00686872,0.0058261156,0.0047528744,0.007911205,0.0058261156,0.0058261156,0.011100292,0.01744759,0.020606041,0.022721767,0.024837494,0.025880098,0.02695334,0.02695334,0.021648526,0.023764253,0.02695334,0.032227516,0.032227516,0.034343243,0.034343243,0.038574815,0.048080564,0.052312016,0.052312016,0.05019629,0.045964718,0.03961742,0.03961742,0.04069054,0.048080564,0.055470467,0.06709194,0.075555086,0.09245074,0.12415671,0.15267396,0.17803264,0.19492829,0.19915986,0.2097081,0.23086607,0.25303578,0.27523613,0.29213178,0.30902743,0.3196063,0.33438623,0.33334363,0.32172203,0.30375326,0.27100456,0.23086607,0.17380118,0.10934627,0.058628798,0.022721767,0.007911205,0.007911205,0.011100292,0.010027051,0.0026370287,-0.0068685412,-0.01953262,-0.033269882,-0.04277563,-0.047007143,-0.048080385,-0.05228132,-0.05019617,-0.047007143,-0.044891417,-0.041733086,-0.047007143,-0.04912293,-0.02903837,0.04069054,0.17064273,0.3280388,0.48123395,0.543573,0.48019135,0.323838,0.06393349,-0.29105842,-0.6397338,-0.87004775,-0.8985649,-0.69149387,-0.34496498,-0.031154156,0.14948487,0.20231819,0.18542266,0.15055811,0.13366246,0.13154674,0.13997924,0.15690541,0.16641116,0.17907524,0.19281256,0.20231819,0.21289718,0.21817136,0.22240281,0.23190856,0.24353004,0.25199318,0.26465726,0.27735186,0.29213178,0.30798483,0.3206489,0.3280388,0.33334363,0.34389186,0.35128176,0.36186075,0.37664056,0.3956827,0.41469395,0.42843127,0.44109535,0.44848537,0.45906413,0.47807562,0.4960444,0.5140133,0.53090894,0.543573,0.55626774,0.5689317,0.582669,0.60275364,0.62072253,0.6397339,0.6597879,0.6767142,0.6936097,0.7115785,0.72212684,0.73059,0.73586416,0.7422116,0.74960136,0.7580645,0.7633387,0.76122296,0.75383294,0.7453699,0.72847426,0.7052313,0.6798725,0.64923966,0.613302,0.5752791,0.52351904,0.4675274,0.40518832,0.35023928,0.2942475,0.24141431,0.19281256,0.1442107,0.09668219,0.055470467,0.018490076,-0.020605862,-0.04912293,-0.06601858,-0.07659745,-0.085060656,-0.09560889,-0.104072094,-0.11146206,-0.11569357,-0.11357778,-0.11041939,-0.10511464,-0.09984046,-0.09245062,-0.0861032,-0.085060656,-0.07871336,-0.07025015,-0.06601858,-0.06813437,-0.071323395,-0.077640116,-0.07236594,-0.064976096,-0.057586133,-0.051238835,-0.04912293,-0.044891417,-0.044891417,-0.043848872,-0.04912293,-0.05228132,-0.048080385,-0.044891417,-0.044891417,-0.044891417,-0.047007143,-0.048080385,-0.047007143,-0.048080385,-0.0533545,-0.0533545,-0.056512892,-0.056512892,-0.061817646,-0.07025015,-0.07659745,-0.07871336,-0.07659745,-0.074481785,-0.077640116,-0.07871336,-0.07659745,-0.07555491,-0.07343918,-0.07343918,-0.07871336,-0.08187163,-0.080829084,-0.085060656,-0.08187163,-0.077640116,-0.06920761,-0.06286019,-0.064976096,-0.07555491,-0.085060656,-0.09560889,-0.094566345,-0.0861032,-0.080829084,-0.07871336,-0.07236594,-0.07659745,-0.07871336,-0.07975584,-0.080829084,-0.07659745,-0.07659745,-0.07236594,-0.06920761,-0.06920761,-0.05862868,-0.04912293,-0.047007143,-0.051238835,-0.055470347,-0.05970192,-0.060744405,-0.05862868,-0.057586133,-0.05970192,-0.05228132,-0.041733086,-0.031154156,-0.02587998,-0.02695322,-0.033269882,-0.032227397,-0.015331745,0.007911205,0.04277575,0.071323514,0.094566464,0.10934627,0.12308359,0.14105248,0.16217959,0.1769594,0.19069672,0.20127559,0.2097081,0.21924448,0.21817136,0.20654976,0.17907524,0.14739978,0.107230544,0.055470467,0.00686872,-0.03645891,-0.063902855,-0.07343918,-0.07025015,-0.07659745,-0.083987415,-0.08926159,-0.09245062,-0.09668213,-0.094566345,-0.10195631,-0.10618788,-0.10088307,-0.097724795,-0.09560889,-0.09668213,-0.10195631,-0.09984046,-0.09560889,-0.0861032,-0.056512892,0.0058261156,0.12415671,0.2815528,0.4252423,0.46856987,0.39460945,0.21712863,-0.07871336,-0.45378995,-0.7865815,-0.97252536,-0.93342936,-0.6692935,-0.3132589,-0.027995825,0.11357796,0.14528394,0.13258922,0.11041951,0.09984064,0.10934627,0.12624192,0.1442107,0.1632222,0.17591691,0.18646514,0.19069672,0.19915986,0.2097081,0.21393967,0.22132957,0.22767699,0.23402429,0.24141431,0.24668837,0.25410903,0.2614988,0.27100456,0.2879002,0.30375326,0.31433225,0.33227038,0.3449651,0.3533975,0.36501908,0.37664056,0.38933527,0.40518832,0.4252423,0.43897963,0.45799088,0.47914886,0.5034344,0.52771986,0.543573,0.5573102,0.5731633,0.5869006,0.60379624,0.6186067,0.6291549,0.6407765,0.660861,0.68198824,0.69676816,0.7094629,0.71369445,0.71473706,0.72001123,0.72001123,0.72424257,0.73059,0.72951674,0.7253158,0.7126212,0.6946523,0.6767142,0.65135527,0.6228075,0.5890163,0.54464614,0.5023918,0.45379007,0.39460945,0.3375752,0.2815528,0.22451866,0.17272782,0.12308359,0.072366,0.024837494,-0.008984387,-0.03961724,-0.05970192,-0.071323395,-0.080829084,-0.083987415,-0.08926159,-0.08821905,-0.09137738,-0.08717644,-0.07555491,-0.06813437,-0.06601858,-0.063902855,-0.06920761,-0.06709182,-0.060744405,-0.055470347,-0.047007143,-0.041733086,-0.03538567,-0.034343123,-0.032227397,-0.033269882,-0.033269882,-0.030111492,-0.034343123,-0.03645891,-0.03961724,-0.04277563,-0.03645891,-0.032227397,-0.02903837,-0.030111492,-0.038574696,-0.044891417,-0.03961724,-0.033269882,-0.024837434,-0.018490136,-0.022721648,-0.031154156,-0.031154156,-0.02903837,-0.027995825,-0.023764193,-0.01953262,-0.01953262,-0.023764193,-0.031154156,-0.032227397,-0.034343123,-0.03645891,-0.034343123,-0.03645891,-0.03961724,-0.03645891,-0.034343123,-0.038574696,-0.040659845,-0.04596466,-0.04912293,-0.04596466,-0.041733086,-0.040659845,-0.032227397,-0.02587998,-0.01953262,-0.011100173,-0.0057953596,-0.0015944839,-0.0015944839,-0.008984387,-0.01637423,-0.020605862,-0.015331745,-0.008984387,-0.0005212426,-0.0005212426,-0.0047528744,-0.012142718,-0.013215959,-0.015331745,-0.01637423,-0.007911146,0.0037103891,0.012142777,0.016374469,0.011100292,0.0047528744,0.013216019,0.03645897,0.074481845,0.107230544,0.12835765,0.14316821,0.15160072,0.17380118,0.19915986,0.21501291,0.22979283,0.24248743,0.2551515,0.2678156,0.2805103,0.2815528,0.26888883,0.24457264,0.20443404,0.15478969,0.09668219,0.041733146,0.0015945435,-0.024837434,-0.038574696,-0.034343123,-0.031154156,-0.032227397,-0.038574696,-0.055470347,-0.071323395,-0.08294487,-0.08926159,-0.09033483,-0.08926159,-0.08717644,-0.083987415,-0.0861032,-0.083987415,-0.085060656,-0.083987415,-0.07025015,-0.037501454,0.037501574,0.15902126,0.30479586,0.4241997,0.43370545,0.34073353,0.16429543,-0.107230365,-0.43582112,-0.7337483,-0.90595484,-0.86581624,-0.61649084,-0.27732116,-0.0037102103,0.1304735,0.1632222,0.14632666,0.11885202,0.108303785,0.108303785,0.11357796,0.12731516,0.14316821,0.15690541,0.168527,0.1769594,0.18119109,0.18753839,0.19808662,0.20866561,0.21712863,0.22344542,0.23295105,0.24141431,0.24880409,0.26254153,0.274163,0.28262603,0.30059493,0.31853306,0.33122778,0.35128176,0.36609232,0.37664056,0.3861462,0.3988409,0.41150498,0.42947388,0.44744265,0.4559059,0.46541154,0.47807562,0.49392867,0.5140133,0.5361831,0.5551945,0.5763216,0.5964062,0.60910106,0.62388074,0.63866067,0.65662944,0.68198824,0.7041887,0.7178954,0.72951674,0.7369374,0.739053,0.74325395,0.74009573,0.7369374,0.73374844,0.73059,0.72001123,0.7062738,0.6851467,0.65662944,0.6291549,0.593248,0.546762,0.497087,0.43897963,0.37982953,0.32488048,0.26993132,0.22028708,0.16956961,0.12519944,0.08294499,0.041733146,0.012142777,-0.013215959,-0.032227397,-0.044891417,-0.05862868,-0.06709182,-0.074481785,-0.080829084,-0.077640116,-0.07555491,-0.071323395,-0.06709182,-0.064976096,-0.063902855,-0.06813437,-0.06601858,-0.06286019,-0.056512892,-0.048080385,-0.04277563,-0.044891417,-0.04277563,-0.041733086,-0.038574696,-0.03538567,-0.032227397,-0.02695322,-0.021648407,-0.015331745,-0.01637423,-0.02587998,-0.033269882,-0.038574696,-0.040659845,-0.044891417,-0.047007143,-0.04596466,-0.041733086,-0.037501454,-0.033269882,-0.037501454,-0.03538567,-0.02903837,-0.02903837,-0.030111492,-0.034343123,-0.037501454,-0.03961724,-0.041733086,-0.048080385,-0.051238835,-0.055470347,-0.05228132,-0.047007143,-0.05019617,-0.05019617,-0.047007143,-0.04277563,-0.034343123,-0.030111492,-0.031154156,-0.034343123,-0.038574696,-0.03538567,-0.034343123,-0.03645891,-0.031154156,-0.02903837,-0.030111492,-0.027995825,-0.02587998,-0.022721648,-0.021648407,-0.017416894,-0.01953262,-0.02695322,-0.023764193,-0.01953262,-0.012142718,-0.0047528744,-0.0047528744,-0.0015944839,0.0015945435,0.0047528744,0.0026370287,0.0005213022,-0.002636969,-0.0005212426,0.0089844465,0.012142777,0.025880098,0.047007322,0.075555086,0.10934627,0.13258922,0.14105248,0.15690541,0.1769594,0.19808662,0.21924448,0.23825586,0.25199318,0.27204716,0.29317427,0.30479586,0.29952168,0.2805103,0.24457264,0.20339143,0.14528394,0.08610332,0.035385728,-0.0037102103,-0.023764193,-0.023764193,-0.020605862,-0.020605862,-0.020605862,-0.023764193,-0.03538567,-0.04596466,-0.04912293,-0.056512892,-0.056512892,-0.054397106,-0.055470347,-0.05019617,-0.044891417,-0.043848872,-0.03961724,-0.041733086,-0.031154156,0.016374469,0.117809415,0.25938308,0.42947388,0.5499203,0.543573,0.43582118,0.22240281,-0.09879792,-0.45694828,-0.7453698,-0.8774377,-0.7802342,-0.48969698,-0.15794796,0.085060716,0.19492829,0.20020235,0.168527,0.14316821,0.1304735,0.13577831,0.15371644,0.17168534,0.18646514,0.20231819,0.21605551,0.22663438,0.23190856,0.24141431,0.25199318,0.26465726,0.27627873,0.28262603,0.29105854,0.2942475,0.30479586,0.31641734,0.32172203,0.33438623,0.35023928,0.36397648,0.3787564,0.39460945,0.4104625,0.42735815,0.44005287,0.4495585,0.45799088,0.47280145,0.4886545,0.50555015,0.5214032,0.5298357,0.5499203,0.5752791,0.59536374,0.61649096,0.63550234,0.6545137,0.6724826,0.68937814,0.70099974,0.70734704,0.7178954,0.73482156,0.75487554,0.7739177,0.78235006,0.7844658,0.77919185,0.77072847,0.76649714,0.76545453,0.7622962,0.75383294,0.7443272,0.7232001,0.6936097,0.6619036,0.6186067,0.5678891,0.51294005,0.45799088,0.40095675,0.3460077,0.2942475,0.24141431,0.19069672,0.13997924,0.09349322,0.052312016,0.018490076,-0.008984387,-0.031154156,-0.04912293,-0.061817646,-0.06601858,-0.07025015,-0.07236594,-0.071323395,-0.06813437,-0.06709182,-0.06709182,-0.061817646,-0.055470347,-0.048080385,-0.038574696,-0.03538567,-0.03645891,-0.031154156,-0.02695322,-0.02695322,-0.022721648,-0.020605862,-0.01953262,-0.012142718,-0.011100173,-0.011100173,-0.0037102103,0.0015945435,0.0026370287,0.0037103891,-0.002636969,-0.007911146,-0.0057953596,-0.002636969,-0.0005212426,-0.0005212426,-0.0015944839,-0.011100173,-0.014258504,-0.013215959,-0.007911146,-0.002636969,0.0058261156,0.0089844465,0.0047528744,0.0015945435,0.0026370287,-0.0015944839,-0.0057953596,-0.008984387,-0.014258504,-0.020605862,-0.024837434,-0.02587998,-0.030111492,-0.03538567,-0.031154156,-0.02903837,-0.02903837,-0.023764193,-0.022721648,-0.020605862,-0.012142718,-0.0037102103,0.0015945435,-0.0015944839,-0.0047528744,-0.007911146,-0.010026932,-0.011100173,-0.007911146,-0.0068685412,-0.008984387,-0.0068685412,-0.007911146,-0.011100173,-0.014258504,-0.012142718,-0.011100173,-0.010026932,-0.012142718,-0.007911146,-0.0037102103,0.0005213022,0.011100292,0.018490076,0.023764253,0.024837494,0.021648526,0.011100292,0.0037103891,0.0026370287,0.011100292,0.021648526,0.04384899,0.072366,0.10091376,0.13154674,0.15478969,0.16217959,0.16956961,0.19069672,0.21078134,0.22979283,0.24987733,0.26361465,0.2731204,0.28897333,0.2952901,0.28897333,0.274163,0.2477616,0.20339143,0.14528394,0.07871342,0.016374469,-0.024837434,-0.03961724,-0.041733086,-0.04277563,-0.04277563,-0.044891417,-0.05228132,-0.056512892,-0.063902855,-0.07236594,-0.07555491,-0.07975584,-0.085060656,-0.08717644,-0.08926159,-0.08926159,-0.085060656,-0.08294487,-0.09033483,-0.08187163,-0.04277563,0.052312016,0.20231819,0.37136638,0.49077034,0.4896971,0.38194525,0.17907524,-0.1336624,-0.50447685,-0.80770874,-0.9471666,-0.8520789,-0.5456887,-0.19281238,0.05651295,0.16745377,0.1769594,0.14105248,0.11357796,0.108303785,0.120967746,0.13893664,0.15690541,0.16641116,0.168527,0.17484367,0.18753839,0.19915986,0.207623,0.22132957,0.23190856,0.24248743,0.2477616,0.2551515,0.25830984,0.26254153,0.274163,0.28366864,0.2952901,0.3069116,0.3196063,0.33545935,0.3449651,0.35762918,0.37243974,0.3861462,0.40411508,0.41573668,0.4241997,0.44109535,0.46117997,0.4823072,0.49816024,0.5087086,0.5224458,0.5425304,0.5721208,0.593248,0.61014354,0.621765,0.63127077,0.65028214,0.6692935,0.6851467,0.6936097,0.70311546,0.7115785,0.71685266,0.7253158,0.73482156,0.739053,0.73797977,0.7369374,0.73059,0.72424257,0.71369445,0.6946523,0.66825104,0.63022816,0.5890163,0.54887784,0.49920285,0.4432112,0.38933527,0.33438623,0.27627873,0.22767699,0.17591691,0.12624192,0.07659769,0.031154275,-0.0037102103,-0.03538567,-0.057586133,-0.06813437,-0.07871336,-0.085060656,-0.09245062,-0.10511464,-0.10934615,-0.11357778,-0.11250454,-0.10618788,-0.10830361,-0.10618788,-0.10088307,-0.094566345,-0.0861032,-0.085060656,-0.085060656,-0.08187163,-0.07659745,-0.071323395,-0.06709182,-0.061817646,-0.061817646,-0.060744405,-0.05862868,-0.05862868,-0.056512892,-0.055470347,-0.048080385,-0.041733086,-0.03538567,-0.02695322,-0.022721648,-0.022721648,-0.031154156,-0.037501454,-0.037501454,-0.03645891,-0.03538567,-0.033269882,-0.03961724,-0.04277563,-0.038574696,-0.03538567,-0.038574696,-0.03961724,-0.044891417,-0.04912293,-0.047007143,-0.04912293,-0.05228132,-0.05019617,-0.04596466,-0.040659845,-0.047007143,-0.051238835,-0.054397106,-0.05228132,-0.048080385,-0.04277563,-0.040659845,-0.037501454,-0.033269882,-0.024837434,-0.023764193,-0.02903837,-0.02903837,-0.030111492,-0.031154156,-0.027995825,-0.030111492,-0.032227397,-0.02903837,-0.023764193,-0.024837434,-0.021648407,-0.020605862,-0.01953262,-0.020605862,-0.020605862,-0.023764193,-0.022721648,-0.022721648,-0.018490136,-0.015331745,-0.013215959,-0.007911146,-0.002636969,0.010027051,0.025880098,0.05019629,0.07975602,0.10299897,0.11569369,0.12835765,0.14528394,0.16533792,0.19281256,0.21712863,0.23295105,0.25199318,0.26993132,0.2868576,0.2879002,0.26573038,0.22875011,0.17907524,0.12835765,0.07975602,0.034343243,-0.007911146,-0.030111492,-0.03645891,-0.03538567,-0.03961724,-0.044891417,-0.054397106,-0.064976096,-0.06709182,-0.06920761,-0.07025015,-0.06813437,-0.06709182,-0.071323395,-0.07236594,-0.077640116,-0.080829084,-0.07236594,-0.063902855,-0.0533545,-0.020605862,0.04069054,0.14739978,0.28474188,0.40307248,0.42843127,0.34812343,0.1632222,-0.120967746,-0.4728014,-0.7886973,-0.95986134,-0.9144179,-0.6597878,-0.3206488,-0.043848872,0.108303785,0.15055811,0.14844239,0.13577831,0.12624192,0.12943089,0.1378634,0.14528394,0.15583217,0.16641116,0.17484367,0.18646514,0.19808662,0.20127559,0.207623,0.21924448,0.23402429,0.25199318,0.2678156,0.2731204,0.27839458,0.28474188,0.29001606,0.30268002,0.31749058,0.33227038,0.34708095,0.36397648,0.38087213,0.39672518,0.41150498,0.4241997,0.43686378,0.44109535,0.45167422,0.47068572,0.48334968,0.5013186,0.5171716,0.53195155,0.54887784,0.5615418,0.5752791,0.585858,0.59852207,0.6196493,0.64500797,0.66825104,0.6851467,0.70311546,0.71473706,0.72743165,0.74009573,0.74325395,0.74644315,0.74960136,0.74748576,0.7453699,0.73797977,0.72424257,0.7062738,0.68937814,0.66720843,0.6344291,0.5890163,0.53829885,0.48546553,0.43370545,0.37982953,0.3269962,0.26993132,0.21289718,0.16533792,0.11569369,0.06920767,0.032227516,-0.0015944839,-0.033269882,-0.057586133,-0.07555491,-0.09033483,-0.09668213,-0.09668213,-0.09879792,-0.10299885,-0.104072094,-0.10088307,-0.097724795,-0.093493104,-0.08294487,-0.07975584,-0.077640116,-0.06920761,-0.06286019,-0.05970192,-0.051238835,-0.043848872,-0.03961724,-0.037501454,-0.030111492,-0.021648407,-0.010026932,-0.002636969,0.0015945435,0.0026370287,0.0015945435,0.0058261156,0.012142777,0.012142777,0.011100292,0.0058261156,-0.0005212426,-0.0037102103,-0.011100173,-0.010026932,-0.0037102103,-0.0037102103,0.0005213022,0.0015945435,-0.0057953596,-0.008984387,-0.008984387,-0.0068685412,-0.007911146,-0.0068685412,-0.007911146,-0.010026932,-0.008984387,-0.015331745,-0.017416894,-0.015331745,-0.011100173,-0.007911146,-0.007911146,-0.013215959,-0.01953262,-0.017416894,-0.012142718,-0.014258504,-0.014258504,-0.010026932,-0.0057953596,-0.0057953596,-0.0047528744,-0.0068685412,-0.013215959,-0.011100173,-0.0047528744,-0.0005212426,-0.0005212426,-0.0015944839,-0.002636969,-0.0015944839,-0.0037102103,-0.002636969,0.0005213022,-0.002636969,0.0005213022,0.0058261156,0.0047528744,0.0037103891,0.00686872,0.0026370287,-0.002636969,-0.0037102103,-0.0037102103,-0.0037102103,0.0037103891,0.018490076,0.04384899,0.07975602,0.111462,0.12731516,0.13470507,0.13997924,0.15794802,0.18965411,0.21924448,0.23506689,0.24880409,0.25938308,0.2731204,0.29213178,0.2942475,0.28262603,0.26254153,0.22875011,0.18965411,0.14105248,0.08717656,0.038574815,-0.0005212426,-0.01637423,-0.01637423,-0.007911146,-0.0037102103,-0.0047528744,-0.011100173,-0.023764193,-0.033269882,-0.033269882,-0.032227397,-0.032227397,-0.030111492,-0.02903837,-0.030111492,-0.033269882,-0.02903837,-0.02903837,-0.02695322,-0.0005212426,0.06709194,0.18119109,0.3196063,0.4569484,0.504477,0.43793702,0.28366864,0.03327,-0.29952157,-0.6217649,-0.8277934,-0.8457316,-0.6450079,-0.31430143,-0.015331745,0.15371644,0.20339143,0.18438005,0.15055811,0.13470507,0.13366246,0.14844239,0.1632222,0.18119109,0.19704413,0.20550716,0.21393967,0.21501291,0.21924448,0.23190856,0.24248743,0.24987733,0.25726736,0.25830984,0.25830984,0.26888883,0.2815528,0.2952901,0.30798483,0.31433225,0.32595372,0.3396603,0.35658658,0.36925066,0.38087213,0.391451,0.40199935,0.41573668,0.43474793,0.44848537,0.4643383,0.48334968,0.5013186,0.5140133,0.5330248,0.5551945,0.57739484,0.6006378,0.6259967,0.64923966,0.6724826,0.6936097,0.702073,0.7094629,0.71896863,0.7316326,0.74748576,0.7517173,0.7527597,0.75699127,0.7591071,0.7580645,0.7559488,0.7453699,0.73270583,0.72001123,0.70099974,0.66720843,0.63022816,0.5942905,0.5573102,0.5150559,0.46856987,0.41469395,0.35551345,0.30268002,0.25303578,0.19808662,0.15160072,0.108303785,0.064976096,0.03327,0.0015945435,-0.024837434,-0.03961724,-0.04912293,-0.055470347,-0.056512892,-0.055470347,-0.057586133,-0.056512892,-0.051238835,-0.04912293,-0.044891417,-0.044891417,-0.043848872,-0.04277563,-0.041733086,-0.034343123,-0.032227397,-0.030111492,-0.027995825,-0.027995825,-0.02695322,-0.031154156,-0.032227397,-0.030111492,-0.024837434,-0.01953262,-0.011100173,-0.0068685412,-0.0057953596,-0.0047528744,-0.0047528744,-0.0068685412,-0.007911146,-0.0047528744,-0.0057953596,-0.010026932,-0.015331745,-0.014258504,-0.012142718,-0.010026932,-0.007911146,-0.0037102103,-0.002636969,-0.002636969,-0.0068685412,-0.01953262,-0.02695322,-0.02695322,-0.018490136,-0.008984387,-0.010026932,-0.012142718,-0.01637423,-0.018490136,-0.021648407,-0.02695322,-0.030111492,-0.030111492,-0.02587998,-0.017416894,-0.014258504,-0.013215959,-0.0068685412,-0.0015944839,-0.0037102103,-0.0057953596,-0.007911146,-0.008984387,-0.0068685412,-0.010026932,-0.010026932,-0.008984387,-0.0005212426,0.007911205,0.011100292,0.011100292,0.007911205,0.00686872,0.013216019,0.011100292,0.007911205,0.010027051,0.010027051,0.011100292,0.007911205,0.0015945435,0.0005213022,-0.0005212426,0.0037103891,0.015331864,0.031154275,0.05970204,0.09033489,0.11992526,0.13893664,0.15160072,0.16006386,0.17591691,0.19704413,0.21605551,0.23295105,0.2561941,0.27735186,0.29213178,0.30798483,0.3122164,0.30059493,0.27627873,0.24457264,0.19492829,0.13682091,0.08082926,0.02695334,-0.007911146,-0.020605862,-0.021648407,-0.014258504,-0.0068685412,-0.0057953596,-0.014258504,-0.02587998,-0.03645891,-0.044891417,-0.047007143,-0.047007143,-0.05228132,-0.060744405,-0.060744405,-0.061817646,-0.056512892,-0.055470347,-0.056512892,-0.034343123,0.025880098,0.1442107,0.30375326,0.45799088,0.5287931,0.47914886,0.32911205,0.072366,-0.26993132,-0.6133019,-0.844689,-0.8805961,-0.68833554,-0.36186063,-0.054397106,0.1304735,0.19388568,0.18646514,0.15690541,0.13682091,0.13470507,0.14209497,0.15583217,0.17272782,0.18330681,0.19600153,0.2097081,0.22028708,0.22767699,0.22875011,0.23086607,0.23295105,0.23506689,0.24880409,0.2678156,0.28262603,0.29740596,0.30798483,0.31641734,0.32172203,0.3280388,0.3396603,0.35128176,0.3671348,0.38933527,0.41257823,0.43370545,0.4506011,0.4675274,0.48653877,0.50659263,0.5287931,0.546762,0.5541519,0.56365764,0.57739484,0.5942905,0.60910106,0.62388074,0.6397339,0.6587453,0.6798725,0.70099974,0.71369445,0.72212684,0.73270583,0.74325395,0.7506746,0.7622962,0.7696861,0.77072847,0.77284443,0.7718017,0.76122296,0.7517173,0.73586416,0.7115785,0.6788299,0.64289224,0.60275364,0.55626774,0.50659263,0.45167422,0.39460945,0.33334363,0.2731204,0.21501291,0.15478969,0.10618794,0.06604934,0.02695334,-0.007911146,-0.03538567,-0.05862868,-0.07236594,-0.080829084,-0.09137738,-0.10195631,-0.11146206,-0.11462033,-0.11146206,-0.10934615,-0.10511464,-0.107230365,-0.104072094,-0.097724795,-0.094566345,-0.085060656,-0.07555491,-0.06709182,-0.05862868,-0.05970192,-0.060744405,-0.06286019,-0.060744405,-0.047007143,-0.03961724,-0.037501454,-0.033269882,-0.030111492,-0.02903837,-0.022721648,-0.021648407,-0.022721648,-0.020605862,-0.022721648,-0.02587998,-0.02695322,-0.024837434,-0.023764193,-0.02587998,-0.030111492,-0.03538567,-0.034343123,-0.031154156,-0.032227397,-0.03538567,-0.03961724,-0.038574696,-0.033269882,-0.034343123,-0.034343123,-0.03538567,-0.033269882,-0.032227397,-0.030111492,-0.03538567,-0.040659845,-0.037501454,-0.034343123,-0.03645891,-0.03645891,-0.037501454,-0.03645891,-0.032227397,-0.023764193,-0.021648407,-0.022721648,-0.02587998,-0.02587998,-0.030111492,-0.031154156,-0.024837434,-0.021648407,-0.015331745,-0.0057953596,-0.0015944839,0.0015945435,-0.0005212426,-0.0047528744,-0.01637423,-0.022721648,-0.024837434,-0.022721648,-0.013215959,-0.011100173,-0.013215959,-0.013215959,-0.012142718,-0.0047528744,-0.0037102103,-0.0047528744,-0.0057953596,-0.002636969,0.0047528744,0.012142777,0.023764253,0.045964718,0.07343924,0.10299897,0.12731516,0.13258922,0.1378634,0.15902126,0.18014848,0.20654976,0.23086607,0.24353004,0.25830984,0.27627873,0.28578448,0.27943707,0.26361465,0.23506689,0.19600153,0.15055811,0.09349322,0.034343243,-0.012142718,-0.033269882,-0.03961724,-0.041733086,-0.041733086,-0.05228132,-0.063902855,-0.071323395,-0.083987415,-0.08926159,-0.08926159,-0.08926159,-0.08187163,-0.07871336,-0.077640116,-0.08294487,-0.09137738,-0.097724795,-0.10299885,-0.10088307,-0.080829084,-0.018490136,0.09560895,0.2477616,0.41680992,0.504477,0.4675274,0.3375752,0.08610332,-0.27732116,-0.6428921,-0.8975224,-0.9429351,-0.743254,-0.39672512,-0.08187163,0.107230544,0.17064273,0.16429543,0.1442107,0.12943089,0.120967746,0.12624192,0.14105248,0.16110635,0.18330681,0.19704413,0.20654976,0.20550716,0.20550716,0.21289718,0.22028708,0.22979283,0.23825586,0.24353004,0.24457264,0.25410903,0.26573038,0.2731204,0.2868576,0.30059493,0.31641734,0.33227038,0.34389186,0.35447073,0.36820805,0.38826203,0.40623093,0.41892564,0.43054712,0.43897963,0.46010673,0.4896971,0.5171716,0.5414573,0.5573102,0.5689317,0.5742365,0.585858,0.60486937,0.632344,0.6619036,0.6851467,0.6978413,0.7052313,0.7115785,0.72424257,0.73374844,0.74325395,0.7506746,0.75383294,0.76122296,0.76649714,0.7633387,0.7591071,0.7517173,0.73586416,