-0.5464085,-0.55108213,-0.5538925,-0.5538925,-0.55483943,-0.5538925,-0.55108213,-0.5492188,-0.54451454,-0.54170424,-0.53889394,-0.53889394,-0.5407573,-0.54170424,-0.5407573,-0.5370306,-0.53232634,-0.5276526,-0.52578926,-0.5248423,-0.5238954,-0.521085,-0.51922166,-0.5201381,-0.522979,-0.522032,-0.5182748,-0.50984377,-0.5014128,-0.49670857,-0.49484527,-0.49670857,-0.50046587,-0.50235975,-0.50422317,-0.5032762,-0.5014128,-0.5014128,-0.50235975,-0.50703347,-0.5117071,-0.51360106,-0.51360106,-0.5107907,-0.5107907,-0.51265407,-0.5154644,-0.5201381,-0.5201381,-0.51922166,-0.5145174,-0.51265407,-0.5117071,-0.51265407,-0.5145174,-0.5117071,-0.50608647,-0.5014128,-0.49765557,-0.4986025,-0.50235975,-0.50703347,-0.5117071,-0.5154644,-0.51641136,-0.5145174,-0.5107907,-0.50703347,-0.5051701,-0.50422317,-0.50046587,-0.49579215,-0.49298185,-0.4910879,-0.49579215,-0.4986025,-0.49954945,-0.49670857,-0.49298185,-0.4910879,-0.4920349,-0.49579215,-0.50046587,-0.50422317,-0.5051701,-0.5014128,-0.49579215,-0.49017155,-0.4873612,-0.4882776,-0.49017155,-0.4910879,-0.4920349,-0.49017155,-0.49017155,-0.4882776,-0.48360395,-0.47327906,-0.4592275,-0.44141865,-0.42455667,-0.41331547,-0.40393752,-0.38612866,-0.35240483,-0.30365193,-0.25492954,-0.2239855,-0.2239855,-0.24649853,-0.27365482,-0.28773695,-0.28303272,-0.27084452,-0.26430744,-0.27460176,-0.30927253,-0.36269915,-0.42455667,-0.4817406,-0.5173278,-0.5314099,-0.5267057,-0.5182748,-0.51265407,-0.50984377,-0.50984377,-0.5088968,-0.50984377,-0.5107907,-0.5088968,-0.50984377,-0.5182748,-0.54356766,-0.57451165,-0.5782689,-0.5276526,-0.38518173,-0.1415087,0.16588509,0.4798466,0.6860386,0.72446656,0.5707544,0.22865915,-0.1818307,-0.55764973,-0.81632125,-0.92033356,-0.8959571,-0.8050494,-0.70760465,-0.624181,-0.56137645,-0.5201381,-0.49579215,-0.48641425,-0.4817406,-0.4779833,-0.47327906,-0.46393174,-0.45550078,-0.44893318,-0.44612288,-0.44422895,-0.44050223,-0.43298763,-0.42455667,-0.41331547,-0.40488446,-0.40018022,-0.3964535,-0.3936432,-0.38612866,-0.3776977,-0.3674034,-0.35988885,-0.35240483,-0.34678417,-0.34021658,-0.33083868,-0.32146078,-0.31116647,-0.29708433,-0.279306,-0.25587648,-0.23055309,-0.20526022,-0.18274713,-0.16402185,-0.14340264,-0.12373042,-0.09654361,-0.0665465,-0.035633028,-0.0009316802,0.030928731,0.061842322,0.09183931,0.118079185,0.1424557,0.16212785,0.17807329,0.18931472,0.19960904,0.21085024,0.22303855,0.23055303,0.23146951,0.2202282,0.19869256,0.16869557,0.13121438,0.084355354,0.029981732,-0.02906543,-0.08902907,-0.1480763,-0.20526022,-0.2605502,-0.31397676,-0.36269915,-0.40674782,-0.4451759,-0.4779833,-0.50422317,-0.5238954,-0.5360836,-0.5426512,-0.54732484,-0.5492188,-0.55483943,-0.56137645,-0.56794405,-0.5735647,-0.5754586,-0.5735647,-0.57170135,-0.57170135,-0.5735647,-0.5735647,-0.5726483,-0.5670277,-0.56137645,-0.55856615,-0.55483943,-0.5529455,-0.5482719,-0.54451454,-0.5407573,-0.53794694,-0.5360836,-0.5314099,-0.5285996,-0.5276526,-0.5248423,-0.522979,-0.5182748,-0.5117071,-0.50422317,-0.4986025,-0.49579215,-0.49765557,-0.5014128,-0.50703347,-0.50984377,-0.50984377,-0.5088968,-0.5079804,-0.5088968,-0.5079804,-0.50608647,-0.5032762,-0.5014128,-0.5032762,-0.50608647,-0.50984377,-0.50984377,-0.5107907,-0.5107907,-0.51265407,-0.51641136,-0.51641136,-0.5145174,-0.5117071,-0.5079804,-0.50608647,-0.5032762,-0.50046587,-0.4986025,-0.49484527,-0.49484527,-0.49484527,-0.49579215,-0.49670857,-0.49579215,-0.49484527,-0.49298185,-0.4920349,-0.4910879,-0.4910879,-0.49017155,-0.48360395,-0.47046876,-0.45079654,-0.42831397,-0.40955812,-0.40112722,-0.3964535,-0.3842653,-0.35521513,-0.3120829,-0.2689811,-0.24368823,-0.24649853,-0.26711774,-0.2933576,-0.31021947,-0.3148932,-0.31302983,-0.3120829,-0.31865042,-0.33832264,-0.3758343,-0.42550367,-0.47703636,-0.51922166,-0.5426512,-0.5501352,-0.5482719,-0.5426512,-0.53794694,-0.5314099,-0.5285996,-0.5276526,-0.5276526,-0.529516,-0.5285996,-0.5332732,-0.5538925,-0.5876163,-0.6138867,-0.59888804,-0.50703347,-0.30835617,-0.015930295,0.32146072,0.6194767,0.7656745,0.73008716,0.49484515,0.11151159,-0.29146367,-0.6185604,-0.80694336,-0.8472348,-0.7881875,-0.6972798,-0.62323403,-0.5726483,-0.53794694,-0.5173278,-0.5051701,-0.50046587,-0.49765557,-0.49389827,-0.4892246,-0.4817406,-0.47517294,-0.4686054,-0.46298474,-0.45736408,-0.45079654,-0.4451759,-0.44050223,-0.43674493,-0.43393463,-0.4292304,-0.42455667,-0.419883,-0.41331547,-0.40861124,-0.40112722,-0.39174926,-0.38145494,-0.3674034,-0.35521513,-0.34208,-0.33083868,-0.32146078,-0.31116647,-0.29992515,-0.28492665,-0.26803416,-0.24836195,-0.22587937,-0.20244986,-0.17621005,-0.1480763,-0.11997312,-0.08997601,-0.0609259,-0.027171493,0.0065523386,0.03935969,0.07216716,0.10027027,0.12464678,0.14431906,0.16026449,0.17150581,0.17993677,0.18931472,0.19679868,0.19869256,0.19212496,0.17245269,0.1424557,0.10308063,0.055274725,0.0037419796,-0.052494943,-0.111542165,-0.17431611,-0.23617369,-0.2924106,-0.34583724,-0.39083284,-0.43112433,-0.46484816,-0.4920349,-0.5154644,-0.5314099,-0.54451454,-0.55575585,-0.5641868,-0.5735647,-0.57732195,-0.5782689,-0.5735647,-0.56794405,-0.5641868,-0.56232345,-0.56327033,-0.56137645,-0.55856615,-0.5538925,-0.54732484,-0.54356766,-0.54170424,-0.5407573,-0.5398409,-0.5360836,-0.5314099,-0.5267057,-0.522979,-0.5201381,-0.5154644,-0.5107907,-0.5079804,-0.50608647,-0.5088968,-0.50984377,-0.5117071,-0.51360106,-0.5117071,-0.50984377,-0.50703347,-0.50422317,-0.50422317,-0.5051701,-0.50703347,-0.50608647,-0.5051701,-0.5051701,-0.5032762,-0.5032762,-0.50235975,-0.5014128,-0.5014128,-0.50046587,-0.50046587,-0.49954945,-0.50046587,-0.5032762,-0.5079804,-0.51265407,-0.51360106,-0.50984377,-0.50608647,-0.5032762,-0.50422317,-0.50703347,-0.50984377,-0.5079804,-0.5051701,-0.5014128,-0.49765557,-0.49765557,-0.49765557,-0.4986025,-0.49954945,-0.4986025,-0.49670857,-0.49484527,-0.49298185,-0.4910879,-0.4892246,-0.4882776,-0.4854673,-0.4817406,-0.4779833,-0.47327906,-0.46955234,-0.4686054,-0.4686054,-0.47046876,-0.47236264,-0.47422606,-0.47608942,-0.47517294,-0.47327906,-0.47046876,-0.4686054,-0.46674204,-0.46203786,-0.4592275,-0.45736408,-0.45831108,-0.46112138,-0.46393174,-0.46298474,-0.4592275,-0.45641714,-0.45736408,-0.45736408,-0.4592275,-0.46017444,-0.45736408,-0.45641714,-0.45455378,-0.45174348,-0.44422895,-0.43017733,-0.41145205,-0.39083284,-0.3767507,-0.3711301,-0.3683198,-0.3505109,-0.31302983,-0.2605502,-0.21369112,-0.19493532,-0.20617658,-0.23617369,-0.26522386,-0.279306,-0.279306,-0.27460176,-0.27365482,-0.28773695,-0.32051378,-0.3702137,-0.4292304,-0.4817406,-0.5173278,-0.5314099,-0.5267057,-0.51641136,-0.50703347,-0.5051701,-0.50608647,-0.5079804,-0.5079804,-0.5032762,-0.50046587,-0.5079804,-0.53232634,-0.57170135,-0.60075146,-0.58480597,-0.4910879,-0.29146367,0.0065523386,0.36269915,0.6953857,0.88285255,0.88190544,0.66352534,0.27741206,-0.14340264,-0.4892246,-0.69541645,-0.7553801,-0.7150887,-0.6485574,-0.59699416,-0.56513375,-0.54170424,-0.5238954,-0.5117071,-0.50422317,-0.50046587,-0.4986025,-0.49579215,-0.4910879,-0.48265702,-0.47422606,-0.46298474,-0.45174348,-0.44236553,-0.435798,-0.43112433,-0.42831397,-0.42455667,-0.419883,-0.41331547,-0.40861124,-0.40393752,-0.40018022,-0.39550656,-0.38518173,-0.3739404,-0.36175215,-0.3514579,-0.34678417,-0.34021658,-0.33178568,-0.31959742,-0.30459887,-0.28773695,-0.27179146,-0.25398254,-0.23431033,-0.21182775,-0.18931472,-0.16493821,-0.14059234,-0.116215885,-0.08997601,-0.06187284,-0.029981852,0.0027951002,0.03468597,0.06559956,0.090892434,0.113405466,0.13121438,0.14526594,0.15837073,0.16680157,0.17431617,0.17526317,0.17055893,0.16307485,0.1480763,0.12559378,0.09183931,0.045927286,-0.004688978,-0.058115542,-0.10964829,-0.16212791,-0.21650141,-0.27084452,-0.32427108,-0.37207705,-0.41236848,-0.44703925,-0.47703636,-0.5014128,-0.522032,-0.53794694,-0.5492188,-0.55483943,-0.55856615,-0.55856615,-0.56137645,-0.5641868,-0.5670277,-0.56889105,-0.5660807,-0.56513375,-0.56232345,-0.5595131,-0.55856615,-0.55575585,-0.5538925,-0.5501352,-0.5464085,-0.5426512,-0.5370306,-0.53513664,-0.5332732,-0.5314099,-0.530463,-0.5276526,-0.52578926,-0.522979,-0.5201381,-0.51922166,-0.5173278,-0.5154644,-0.51360106,-0.51360106,-0.5145174,-0.5154644,-0.5145174,-0.51360106,-0.5117071,-0.5117071,-0.5117071,-0.51360106,-0.5107907,-0.5079804,-0.50608647,-0.50235975,-0.5014128,-0.50235975,-0.50235975,-0.50422317,-0.5051701,-0.50608647,-0.50703347,-0.50608647,-0.50608647,-0.5051701,-0.50422317,-0.5032762,-0.50235975,-0.50235975,-0.5051701,-0.5088968,-0.5107907,-0.5088968,-0.50422317,-0.50046587,-0.49954945,-0.50046587,-0.50422317,-0.50984377,-0.5145174,-0.51922166,-0.51922166,-0.5145174,-0.5079804,-0.4986025,-0.4920349,-0.4892246,-0.4892246,-0.4892246,-0.4873612,-0.4854673,-0.4845509,-0.4845509,-0.4873612,-0.4873612,-0.4845509,-0.48079365,-0.47517294,-0.47422606,-0.47422606,-0.47608942,-0.4789303,-0.47984672,-0.47984672,-0.4779833,-0.4779833,-0.47608942,-0.47517294,-0.47327906,-0.46765846,-0.46112138,-0.45455378,-0.45079654,-0.45174348,-0.45455378,-0.46017444,-0.46484816,-0.46484816,-0.46203786,-0.45736408,-0.45079654,-0.44893318,-0.4498496,-0.45174348,-0.4498496,-0.4451759,-0.44141865,-0.43955523,-0.43955523,-0.435798,-0.42736703,-0.41145205,-0.38988596,-0.3702137,-0.3542682,-0.3477006,-0.34208,-0.32240772,-0.28773695,-0.23898399,-0.19682926,-0.18274713,-0.19963956,-0.23431033,-0.2661708,-0.28116935,-0.279306,-0.26803416,-0.26149708,-0.2699281,-0.30084157,-0.35240483,-0.41426235,-0.47046876,-0.50422317,-0.5154644,-0.5088968,-0.4986025,-0.49017155,-0.4854673,-0.48265702,-0.4817406,-0.48079365,-0.47984672,-0.48265702,-0.49954945,-0.530463,-0.5641868,-0.57170135,-0.5182748,-0.37207705,-0.11716282,0.20993388,0.5585661,0.8078598,0.88095856,0.7516229,0.41704214,-0.0074992776,-0.40112722,-0.67855453,-0.80413306,-0.79756546,-0.7235196,-0.6438532,-0.57918537,-0.530463,-0.50046587,-0.4854673,-0.48079365,-0.4817406,-0.48265702,-0.48360395,-0.48079365,-0.47517294,-0.46674204,-0.45455378,-0.44141865,-0.43298763,-0.4264201,-0.42174637,-0.4170727,-0.40955812,-0.40112722,-0.3936432,-0.38988596,-0.3870756,-0.3842653,-0.3767507,-0.3645625,-0.3533212,-0.34397388,-0.33832264,-0.33364898,-0.32616502,-0.3177035,-0.3055458,-0.29054725,-0.27460176,-0.25492954,-0.23431033,-0.21369112,-0.19493532,-0.17621005,-0.1546439,-0.13121444,-0.10402763,-0.07497752,-0.048737705,-0.019687533,0.012172937,0.04122305,0.06746292,0.09183931,0.10964835,0.12745714,0.1471293,0.16307485,0.17712653,0.18742073,0.19212496,0.19307196,0.1902616,0.18180013,0.16588509,0.1405617,0.10683787,0.06465256,0.016877174,-0.035633028,-0.08811271,-0.145266,-0.20617658,-0.2624135,-0.31397676,-0.3570785,-0.39174926,-0.419883,-0.4451759,-0.46765846,-0.48360395,-0.49579215,-0.5051701,-0.51360106,-0.522032,-0.5314099,-0.5370306,-0.5407573,-0.54356766,-0.54356766,-0.54546154,-0.5464085,-0.5482719,-0.5501352,-0.5482719,-0.54732484,-0.5426512,-0.53794694,-0.5332732,-0.5285996,-0.5238954,-0.51641136,-0.5117071,-0.5079804,-0.5051701,-0.50422317,-0.5014128,-0.4986025,-0.49389827,-0.49017155,-0.4882776,-0.4854673,-0.4892246,-0.49389827,-0.49484527,-0.49670857,-0.49765557,-0.49954945,-0.5051701,-0.5088968,-0.5107907,-0.5088968,-0.50422317,-0.50046587,-0.4986025,-0.49765557,-0.4986025,-0.50046587,-0.4986025,-0.49765557,-0.49765557,-0.49579215,-0.49765557,-0.50046587,-0.50235975,-0.5032762,-0.50235975,-0.50046587,-0.49765557,-0.49484527,-0.49579215,-0.49765557,-0.4986025,-0.49765557,-0.49579215,-0.4920349,-0.49017155,-0.49484527,-0.50046587,-0.50235975,-0.5032762,-0.4986025,-0.49484527,-0.4920349,-0.4920349,-0.49389827,-0.49579215,-0.49765557,-0.49765557,-0.49484527,-0.49389827,-0.4920349,-0.4920349,-0.4920349,-0.49017155,-0.48641425,-0.48360395,-0.4817406,-0.47984672,-0.47984672,-0.47984672,-0.4817406,-0.4845509,-0.48360395,-0.47703636,-0.47236264,-0.46765846,-0.46579504,-0.46765846,-0.4686054,-0.46393174,-0.45360684,-0.43769187,-0.4170727,-0.39550656,-0.38050807,-0.3739404,-0.3674034,-0.34864753,-0.31116647,-0.26149708,-0.21836483,-0.20244986,-0.21744847,-0.24836195,-0.27554876,-0.285843,-0.28773695,-0.2839797,-0.28865337,-0.31116647,-0.3542682,-0.41426235,-0.47422606,-0.5154644,-0.5332732,-0.529516,-0.51922166,-0.5145174,-0.5154644,-0.51922166,-0.51922166,-0.51641136,-0.51360106,-0.5117071,-0.5201381,-0.5370306,-0.5670277,-0.59326744,-0.5876163,-0.5314099,-0.39083284,-0.15650731,0.1405617,0.44047165,0.64104295,0.6785239,0.530463,0.20150292,-0.19774562,-0.56232345,-0.81913155,-0.9259542,-0.9025247,-0.8088067,-0.7038474,-0.6148031,-0.5520291,-0.5117071,-0.4882776,-0.4779833,-0.46955234,-0.46765846,-0.46674204,-0.4592275,-0.45174348,-0.44236553,-0.43393463,-0.42736703,-0.42174637,-0.41612577,-0.40861124,-0.40207416,-0.39269626,-0.37956107,-0.3711301,-0.3636461,-0.35894185,-0.3542682,-0.34678417,-0.33832264,-0.33083868,-0.32802832,-0.32146078,-0.31302983,-0.30084157,-0.28492665,-0.2727384,-0.25773984,-0.23993093,-0.22025877,-0.19869262,-0.17993683,-0.16307491,-0.14621294,-0.12464678,-0.09935391,-0.06935692,-0.03654939,-0.004688978,0.024361134,0.049654126,0.07497752,0.09840691,0.122752905,0.1471293,0.16680157,0.18180013,0.19493532,0.20522964,0.21274412,0.21741784,0.21274412,0.20336628,0.18650436,0.16212785,0.13121438,0.09278631,0.045927286,-0.0074992776,-0.0674935,-0.13121444,-0.19493532,-0.25211924,-0.30084157,-0.34397388,-0.38050807,-0.41612577,-0.4498496,-0.48079365,-0.5088968,-0.530463,-0.5464085,-0.55483943,-0.55764973,-0.5604601,-0.56232345,-0.5670277,-0.5670277,-0.5660807,-0.5641868,-0.5604601,-0.55856615,-0.55670273,-0.5538925,-0.5520291,-0.5501352,-0.5501352,-0.5482719,-0.54451454,-0.54356766,-0.54170424,-0.54170424,-0.5426512,-0.54170424,-0.5398409,-0.53889394,-0.53889394,-0.53889394,-0.5370306,-0.5332732,-0.5276526,-0.522032,-0.5145174,-0.5088968,-0.50703347,-0.50703347,-0.5088968,-0.50984377,-0.50703347,-0.5051701,-0.5032762,-0.50422317,-0.50608647,-0.50608647,-0.5051701,-0.5051701,-0.50608647,-0.5079804,-0.5107907,-0.51360106,-0.5154644,-0.5154644,-0.5154644,-0.5145174,-0.5154644,-0.51641136,-0.5145174,-0.51265407,-0.51265407,-0.51265407,-0.5145174,-0.5154644,-0.51360106,-0.5107907,-0.50984377,-0.5107907,-0.5145174,-0.5182748,-0.5154644,-0.49954945,-0.47608942,-0.45360684,-0.43769187,-0.43393463,-0.43769187,-0.42831397,-0.39926386,-0.35521513,-0.30646223,-0.27554876,-0.27365482,-0.29708433,-0.32989174,-0.3533212,-0.35894185,-0.3505109,-0.34021658,-0.33926964,-0.36175215,-0.40769482,-0.46674204,-0.5238954,-0.56232345,-0.576375,-0.5735647,-0.5641868,-0.55670273,-0.5538925,-0.55575585,-0.55856615,-0.56232345,-0.5670277,-0.5670277,-0.5660807,-0.569838,-0.58669984,-0.61575,-0.62885463,-0.6026149,-0.5032762,-0.30740917,-0.035633028,0.26427686,0.5098437,0.62137055,0.5707544,0.32613444,-0.042170107,-0.42455667,-0.73757124,-0.91095567,-0.9390894,-0.8697173,-0.76665187,-0.67198694,-0.59794116,-0.5492188,-0.522979,-0.5107907,-0.50608647,-0.5032762,-0.50046587,-0.49484527,-0.48641425,-0.4789303,-0.47236264,-0.46955234,-0.46765846,-0.46579504,-0.46298474,-0.45736408,-0.4526599,-0.44612288,-0.43955523,-0.43488157,-0.42831397,-0.42269337,-0.41612577,-0.40674782,-0.3936432,-0.38331836,-0.3739404,-0.36175215,-0.34864753,-0.33459598,-0.31959742,-0.30835617,-0.29897827,-0.28679,-0.2689811,-0.24649853,-0.22306907,-0.19774562,-0.17339975,-0.1490233,-0.12464678,-0.09654361,-0.0674935,-0.035633028,-0.0037419796,0.028118491,0.059031844,0.08997607,0.115268946,0.13402474,0.1471293,0.15650725,0.16493821,0.17245269,0.17898977,0.17712653,0.16493821,0.14431906,0.11245847,0.0693568,0.020603895,-0.03373909,-0.08902907,-0.14340264,-0.20055598,-0.2567929,-0.31397676,-0.3664564,-0.41050512,-0.4479862,-0.4779833,-0.50608647,-0.5276526,-0.5426512,-0.55108213,-0.55483943,-0.55764973,-0.55856615,-0.55764973,-0.5538925,-0.55108213,-0.55108213,-0.5529455,-0.55575585,-0.55764973,-0.55856615,-0.56137645,-0.5660807,-0.56794405,-0.5670277,-0.56137645,-0.5529455,-0.5464085,-0.54356766,-0.5426512,-0.53889394,-0.53232634,-0.522979,-0.5182748,-0.5173278,-0.5182748,-0.5201381,-0.5173278,-0.51265407,-0.50984377,-0.5107907,-0.5154644,-0.522979,-0.5267057,-0.52578926,-0.5201381,-0.5173278,-0.51641136,-0.5182748,-0.522032,-0.522979,-0.5248423,-0.5248423,-0.5248423,-0.5248423,-0.5248423,-0.5248423,-0.5238954,-0.5238954,-0.522032,-0.522979,-0.5276526,-0.53232634,-0.53513664,-0.53794694,-0.53794694,-0.53794694,-0.5342202,-0.5267057,-0.51360106,-0.49298185,-0.47141576,-0.4526599,-0.43955523,-0.43393463,-0.42831397,-0.41145205,-0.37864465,-0.33364898,-0.2924106,-0.27084452,-0.27460176,-0.29708433,-0.32427108,-0.34302688,-0.3505109,-0.34959453,-0.34397388,-0.3448903,-0.35988885,-0.39550656,-0.44703925,-0.50235975,-0.5482719,-0.57075435,-0.5726483,-0.5641868,-0.55483943,-0.5501352,-0.55108213,-0.5520291,-0.5529455,-0.5529455,-0.55108213,-0.5520291,-0.55575585,-0.569838,-0.6016984,-0.631665,-0.63261193,-0.57075435,-0.41236848,-0.1546439,0.16399133,0.4854672,0.6981962,0.7460022,0.6007514,0.2680341,-0.13683504,-0.5032762,-0.74975944,-0.8434775,-0.81351095,-0.73195064,-0.6550945,-0.60075146,-0.5641868,-0.5407573,-0.52578926,-0.5201381,-0.5182748,-0.5173278,-0.5154644,-0.5088968,-0.49954945,-0.4892246,-0.48079365,-0.47517294,-0.47141576,-0.46674204,-0.46112138,-0.45360684,-0.4451759,-0.43674493,-0.43112433,-0.4264201,-0.419883,-0.41236848,-0.40207416,-0.38893896,-0.37864465,-0.3702137,-0.3664564,-0.36269915,-0.35613155,-0.34397388,-0.32521802,-0.30646223,-0.28865337,-0.2727384,-0.2567929,-0.23806763,-0.21555454,-0.19120866,-0.16777915,-0.14340264,-0.116215885,-0.08902907,-0.059978902,-0.029981852,-0.0018786788,0.027171493,0.058115482,0.08716571,0.11245847,0.12651014,0.13775146,0.14526594,0.1546439,0.16399133,0.16588509,0.15745425,0.1358881,0.10308063,0.06373608,0.017793536,-0.03187573,-0.086218715,-0.14340264,-0.19869262,-0.25211924,-0.29992515,-0.34583724,-0.38988596,-0.4320407,-0.47236264,-0.5051701,-0.5267057,-0.5398409,-0.5482719,-0.55575585,-0.56327033,-0.5660807,-0.5641868,-0.5604601,-0.55670273,-0.55670273,-0.55764973,-0.55670273,-0.5538925,-0.5492188,-0.54356766,-0.5407573,-0.53889394,-0.53794694,-0.5370306,-0.5342202,-0.530463,-0.5267057,-0.5238954,-0.5248423,-0.5238954,-0.5238954,-0.522979,-0.522979,-0.52578926,-0.5285996,-0.53232634,-0.5332732,-0.53232634,-0.5332732,-0.5342202,-0.5370306,-0.53889394,-0.53889394,-0.5370306,-0.5332732,-0.529516,-0.5267057,-0.5238954,-0.521085,-0.51641136,-0.5107907,-0.50703347,-0.50608647,-0.5079804,-0.50984377,-0.5088968,-0.5051701,-0.50235975,-0.5051701,-0.50984377,-0.51641136,-0.5201381,-0.521085,-0.522032,-0.5201381,-0.5182748,-0.51641136,-0.51641136,-0.51641136,-0.51641136,-0.5154644,-0.51360106,-0.51360106,-0.51641136,-0.51641136,-0.51265407,-0.5051701,-0.49954945,-0.49670857,-0.49484527,-0.49298185,-0.4892246,-0.4854673,-0.4873612,-0.49017155,-0.4920349,-0.4882776,-0.47422606,-0.45360684,-0.43017733,-0.40955812,-0.39831692,-0.39550656,-0.38893896,-0.3645625,-0.32616502,-0.2839797,-0.25587648,-0.25587648,-0.279306,-0.30835617,-0.32897532,-0.33459598,-0.32802832,-0.31584013,-0.31116647,-0.32335466,-0.35613155,-0.40769482,-0.46393174,-0.5107907,-0.5370306,-0.54170424,-0.53513664,-0.52578926,-0.521085,-0.521085,-0.5267057,-0.5332732,-0.5360836,-0.53794694,-0.5342202,-0.53232634,-0.5407573,-0.5641868,-0.59888804,-0.6138867,-0.576375,-0.45360684,-0.21931183,0.09651303,0.45079648,0.7366241,0.8622334,0.80223894,0.530463,0.13307774,-0.2624135,-0.56232345,-0.7141417,-0.73103416,-0.6747973,-0.6129397,-0.5735647,-0.54732484,-0.5285996,-0.5145174,-0.50608647,-0.50422317,-0.5014128,-0.4986025,-0.49484527,-0.49017155,-0.48641425,-0.48265702,-0.47608942,-0.46674204,-0.45641714,-0.44893318,-0.44331253,-0.43955523,-0.43674493,-0.43298763,-0.4264201,-0.41798913,-0.40861124,-0.39926386,-0.39269626,-0.38612866,-0.37864465,-0.3683198,-0.3570785,-0.3448903,-0.33459598,-0.32051378,-0.3055458,-0.29146367,-0.279306,-0.2699281,-0.25398254,-0.23336339,-0.20807052,-0.1808837,-0.1574542,-0.13402474,-0.10778493,-0.0759244,-0.042170107,-0.010309577,0.018740535,0.043117046,0.06559956,0.08716571,0.10964835,0.13213074,0.14993966,0.16307485,0.16869557,0.16869557,0.16588509,0.15556026,0.14337206,0.1236999,0.09559667,0.059031844,0.012172937,-0.03935969,-0.09278631,-0.14715993,-0.20055598,-0.25492954,-0.30740917,-0.3533212,-0.3936432,-0.42360973,-0.4498496,-0.47327906,-0.49484527,-0.51265407,-0.522032,-0.52578926,-0.5248423,-0.5238954,-0.529516,-0.5360836,-0.5398409,-0.53889394,-0.5332732,-0.5276526,-0.5238954,-0.521085,-0.5173278,-0.51265407,-0.50984377,-0.5079804,-0.5079804,-0.50703347,-0.50608647,-0.5051701,-0.50422317,-0.5032762,-0.5032762,-0.50235975,-0.50703347,-0.5117071,-0.51641136,-0.5182748,-0.51641136,-0.5154644,-0.5117071,-0.50984377,-0.5079804,-0.50703347,-0.5079804,-0.5117071,-0.5145174,-0.5154644,-0.51265407,-0.5079804,-0.5032762,-0.50046587,-0.4986025,-0.49765557,-0.49670857,-0.49389827,-0.4920349,-0.4910879,-0.49298185,-0.49670857,-0.4986025,-0.50046587,-0.50046587,-0.50046587,-0.5014128,-0.50235975,-0.50422317,-0.5032762,-0.5014128,-0.4986025,-0.49389827,-0.4920349,-0.49298185,-0.49484527,-0.49670857,-0.49670857,-0.49579215,-0.49389827,-0.49298185,-0.4920349,-0.49017155,-0.49017155,-0.49017155,-0.49389827,-0.49765557,-0.49765557,-0.49670857,-0.49389827,-0.4910879,-0.4892246,-0.48641425,-0.4854673,-0.4845509,-0.48265702,-0.4817406,-0.48079365,-0.47984672,-0.4779833,-0.47703636,-0.47608942,-0.47422606,-0.47236264,-0.46765846,-0.46112138,-0.45736408,-0.45550078,-0.45550078,-0.45736408,-0.45831108,-0.4592275,-0.46017444,-0.46203786,-0.46112138,-0.45641714,-0.4479862,-0.4292304,-0.40674782,-0.38518173,-0.3748874,-0.373024,-0.3655095,-0.33926964,-0.29054725,-0.23712063,-0.20431322,-0.20336628,-0.22774273,-0.2605502,-0.28303272,-0.2896003,-0.28303272,-0.27460176,-0.27460176,-0.2933576,-0.33551234,-0.3936432,-0.45455378,-0.50235975,-0.530463,-0.54170424,-0.5398409,-0.5370306,-0.5342202,-0.5360836,-0.53889394,-0.53889394,-0.5360836,-0.529516,-0.5285996,-0.54451454,-0.5782689,-0.6138867,-0.6185604,-0.5604601,-0.40580088,-0.14059234,0.20055592,0.5651337,0.8294258,0.91843975,0.8012922,0.474226,0.050601006,-0.3448903,-0.6251279,-0.74975944,-0.7450858,-0.67855453,-0.6185604,-0.58013225,-0.55483943,-0.53889394,-0.5285996,-0.52578926,-0.5276526,-0.5285996,-0.5248423,-0.5173278,-0.50984377,-0.5032762,-0.49765557,-0.49298185,-0.4845509,-0.47703636,-0.47046876,-0.46484816,-0.45736408,-0.44893318,-0.43955523,-0.43298763,-0.42736703,-0.42174637,-0.41331547,-0.40393752,-0.39269626,-0.38237137,-0.3739404,-0.36175215,-0.3505109,-0.33740628,-0.32427108,-0.31302983,-0.29992515,-0.2821163,-0.2624135,-0.23993093,-0.21931183,-0.20055598,-0.183694,-0.16402185,-0.13683504,-0.10683793,-0.0721671,-0.040306687,-0.012203515,0.014983296,0.03841281,0.061842322,0.081545115,0.09932339,0.117132306,0.13402474,0.14993966,0.16118085,0.16399133,0.16026449,0.15183353,0.13964534,0.119942546,0.093702674,0.058115482,0.014066815,-0.03373909,-0.084355414,-0.1386984,-0.19212502,-0.24555165,-0.2952209,-0.341133,-0.38331836,-0.42079943,-0.45360684,-0.47984672,-0.5032762,-0.522032,-0.5370306,-0.5492188,-0.55670273,-0.56137645,-0.56327033,-0.56137645,-0.5604601,-0.55764973,-0.55670273,-0.55575585,-0.55483943,-0.5529455,-0.5482719,-0.54170424,-0.5360836,-0.5314099,-0.529516,-0.530463,-0.5342202,-0.5370306,-0.5407573,-0.54451454,-0.54356766,-0.5426512,-0.54170424,-0.5398409,-0.5370306,-0.5332732,-0.5314099,-0.5314099,-0.53232634,-0.53513664,-0.5342202,-0.53232634,-0.5285996,-0.5238954,-0.522032,-0.521085,-0.521085,-0.522032,-0.5201381,-0.5173278,-0.51360106,-0.5117071,-0.51360106,-0.5182748,-0.522979,-0.5238954,-0.5238954,-0.5238954,-0.5238954,-0.5238954,-0.522032,-0.5201381,-0.5173278,-0.5154644,-0.51641136,-0.51641136,-0.51922166,-0.522979,-0.5238954,-0.522032,-0.5173278,-0.51265407,-0.5117071,-0.51360106,-0.5182748,-0.51922166,-0.51641136,-0.51360106,-0.5088968,-0.50608647,-0.50422317,-0.5014128,-0.49670857,-0.4920349,-0.49298185,-0.49579215,-0.50046587,-0.5014128,-0.49765557,-0.49298185,-0.48641425,-0.48360395,-0.48265702,-0.48079365,-0.4817406,-0.48079365,-0.4817406,-0.48265702,-0.4817406,-0.48079365,-0.4779833,-0.47517294,-0.47327906,-0.47046876,-0.4686054,-0.46674204,-0.46484816,-0.46484816,-0.46017444,-0.4479862,-0.4264201,-0.40112722,-0.38050807,-0.3702137,-0.3664564,-0.3533212,-0.32335466,-0.27741206,-0.22868973,-0.19963956,-0.20150292,-0.2267958,-0.25773984,-0.27554876,-0.2821163,-0.27741206,-0.27365482,-0.28303272,-0.30927253,-0.35521513,-0.41331547,-0.46955234,-0.5088968,-0.5267057,-0.5285996,-0.5238954,-0.51922166,-0.5182748,-0.5201381,-0.521085,-0.51922166,-0.51641136,-0.5107907,-0.5088968,-0.5238954,-0.55575585,-0.58856326,-0.5895102,-0.5238954,-0.3570785,-0.079681754,0.26708722,0.6185602,0.8509613,0.89971435,0.7375711,0.3776977,-0.054358304,-0.43955523,-0.70009017,-0.80413306,-0.78443027,-0.70852107,-0.631665,-0.5726483,-0.529516,-0.5014128,-0.4882776,-0.48265702,-0.48265702,-0.48079365,-0.47703636,-0.47236264,-0.46484816,-0.45736408,-0.44703925,-0.4386083,-0.4320407,-0.4264201,-0.42360973,-0.41893607,-0.41236848,-0.40488446,-0.39831692,-0.39174926,-0.3842653,-0.3767507,-0.36926675,-0.36175215,-0.3542682,-0.3477006,-0.34021658,-0.33459598,-0.32802832,-0.31865042,-0.30459887,-0.28679,-0.26522386,-0.24368823,-0.22493243,-0.20431322,-0.184641,-0.16212791,-0.1358881,-0.10778493,-0.07778782,-0.049684644,-0.021550894,0.004688859,0.029981732,0.054358363,0.07870412,0.10497451,0.13121438,0.1536969,0.17245269,0.183694,0.1902616,0.19588232,0.19869256,0.20241928,0.20055592,0.18931472,0.16680157,0.13402474,0.09464967,0.051547885,0.0037419796,-0.047790706,-0.10311127,-0.15840113,-0.21088082,-0.2596032,-0.3055458,-0.3505109,-0.38893896,-0.42550367,-0.45550078,-0.4789303,-0.49670857,-0.50703347,-0.51360106,-0.5182748,-0.5238954,-0.530463,-0.5370306,-0.54170424,-0.54546154,-0.54546154,-0.54356766,-0.53889394,-0.5332732,-0.5314099,-0.5314099,-0.530463,-0.52578926,-0.51922166,-0.5117071,-0.50422317,-0.50235975,-0.49954945,-0.49765557,-0.49765557,-0.49670857,-0.49670857,-0.49765557,-0.4986025,-0.5014128,-0.50422317,-0.5051701,-0.50422317,-0.50235975,-0.5032762,-0.50235975,-0.5032762,-0.50235975,-0.49954945,-0.49389827,-0.4882776,-0.4873612,-0.4854673,-0.48360395,-0.4854673,-0.4854673,-0.4882776,-0.49017155,-0.4920349,-0.49017155,-0.4892246,-0.4892246,-0.4882776,-0.49017155,-0.4920349,-0.49298185,-0.49484527,-0.49670857,-0.4986025,-0.5014128,-0.5014128,-0.49954945,-0.49389827,-0.4882776,-0.4845509,-0.48360395,-0.4854673,-0.4854673,-0.4845509,-0.4854673,-0.4845509,-0.48360395,-0.47984672,-0.47517294,-0.47046876,-0.4686054,-0.47141576,-0.47608942,-0.4779833,-0.4789303,-0.47608942,-0.46955234,-0.45831108,-0.4451759,-0.4292304,-0.41426235,-0.39926386,-0.3842653,-0.373024,-0.35802543,-0.33178568,-0.29427403,-0.25117224,-0.22493243,-0.22212213,-0.24368823,-0.27179146,-0.29146367,-0.29897827,-0.29992515,-0.30084157,-0.3120829,-0.34208,-0.39269626,-0.45455378,-0.5079804,-0.53889394,-0.5426512,-0.53513664,-0.529516,-0.530463,-0.53889394,-0.5426512,-0.54546154,-0.5464085,-0.54451454,-0.5407573,-0.5342202,-0.5332732,-0.5482719,-0.58013225,-0.60356176,-0.58856326,-0.50046587,-0.30740917,-0.02906543,0.29427397,0.57823837,0.7207093,0.6860386,0.4432819,0.052464366,-0.3636461,-0.70760465,-0.905335,-0.94938374,-0.8903365,-0.7909978,-0.6991432,-0.6251279,-0.569838,-0.5332732,-0.5107907,-0.50046587,-0.4920349,-0.48641425,-0.48265702,-0.47703636,-0.47236264,-0.46674204,-0.46112138,-0.45641714,-0.4498496,-0.44422895,-0.4386083,-0.4292304,-0.41893607,-0.40955812,-0.40207416,-0.39736992,-0.3936432,-0.38893896,-0.37956107,-0.36926675,-0.35894185,-0.3505109,-0.34583724,-0.33740628,-0.32708144,-0.3120829,-0.29708433,-0.28116935,-0.26803416,-0.25492954,-0.23617369,-0.21555454,-0.19120866,-0.16307491,-0.1358881,-0.11059523,-0.086218715,-0.0609259,-0.03187573,-0.0018786788,0.029034853,0.059031844,0.085271835,0.10964835,0.13213074,0.1536969,0.16964245,0.17807329,0.183694,0.18180013,0.17617953,0.16588509,0.1546439,0.13964534,0.11432183,0.07870412,0.029034853,-0.03282273,-0.09840703,-0.16026449,-0.21650141,-0.26711774,-0.31678712,-0.3645625,-0.40674782,-0.44703925,-0.47984672,-0.5079804,-0.530463,-0.54732484,-0.55764973,-0.56232345,-0.5660807,-0.57075435,-0.5754586,-0.58107924,-0.58575296,-0.5895102,-0.58856326,-0.58856326,-0.58669984,-0.5829426,-0.57918537,-0.5735647,-0.5670277,-0.56232345,-0.55764973,-0.55483943,-0.55575585,-0.55670273,-0.55856615,-0.55856615,-0.55575585,-0.5501352,-0.5492188,-0.5492188,-0.55108213,-0.5492188,-0.54170424,-0.53232634,-0.5248423,-0.5248423,-0.5285996,-0.5360836,-0.5407573,-0.54451454,-0.5464085,-0.54546154,-0.5426512,-0.5426512,-0.5426512,-0.54546154,-0.55108213,-0.55483943,-0.55856615,-0.55764973,-0.5538925,-0.5492188,-0.54451454,-0.5426512,-0.5398409,-0.53889394,-0.5407573,-0.5407573,-0.54356766,-0.54356766,-0.5426512,-0.54356766,-0.54451454,-0.54546154,-0.54356766,-0.53232634,-0.5154644,-0.49484527,-0.47422606,-0.46298474,-0.46203786,-0.46579504,-0.45360684,-0.42174637,-0.3683198,-0.31302983,-0.279306,-0.28116935,-0.31021947,-0.3448903,-0.36926675,-0.3739404,-0.3702137,-0.3664564,-0.3758343,-0.40393752,-0.44703925,-0.49954945,-0.5482719,-0.57918537,-0.59326744,-0.5923205,-0.5838896,-0.58107924,-0.58013225,-0.58013225,-0.58107924,-0.57918537,-0.5754586,-0.56889105,-0.5660807,-0.5660807,-0.57451165,-0.6016984,-0.63074857,-0.6391795,-0.59699416,-0.46765846,-0.23617369,0.059978962,0.36737287,0.58385897,0.6448002,0.5238954,0.21650147,-0.17993683,-0.5604601,-0.83880377,-0.9634353,-0.9503307,-0.8575596,-0.75070643,-0.65979874,-0.59418386,-0.55483943,-0.5332732,-0.522979,-0.5173278,-0.5154644,-0.51265407,-0.50984377,-0.50235975,-0.49765557,-0.49670857,-0.49484527,-0.49298185,-0.4845509,-0.47327906,-0.46484816,-0.45831108,-0.45736408,-0.45641714,-0.45079654,-0.44331253,-0.43112433,-0.4170727,-0.40861124,-0.40112722,-0.39550656,-0.39083284,-0.38331836,-0.3739404,-0.36175215,-0.34864753,-0.33459598,-0.3177035,-0.29992515,-0.27835906,-0.25587648,-0.23150003,-0.20807052,-0.18555743,-0.16307491,-0.13778204,-0.10964829,-0.080598116,-0.049684644,-0.017824113,0.012172937,0.03935969,0.06278932,0.07965112,0.093702674,0.10402763,0.11151159,0.118079185,0.12183654,0.120889544,0.115268946,0.10402763,0.081545115,0.047790647,0.007499337,-0.044063926,-0.09935391,-0.15650731,-0.21744847,-0.27554876,-0.33083868,-0.37956107,-0.42455667,-0.46674204,-0.50235975,-0.5360836,-0.56137645,-0.58107924,-0.59513086,-0.6016984,-0.6073191,-0.61012936,-0.6091825,-0.61012936,-0.61012936,-0.6119927,-0.61669695,-0.6185604,-0.61575,-0.6073191,-0.59794116,-0.5904572,-0.58856326,-0.5895102,-0.59137356,-0.5923205,-0.5904572,-0.5876163,-0.58575296,-0.5829426,-0.5829426,-0.5838896,-0.58480597,-0.5838896,-0.57732195,-0.56794405,-0.5595131,-0.55670273,-0.5604601,-0.5660807,-0.56794405,-0.5641868,-0.5595131,-0.55764973,-0.55670273,-0.55575585,-0.5538925,-0.55108213,-0.54732484,-0.54170424,-0.53889394,-0.5360836,-0.5360836,-0.5370306,-0.5398409,-0.5407573,-0.54170424,-0.54170424,-0.54356766,-0.54451454,-0.5464085,-0.54732484,-0.54356766,-0.5314099,-0.51360106,-0.49389827,-0.47608942,-0.46674204,-0.46393174,-0.45079654,-0.42269337,-0.37864465,-0.32989174,-0.30084157,-0.30084157,-0.32521802,-0.35613155,-0.3776977,-0.38518173,-0.3842653,-0.38331836,-0.39174926,-0.41612577,-0.45455378,-0.50422317,-0.5538925,-0.59137356,-0.6119927,-0.6129397,-0.6054251,-0.5960778,-0.5904572,-0.59137356,-0.5960778,-0.59888804,-0.60356176,-0.60356176,-0.60356176,-0.60356176,-0.6063721,-0.62323403,-0.65323114,-0.67104,-0.64947385,-0.55764973,-0.3674034,-0.09092295,0.22398555,0.50046587,0.6485269,0.62790775,0.40674782,0.03654945,-0.36269915,-0.6982268,-0.8950407,-0.94000584,-0.88190556,-0.78632414,-0.6991432,-0.63261193,-0.58575296,-0.5595131,-0.5482719,-0.54546154,-0.5492188,-0.55108213,-0.5492188,-0.54170424,-0.530463,-0.5201381,-0.5107907,-0.5032762,-0.49484527,-0.48641425,-0.4789303,-0.47141576,-0.4686054,-0.46484816,-0.46203786,-0.45831108,-0.45360684,-0.44893318,-0.44050223,-0.4292304,-0.41893607,-0.40769482,-0.39736992,-0.3870756,-0.373024,-0.35988885,-0.3477006,-0.33270204,-0.31678712,-0.29803127,-0.27741206,-0.25773984,-0.23898399,-0.21369112,-0.18555743,-0.15559083,-0.12183648,-0.09183937,-0.06187284,-0.03187573,-0.006552279,0.018740535,0.042170048,0.06559956,0.08716571,0.10402763,0.116215825,0.1236999,0.1293205,0.13402474,0.13307774,0.122752905,0.09746003,0.059031844,0.013119936,-0.040306687,-0.09559673,-0.15278053,-0.21182775,-0.2689811,-0.32146078,-0.3683198,-0.41050512,-0.44893318,-0.48265702,-0.5107907,-0.5342202,-0.5529455,-0.5670277,-0.57732195,-0.5838896,-0.58856326,-0.59513086,-0.6026149,-0.6073191,-0.6082355,-0.60356176,-0.5998045,-0.59699416,-0.59418386,-0.59326744,-0.5923205,-0.59137356,-0.5904572,-0.5876163,-0.58480597,-0.58107924,-0.57918537,-0.576375,-0.57451165,-0.57170135,-0.56794405,-0.5660807,-0.56327033,-0.56137645,-0.5604601,-0.5595131,-0.55856615,-0.55856615,-0.55764973,-0.55764973,-0.55670273,-0.55575585,-0.5529455,-0.55108213,-0.55108213,-0.5529455,-0.55483943,-0.55575585,-0.55575585,-0.55670273,-0.55575585,-0.55670273,-0.55764973,-0.55575585,-0.5538925,-0.5492188,-0.54732484,-0.5492188,-0.5520291,-0.55764973,-0.56327033,-0.56513375,-0.56513375,-0.56232345,-0.5604601,-0.5595131,-0.55764973,-0.55764973,-0.5529455,-0.54732484,-0.53889394,-0.529516,-0.5154644,-0.49954945,-0.4854673,-0.47422606,-0.46674204,-0.45360684,-0.4292304,-0.39736992,-0.3645625,-0.34302688,-0.33926964,-0.3477006,-0.36175215,-0.37207705,-0.3767507,-0.3748874,-0.3748874,-0.38050807,-0.40207416,-0.44141865,-0.49484527,-0.54732484,-0.58669984,-0.6063721,-0.6073191,-0.60075146,-0.59418386,-0.5904572,-0.5895102,-0.5904572,-0.59137356,-0.5904572,-0.5904572,-0.5876163,-0.58480597,-0.58669984,-0.5998045,-0.62980163,-0.663556,-0.67290336,-0.62323403,-0.47984672,-0.22868973,0.09840691,0.44609237,0.70009017,0.7881874,0.68133414,0.37488735,-0.03187573,-0.41798913,-0.6935226,-0.8181846,-0.80975366,-0.73757124,-0.67009306,-0.6269913,-0.6016984,-0.58480597,-0.5735647,-0.56513375,-0.5595131,-0.5538925,-0.5482719,-0.54546154,-0.53889394,-0.5314099,-0.522979,-0.5145174,-0.50703347,-0.50046587,-0.49484527,-0.4892246,-0.4845509,-0.48079365,-0.47608942,-0.47046876,-0.46579504,-0.46203786,-0.45736408,-0.4526599,-0.44422895,-0.435798,-0.42736703,-0.41798913,-0.40580088,-0.3936432,-0.37956107,-0.3636461,-0.34864753,-0.32897532,-0.30927253,-0.29146367,-0.27179146,-0.2502253,-0.22774273,-0.20150292,-0.17431611,-0.14434958,-0.111542165,-0.07778782,-0.044980407,-0.016877234,0.007499337,0.029034853,0.050601006,0.07216716,0.090892434,0.10497451,0.115268946,0.122752905,0.12745714,0.12651014,0.115268946,0.09278631,0.058115482,0.014983296,-0.03373909,-0.083408475,-0.13683504,-0.19026166,-0.24179429,-0.2933576,-0.34208,-0.38988596,-0.43393463,-0.47141576,-0.5014128,-0.5248423,-0.5426512,-0.55575585,-0.56513375,-0.57170135,-0.576375,-0.58107924,-0.5838896,-0.58480597,-0.58480597,-0.5819956,-0.576375,-0.569838,-0.56327033,-0.56137645,-0.56137645,-0.56137645,-0.55856615,-0.5520291,-0.5464085,-0.5426512,-0.54170424,-0.5398409,-0.53794694,-0.5370306,-0.5370306,-0.5398409,-0.5426512,-0.54546154,-0.54732484,-0.54732484,-0.5464085,-0.54356766,-0.5398409,-0.53794694,-0.5370306,-0.53794694,-0.53889394,-0.5398409,-0.5398409,-0.5370306,-0.5332732,-0.5276526,-0.522032,-0.5201381,-0.522979,-0.5267057,-0.5276526,-0.52578926,-0.522032,-0.5182748,-0.5173278,-0.5173278,-0.51641136,-0.5145174,-0.5117071,-0.5117071,-0.51265407,-0.5154644,-0.5182748,-0.5201381,-0.5201381,-0.51922166,-0.5173278,-0.51641136,-0.51641136,-0.5182748,-0.51922166,-0.5201381,-0.521085,-0.521085,-0.522032,-0.5201381,-0.51922166,-0.51641136,-0.51265407,-0.5117071,-0.50984377,-0.5088968,-0.5079804,-0.50608647,-0.50422317,-0.50235975,-0.49954945,-0.49670857,-0.49484527,-0.49389827,-0.4920349,-0.49017155,-0.4873612,-0.4854673,-0.4854673,-0.4854673,-0.4854673,-0.48360395,-0.48265702,-0.4817406,-0.4779833,-0.47327906,-0.4686054,-0.46393174,-0.46298474,-0.46298474,-0.46112138,-0.4592275,-0.45455378,-0.45174348,-0.4498496,-0.44612288,-0.43769187,-0.42360973,-0.40393752,-0.38237137,-0.3664564,-0.35802543,-0.3514579,-0.33364898,-0.29897827,-0.25117224,-0.20993394,-0.19307196,-0.20807052,-0.24087793,-0.27365482,-0.2896003,-0.28865337,-0.28116935,-0.27741206,-0.28679,-0.31397676,-0.3570785,-0.41236848,-0.46484816,-0.50422317,-0.522979,-0.5238954,-0.5182748,-0.5107907,-0.50703347,-0.5079804,-0.5117071,-0.51641136,-0.5201381,-0.5238954,-0.529516,-0.5482719,-0.5829426,-0.61012936,-0.5998045,-0.521085,-0.33740628,-0.049684644,0.30740917,0.66352534,0.8893895,0.9334382,0.75538015,0.38704515,-0.044980407,-0.42269337,-0.66541934,-0.74975944,-0.7169521,-0.6429368,-0.58575296,-0.5520291,-0.5342202,-0.521085,-0.51360106,-0.5107907,-0.5088968,-0.50703347,-0.5014128,-0.49484527,-0.4882776,-0.48079365,-0.47422606,-0.46484816,-0.45360684,-0.44422895,-0.4386083,-0.43674493,-0.43488157,-0.4320407,-0.42736703,-0.42174637,-0.41612577,-0.40955812,-0.40299058,-0.39550656,-0.38612866,-0.3776977,-0.3674034,-0.35613155,-0.34583724,-0.33551234,-0.32335466,-0.31021947,-0.29427403,-0.27646512,-0.25773984,-0.23993093,-0.21931183,-0.19493532,-0.16869551,-0.14059234,-0.113405526,-0.086218715,-0.05906254,-0.03187573,-0.0028256178,0.022497773,0.044980288,0.06559956,0.084355354,0.10121727,0.115268946,0.12745714,0.13683498,0.14431906,0.14902318,0.14902318,0.14431906,0.13213074,0.113405466,0.08716571,0.049654126,0.009362578,-0.03654939,-0.08530235,-0.13497174,-0.18650442,-0.23712063,-0.28679,-0.33364898,-0.3767507,-0.4170727,-0.44893318,-0.4779833,-0.5032762,-0.522032,-0.5342202,-0.5370306,-0.5360836,-0.5342202,-0.53513664,-0.53794694,-0.53794694,-0.53513664,-0.530463,-0.522979,-0.51641136,-0.51265407,-0.5107907,-0.5107907,-0.51265407,-0.5154644,-0.5145174,-0.51265407,-0.5088968,-0.5051701,-0.5032762,-0.50235975,-0.5032762,-0.5032762,-0.50235975,-0.5014128,-0.4986025,-0.49484527,-0.49017155,-0.4854673,-0.4845509,-0.48641425,-0.4920349,-0.49484527,-0.49484527,-0.49389827,-0.4910879,-0.4892246,-0.4882776,-0.48360395,-0.47703636,-0.47046876,-0.4686054,-0.46765846,-0.47046876,-0.47422606,-0.47327906,-0.47327906,-0.47327906,-0.47327906,-0.47517294,-0.47327906,-0.4686054,-0.46393174,-0.46203786,-0.46484816,-0.4686054,-0.47141576,-0.46955234,-0.46765846,-0.46765846,-0.46484816,-0.46393174,-0.46017444,-0.45641714,-0.45455378,-0.45174348,-0.45174348,-0.45174348,-0.4526599,-0.45550078,-0.45736408,-0.45831108,-0.45641714,-0.4526599,-0.45079654,-0.44703925,-0.4451759,-0.44331253,-0.44141865,-0.4386083,-0.43674493,-0.435798,-0.435798,-0.4386083,-0.44236553,-0.4451759,-0.4479862,-0.44893318,-0.4498496,-0.4498496,-0.44893318,-0.4479862,-0.44612288,-0.4451759,-0.44703925,-0.4479862,-0.45079654,-0.45079654,-0.44893318,-0.4451759,-0.44050223,-0.43955523,-0.43955523,-0.435798,-0.42736703,-0.40674782,-0.38237137,-0.3608358,-0.3448903,-0.341133,-0.33459598,-0.3148932,-0.279306,-0.23055309,-0.19212502,-0.17712653,-0.19026166,-0.21836483,-0.24179429,-0.25117224,-0.2446047,-0.23712063,-0.23431033,-0.24836195,-0.28679,-0.34208,-0.40580088,-0.45736408,-0.48641425,-0.4920349,-0.48079365,-0.47046876,-0.46765846,-0.46955234,-0.47608942,-0.4817406,-0.48360395,-0.4817406,-0.4817406,-0.49017155,-0.51360106,-0.5538925,-0.57732195,-0.5529455,-0.4451759,-0.22117513,0.09559667,0.46017444,0.7759993,0.9278176,0.88657916,0.6241809,0.21085024,-0.21836483,-0.56232345,-0.7544637,-0.79380816,-0.73103416,-0.6429368,-0.57170135,-0.521085,-0.4882776,-0.4686054,-0.46203786,-0.46017444,-0.4592275,-0.45736408,-0.45079654,-0.44422895,-0.4386083,-0.4320407,-0.42360973,-0.41426235,-0.40674782,-0.40112722,-0.39926386,-0.39926386,-0.39550656,-0.3870756,-0.3767507,-0.3645625,-0.3542682,-0.34397388,-0.33364898,-0.32521802,-0.31678712,-0.30835617,-0.29708433,-0.28679,-0.279306,-0.2689811,-0.25868678,-0.2446047,-0.2267958,-0.20807052,-0.18839824,-0.17058945,-0.1508866,-0.13121444,-0.11245859,-0.09183937,-0.06840992,-0.041253626,-0.011256516,0.020603895,0.052464366,0.07870412,0.10121727,0.120889544,0.13869846,0.15556026,0.16964245,0.17898977,0.183694,0.18650436,0.18742073,0.18650436,0.17993677,0.16307485,0.1358881,0.10216427,0.06373608,0.019687533,-0.03092879,-0.08530235,-0.1415087,-0.19682926,-0.24555165,-0.285843,-0.32335466,-0.35988885,-0.39550656,-0.42831397,-0.45831108,-0.47984672,-0.49298185,-0.49954945,-0.50235975,-0.5032762,-0.5051701,-0.5079804,-0.5117071,-0.51265407,-0.5107907,-0.50703347,-0.50235975,-0.50046587,-0.4986025,-0.49765557,-0.49670857,-0.49298185,-0.4910879,-0.4873612,-0.48360395,-0.4817406,-0.47984672,-0.48079365,-0.48360395,-0.4845509,-0.48265702,-0.48079365,-0.4779833,-0.4789303,-0.4817406,-0.48641425,-0.4882776,-0.4845509,-0.4779833,-0.47422606,-0.47703636,-0.47984672,-0.48360395,-0.4854673,-0.4854673,-0.4882776,-0.4882776,-0.4873612,-0.4845509,-0.4845509,-0.4854673,-0.48641425,-0.48360395,-0.4779833,-0.47236264,-0.47046876,-0.47046876,-0.47327906,-0.4779833,-0.48265702,-0.4873612,-0.4882776,-0.4882776,-0.4873612,-0.48641425,-0.4854673,-0.48360395,-0.4817406,-0.4779833,-0.4779833,-0.4779833,-0.4779833,-0.4789303,-0.47984672,-0.4817406,-0.48265702,-0.47984672,-0.47703636,-0.47327906,-0.47236264,-0.47327906,-0.47236264,-0.47422606,-0.47608942,-0.48079365,-0.4854673,-0.4873612,-0.48360395,-0.4779833,-0.47422606,-0.47236264,-0.46955234,-0.46017444,-0.44236553,-0.419883,-0.39926386,-0.38612866,-0.37956107,-0.3664564,-0.33926964,-0.29708433,-0.2502253,-0.22212213,-0.22212213,-0.247415,-0.28116935,-0.30459887,-0.30835617,-0.30084157,-0.29427403,-0.29708433,-0.3177035,-0.35988885,-0.41426235,-0.47141576,-0.51265407,-0.5314099,-0.5332732,-0.52578926,-0.521085,-0.521085,-0.522979,-0.522979,-0.522979,-0.522979,-0.522032,-0.5248423,-0.53513664,-0.5595131,-0.5838896,-0.58480597,-0.529516,-0.3767507,-0.12183648,0.19588232,0.5060866,0.6981962,0.7169521,0.5407573,0.18650436,-0.22960609,-0.60356176,-0.8566127,-0.9512777,-0.9193866,-0.8247522,-0.7197624,-0.63074857,-0.5604601,-0.51922166,-0.5032762,-0.50235975,-0.5051701,-0.5014128,-0.49017155,-0.47517294,-0.46203786,-0.45360684,-0.44612288,-0.44141865,-0.4386083,-0.4320407,-0.42455667,-0.41331547,-0.40207416,-0.3964535,-0.3936432,-0.39174926,-0.38518173,-0.3758343,-0.3655095,-0.35894185,-0.3542682,-0.34959453,-0.34397388,-0.33459598,-0.32146078,-0.30835617,-0.2933576,-0.27835906,-0.26430744,-0.24649853,-0.22587937,-0.20336628,-0.1780734,-0.1518336,-0.12935102,-0.10964829,-0.08716571,-0.0609259,-0.03282273,-0.0018786788,0.025308132,0.047790647,0.06746292,0.08902907,0.11245847,0.13402474,0.15650725,0.17336905,0.18461049,0.18931472,0.18461049,0.17617953,0.16026449,0.13964534,0.116215825,0.086218715,0.049654126,0.0027951002,-0.054358304,-0.119026184,-0.184641,-0.24555165,-0.30178857,-0.35240483,-0.3964535,-0.43488157,-0.46393174,-0.48641425,-0.5079804,-0.5248423,-0.53889394,-0.5464085,-0.5501352,-0.55575585,-0.56327033,-0.57170135,-0.57451165,-0.57170135,-0.56889105,-0.5670277,-0.5726483,-0.5782689,-0.5819956,-0.58013225,-0.57170135,-0.56232345,-0.5520291,-0.5464085,-0.5464085,-0.5482719,-0.5501352,-0.5482719,-0.54356766,-0.5370306,-0.53232634,-0.53232634,-0.53232634,-0.5314099,-0.529516,-0.5248423,-0.5182748,-0.51265407,-0.50703347,-0.50703347,-0.50984377,-0.5145174,-0.5154644,-0.5145174,-0.51265407,-0.51265407,-0.51360106,-0.5117071,-0.5117071,-0.5107907,-0.50984377,-0.51265407,-0.51265407,-0.51265407,-0.5145174,-0.5173278,-0.5201381,-0.521085,-0.522032,-0.5238954,-0.522979,-0.522979,-0.51922166,-0.5182748,-0.5182748,-0.5173278,-0.5182748,-0.5173278,-0.5154644,-0.5107907,-0.50235975,-0.4854673,-0.46579504,-0.44612288,-0.43017733,-0.42455667,-0.42269337,-0.40769482,-0.3758343,-0.32897532,-0.2839797,-0.26430744,-0.2727384,-0.29992515,-0.32802832,-0.34208,-0.34397388,-0.33740628,-0.33364898,-0.34397388,-0.3748874,-0.42831397,-0.48641425,-0.53794694,-0.57075435,-0.57918537,-0.5754586,-0.5726483,-0.57075435,-0.5735647,-0.57732195,-0.576375,-0.57170135,-0.56513375,-0.5595131,-0.55856615,-0.57170135,-0.59888804,-0.631665,-0.6438532,-0.6054251,-0.4882776,-0.27179146,0.014983296,0.32146072,0.55670273,0.6448002,0.5576191,0.27179146,-0.12373042,-0.5145174,-0.81632125,-0.9634353,-0.96251893,-0.8762849,-0.76665187,-0.67198694,-0.5998045,-0.55575585,-0.5370306,-0.5342202,-0.5360836,-0.5332732,-0.5267057,-0.5154644,-0.50422317,-0.49579215,-0.4873612,-0.48265702,-0.4817406,-0.47984672,-0.4779833,-0.47046876,-0.46393174,-0.45641714,-0.44703925,-0.43674493,-0.42550367,-0.41426235,-0.40861124,-0.40299058,-0.39550656,-0.3870756,-0.37864465,-0.3664564,-0.3533212,-0.34021658,-0.32708144,-0.3148932,-0.30459887,-0.2924106,-0.27460176,-0.25398254,-0.23241639,-0.20898688,-0.183694,-0.15840113,-0.12935102,-0.10030091,-0.0721671,-0.041253626,-0.009362698,0.021550894,0.048737645,0.07216716,0.09464967,0.11151159,0.12840414,0.1405617,0.14526594,0.1471293,0.14621294,0.14431906,0.1349411,0.115268946,0.081545115,0.03373909,-0.024361193,-0.086218715,-0.14715993,-0.20617658,-0.2633605,-0.31678712,-0.3664564,-0.41145205,-0.45079654,-0.48641425,-0.5154644,-0.54170424,-0.5604601,-0.5754586,-0.5829426,-0.5876163,-0.5923205,-0.59699416,-0.6026149,-0.6063721,-0.6073191,-0.6091825,-0.6091825,-0.6082355,-0.6073191,-0.60450876,-0.6026149,-0.60356176,-0.6026149,-0.59888804,-0.59326744,-0.58856326,-0.5876163,-0.58669984,-0.58480597,-0.57918537,-0.57170135,-0.5641868,-0.55856615,-0.55575585,-0.55670273,-0.5604601,-0.56327033,-0.56327033,-0.5595131,-0.55483943,-0.5520291,-0.5501352,-0.5482719,-0.54732484,-0.5464085,-0.54732484,-0.5482719,-0.5492188,-0.5501352,-0.5492188,-0.55108213,-0.5538925,-0.55575585,-0.55764973,-0.55856615,-0.5595131,-0.56137645,-0.56232345,-0.55856615,-0.5529455,-0.54732484,-0.54546154,-0.5464085,-0.54546154,-0.53794694,-0.5238954,-0.5014128,-0.4789303,-0.46484816,-0.45831108,-0.45360684,-0.435798,-0.40018022,-0.3514579,-0.31021947,-0.2933576,-0.30459887,-0.33178568,-0.35613155,-0.3655095,-0.36269915,-0.35613155,-0.3570785,-0.373024,-0.40488446,-0.45079654,-0.5051701,-0.5529455,-0.58480597,-0.5960778,-0.59513086,-0.5904572,-0.58856326,-0.58856326,-0.58856326,-0.58856326,-0.58575296,-0.5829426,-0.58013225,-0.57732195,-0.5829426,-0.60075146,-0.63261193,-0.65604144,-0.6410429,-0.5595131,-0.37956107,-0.10964829,0.20898688,0.49857187,0.65790474,0.6448002,0.4254731,0.047790647,-0.36175215,-0.70665777,-0.90722895,-0.9512777,-0.88752615,-0.78351384,-0.6916592,-0.62604433,-0.5838896,-0.56137645,-0.5501352,-0.54451454,-0.5370306,-0.529516,-0.5238954,-0.5154644,-0.50984377,-0.50703347,-0.49954945,-0.4910879,-0.4789303,-0.4686054,-0.46298474,-0.46112138,-0.4592275,-0.45550078,-0.4498496,-0.44050223,-0.43112433,-0.42079943,-0.40955812,-0.40018022,-0.39174926,-0.3842653,-0.3767507,-0.3674034,-0.3570785,-0.34678417,-0.33832264,-0.32708144,-0.31116647,-0.29146367,-0.26711774,-0.24368823,-0.22025877,-0.19212502,-0.16212791,-0.1302675,-0.09935391,-0.06935692,-0.041253626,-0.014066935,0.014066815,0.042170048,0.07122016,0.09746003,0.119026065,0.13402474,0.1424557,0.1471293,0.14993966,0.1480763,0.14337206,0.13307774,0.11432183,0.08716571,0.047790647,-0.0028256178,-0.0609259,-0.120889485,-0.1780734,-0.23241639,-0.285843,-0.33645934,-0.3870756,-0.43298763,-0.47141576,-0.50235975,-0.5248423,-0.54170424,-0.5538925,-0.5641868,-0.57170135,-0.5754586,-0.57732195,-0.576375,-0.5735647,-0.57170135,-0.569838,-0.57170135,-0.57170135,-0.5735647,-0.5735647,-0.57170135,-0.569838,-0.56327033,-0.55764973,-0.5501352,-0.54451454,-0.5426512,-0.54356766,-0.54451454,-0.54356766,-0.5398409,-0.53513664,-0.530463,-0.529516,-0.529516,-0.5285996,-0.5276526,-0.52578926,-0.5276526,-0.5276526,-0.5248423,-0.521085,-0.51641136,-0.5145174,-0.51360106,-0.51360106,-0.51360106,-0.5145174,-0.5145174,-0.5173278,-0.5173278,-0.5182748,-0.5173278,-0.51922166,-0.51922166,-0.51641136,-0.51360106,-0.50984377,-0.50703347,-0.50608647,-0.50703347,-0.5088968,-0.50984377,-0.51265407,-0.5154644,-0.5201381,-0.5238954,-0.5248423,-0.5248423,-0.522979,-0.5201381,-0.5145174,-0.50235975,-0.4854673,-0.46579504,-0.4451759,-0.42831397,-0.41893607,-0.41145205,-0.3936432,-0.3636461,-0.32240772,-0.285843,-0.2699281,-0.27741206,-0.29897827,-0.31959742,-0.33083868,-0.33364898,-0.33178568,-0.33270204,-0.34208,-0.3674034,-0.41145205,-0.46484816,-0.5182748,-0.55575585,-0.5726483,-0.57451165,-0.5670277,-0.55856615,-0.55483943,-0.5520291,-0.55108213,-0.55108213,-0.5529455,-0.5529455,-0.55108213,-0.5520291,-0.5604601,-0.58575296,-0.6204237,-0.63074857,-0.58669984,-0.4526599,-0.20993394,0.10778487,0.45265985,0.71133137,0.8050494,0.7038474,0.39923334,-0.008446217,-0.39736992,-0.67290336,-0.79570204,-0.78443027,-0.70760465,-0.6363692,-0.59137356,-0.5670277,-0.5538925,-0.54451454,-0.5407573,-0.5370306,-0.5314099,-0.52578926,-0.51922166,-0.5154644,-0.5117071,-0.5079804,-0.50046587,-0.4920349,-0.4845509,-0.4779833,-0.47141576,-0.46484816,-0.45641714,-0.44703925,-0.4386083,-0.4320407,-0.4264201,-0.41798913,-0.41050512,-0.40299058,-0.39736992,-0.39083284,-0.38237137,-0.3739404,-0.3608358,-0.3477006,-0.33270204,-0.3148932,-0.29427403,-0.2727384,-0.2530356,-0.23431033,-0.21463817,-0.19401896,-0.16964245,-0.14059234,-0.10964829,-0.07684088,-0.045927286,-0.015930295,0.010309577,0.03560245,0.059031844,0.080598116,0.09932339,0.11432183,0.12651014,0.13683498,0.14337206,0.14621294,0.1424557,0.13402474,0.117132306,0.08902907,0.051547885,0.0009317398,-0.055305243,-0.113405526,-0.16964245,-0.22306907,-0.27365482,-0.32146078,-0.3674034,-0.41145205,-0.44893318,-0.4789303,-0.50422317,-0.522979,-0.53794694,-0.5520291,-0.56137645,-0.5670277,-0.5660807,-0.56232345,-0.55764973,-0.55575585,-0.55575585,-0.55483943,-0.55483943,-0.55483943,-0.55483943,-0.5538925,-0.5529455,-0.55108213,-0.54732484,-0.54451454,-0.54170424,-0.53794694,-0.5360836,-0.5370306,-0.5398409,-0.5407573,-0.5407573,-0.53889394,-0.5360836,-0.5332732,-0.5314099,-0.530463,-0.530463,-0.5314099,-0.5332732,-0.5332732,-0.53232634,-0.5314099,-0.529516,-0.530463,-0.5285996,-0.5276526,-0.52578926,-0.522979,-0.522979,-0.5201381,-0.5173278,-0.51641136,-0.5173278,-0.51922166,-0.51922166,-0.51641136,-0.5107907,-0.50608647,-0.50608647,-0.5107907,-0.51360106,-0.5154644,-0.51641136,-0.5154644,-0.5145174,-0.51360106,-0.51360106,-0.51360106,-0.51265407,-0.5107907,-0.50703347,-0.50422317,-0.50422317,-0.50608647,-0.50984377,-0.51265407,-0.51360106,-0.51265407,-0.5107907,-0.5051701,-0.49670857,-0.4910879,-0.4873612,-0.4882776,-0.4892246,-0.4873612,-0.4845509,-0.4817406,-0.4817406,-0.4817406,-0.4817406,-0.48265702,-0.48265702,-0.4817406,-0.4789303,-0.47517294,-0.47141576,-0.46955234,-0.47141576,-0.47422606,-0.47327906,-0.47141576,-0.46579504,-0.46203786,-0.45831108,-0.45641714,-0.45641714,-0.45736408,-0.45550078,-0.44703925,-0.43112433,-0.40955812,-0.3870756,-0.36926675,-0.35988885,-0.34959453,-0.32989174,-0.2952209,-0.25211924,-0.21463817,-0.19963956,-0.21182775,-0.23993093,-0.26711774,-0.28116935,-0.279306,-0.2727384,-0.27179146,-0.28865337,-0.32616502,-0.38050807,-0.43769187,-0.4845509,-0.51265407,-0.51922166,-0.51265407,-0.5032762,-0.49670857,-0.49484527,-0.49579215,-0.49765557,-0.50046587,-0.50235975,-0.5051701,-0.51360106,-0.5332732,-0.56794405,-0.5904572,-0.5726483,-0.4779833,-0.27365482,0.030928731,0.3945595,0.7328974,0.92125,0.9193866,0.6916592,0.2924105,-0.1415087,-0.4986025,-0.70760465,-0.76381105,-0.71789896,-0.64666355,-0.59137356,-0.5538925,-0.5285996,-0.5079804,-0.49765557,-0.49298185,-0.49298185,-0.49389827,-0.49389827,-0.4910879,-0.4854673,-0.47703636,-0.46674204,-0.4592275,-0.45360684,-0.45079654,-0.44893318,-0.44612288,-0.44141865,-0.43488157,-0.42455667,-0.41331547,-0.40207416,-0.39174926,-0.38518173,-0.37956107,-0.3739404,-0.3645625,-0.35240483,-0.34021658,-0.32427108,-0.3055458,-0.29054725,-0.27741206,-0.2689811,-0.2596032,-0.24555165,-0.22493243,-0.20244986,-0.17712653,-0.14997023,-0.12373042,-0.09746009,-0.0721671,-0.048737705,-0.022497833,0.00560534,0.03468597,0.06092596,0.083408356,0.10308063,0.119026065,0.13307774,0.14431906,0.1546439,0.16026449,0.16307485,0.16118085,0.15650725,0.14431906,0.12559378,0.09840691,0.059978962,0.013119936,-0.040306687,-0.09278631,-0.14340264,-0.19212502,-0.23993093,-0.2896003,-0.33740628,-0.38145494,-0.4170727,-0.44703925,-0.47327906,-0.49484527,-0.50984377,-0.5201381,-0.5248423,-0.530463,-0.5398409,-0.54732484,-0.5501352,-0.5464085,-0.5398409,-0.5342202,-0.5332732,-0.5370306,-0.53794694,-0.5370306,-0.5342202,-0.5285996,-0.5238954,-0.5182748,-0.51360106,-0.5088968,-0.50422317,-0.5014128,-0.49670857,-0.49579215,-0.49484527,-0.49484527,-0.49389827,-0.4910879,-0.4892246,-0.4892246,-0.4910879,-0.49389827,-0.49765557,-0.49954945,-0.50046587,-0.5014128,-0.50235975,-0.5032762,-0.50235975,-0.49954945,-0.49579215,-0.4910879,-0.4892246,-0.4892246,-0.4910879,-0.49389827,-0.49484527,-0.49389827,-0.4920349,-0.4910879,-0.4920349,-0.49389827,-0.49484527,-0.49579215,-0.49579215,-0.49579215,-0.49670857,-0.49765557,-0.49954945,-0.4986025,-0.49484527,-0.49017155,-0.48641425,-0.4892246,-0.49389827,-0.49765557,-0.49765557,-0.49484527,-0.4920349,-0.49017155,-0.49017155,-0.4920349,-0.49017155,-0.4882776,-0.48641425,-0.4845509,-0.48265702,-0.4817406,-0.48265702,-0.48265702,-0.4845509,-0.4845509,-0.48265702,-0.4817406,-0.47608942,-0.46955234,-0.4686054,-0.4686054,-0.47236264,-0.47608942,-0.47608942,-0.47327906,-0.46955234,-0.46955234,-0.47327906,-0.4779833,-0.4789303,-0.47422606,-0.4686054,-0.46112138,-0.45455378,-0.44703925,-0.43112433,-0.41050512,-0.38799202,-0.3711301,-0.3674034,-0.3636461,-0.3448903,-0.30646223,-0.25211924,-0.20431322,-0.18555743,-0.20055598,-0.23617369,-0.2689811,-0.2839797,-0.28116935,-0.27084452,-0.26803416,-0.28492665,-0.32335466,-0.38050807,-0.43955523,-0.48265702,-0.50422317,-0.50608647,-0.49954945,-0.49765557,-0.50235975,-0.50608647,-0.50984377,-0.5107907,-0.5107907,-0.5088968,-0.5051701,-0.5051701,-0.5182748,-0.5501352,-0.57918537,-0.5735647,-0.4986025,-0.31678712,-0.029981852,0.32051373,0.66352534,0.8725276,0.8912834,0.6916592,0.30270493,-0.1386984,-0.5201381,-0.76289463,-0.84537137,-0.8050494,-0.7160356,-0.6354222,-0.576375,-0.53794694,-0.5154644,-0.5032762,-0.49579215,-0.4892246,-0.48265702,-0.47608942,-0.46955234,-0.46298474,-0.45360684,-0.44331253,-0.4320407,-0.4264201,-0.42269337,-0.42360973,-0.42455667,-0.41893607,-0.40861124,-0.3964535,-0.3870756,-0.3842653,-0.38331836,-0.38050807,-0.3748874,-0.36269915,-0.34864753,-0.33459598,-0.32146078,-0.30927253,-0.29897827,-0.2933576,-0.28773695,-0.27835906,-0.26522386,-0.24368823,-0.21650141,-0.18839824,-0.16402185,-0.1415087,-0.12278342,-0.10216433,-0.07403052,-0.044063926,-0.010309577,0.021550894,0.047790647,0.07216716,0.09278631,0.11432183,0.13213074,0.14431906,0.15183353,0.1546439,0.15745425,0.16118085,0.16212785,0.1593175,0.14993966,0.13026738,0.10216427,0.06092596,0.011225939,-0.044063926,-0.09840703,-0.15278053,-0.20807052,-0.26149708,-0.31116647,-0.35521513,-0.3936432,-0.42736703,-0.45736408,-0.4845509,-0.50703347,-0.52578926,-0.5398409,-0.55108213,-0.56137645,-0.5641868,-0.5660807,-0.56513375,-0.56232345,-0.56137645,-0.56137645,-0.56232345,-0.5604601,-0.5529455,-0.5464085,-0.54170424,-0.5407573,-0.54356766,-0.54451454,-0.5426512,-0.5398409,-0.5370306,-0.5360836,-0.5314099,-0.5276526,-0.522979,-0.5182748,-0.5173278,-0.51641136,-0.5182748,-0.5182748,-0.5182748,-0.51641136,-0.51360106,-0.5145174,-0.5145174,-0.5154644,-0.51641136,-0.51360106,-0.50984377,-0.50422317,-0.50046587,-0.49954945,-0.50046587,-0.5032762,-0.5079804,-0.50984377,-0.5107907,-0.50608647,-0.49954945,-0.49389827,-0.49484527,-0.5032762,-0.51360106,-0.521085,-0.522032,-0.51922166,-0.51641136,-0.51641136,-0.5201381,-0.522032,-0.521085,-0.51922166,-0.5145174,-0.51265407,-0.5107907,-0.5088968,-0.50703347,-0.50235975,-0.49954945,-0.49765557,-0.4986025,-0.49954945,-0.5032762,-0.5079804,-0.5117071,-0.5154644,-0.51360106,-0.50608647,-0.49954945,-0.49484527,-0.49017155,-0.4845509,-0.47046876,-0.4498496,-0.42550367,-0.40488446,-0.39174926,-0.38612866,-0.373024,-0.34678417,-0.30835617,-0.26803416,-0.24649853,-0.2530356,-0.27646512,-0.29992515,-0.31116647,-0.30927253,-0.3027355,-0.3027355,-0.31959742,-0.35613155,-0.41145205,-0.47141576,-0.51922166,-0.5426512,-0.54546154,-0.5370306,-0.5314099,-0.5314099,-0.530463,-0.529516,-0.5285996,-0.5267057,-0.52578926,-0.522979,-0.521085,-0.522979,-0.5407573,-0.57075435,-0.5904572,-0.5726483,-0.4854673,-0.29897827,-0.018740594,0.30740917,0.5951308,0.74694896,0.7141417,0.473279,0.08246148,-0.33551234,-0.67855453,-0.87723184,-0.91752326,-0.8528554,-0.74975944,-0.6541781,-0.5829426,-0.5314099,-0.50046587,-0.48641425,-0.47608942,-0.46579504,-0.4526599,-0.4386083,-0.42455667,-0.41612577,-0.41612577,-0.41893607,-0.42174637,-0.42079943,-0.41517878,-0.40861124,-0.40112722,-0.3964535,-0.3936432,-0.38893896,-0.38237137,-0.37207705,-0.36269915,-0.3533212,-0.34678417,-0.341133,-0.33364898,-0.31959742,-0.29992515,-0.28116935,-0.2633605,-0.25117224,-0.24368823,-0.23525733,-0.22306907,-0.20807052,-0.18274713,-0.1536969,-0.12278342,-0.09278631,-0.06840992,-0.049684644,-0.029981852,-0.005635917,0.024361134,0.059031844,0.09278631,0.119026065,0.13683498,0.14993966,0.16118085,0.17712653,0.19117808,0.20336628,0.20993388,0.20431328,0.19493532,0.18461049,0.16774845,0.1471293,0.11245847,0.061842322,-0.0018786788,-0.0703038,-0.13497174,-0.18931472,-0.23712063,-0.285843,-0.33364898,-0.37956107,-0.419883,-0.4479862,-0.46674204,-0.48360395,-0.4986025,-0.51360106,-0.5332732,-0.5482719,-0.55856615,-0.5604601,-0.55764973,-0.55483943,-0.55856615,-0.56232345,-0.56232345,-0.55575585,-0.54451454,-0.5360836,-0.5342202,-0.53513664,-0.53513664,-0.53513664,-0.5332732,-0.5342202,-0.5360836,-0.53794694,-0.53513664,-0.530463,-0.522979,-0.5173278,-0.5145174,-0.51360106,-0.51641136,-0.5182748,-0.5173278,-0.5154644,-0.51360106,-0.51265407,-0.5145174,-0.5154644,-0.5145174,-0.51360106,-0.51360106,-0.51641136,-0.5173278,-0.5182748,-0.5145174,-0.50984377,-0.5079804,-0.50984377,-0.5173278,-0.5201381,-0.521085,-0.5201381,-0.5201381,-0.5201381,-0.5201381,-0.5173278,-0.5145174,-0.51360106,-0.51360106,-0.51360106,-0.5145174,-0.51641136,-0.5173278,-0.5173278,-0.5079804,-0.4892246,-0.46579504,-0.44703925,-0.43488157,-0.43112433,-0.4292304,-0.4170727,-0.38518173,-0.33832264,-0.28865337,-0.2567929,-0.2567929,-0.28022242,-0.3120829,-0.33551234,-0.34583724,-0.34678417,-0.3448903,-0.35894185,-0.39455962,-0.45079654,-0.5145174,-0.56232345,-0.58480597,-0.58575296,-0.57918537,-0.576375,-0.576375,-0.5754586,-0.56794405,-0.5604601,-0.55670273,-0.5538925,-0.55670273,-0.55856615,-0.5595131,-0.56794405,-0.59137356,-0.624181,-0.6354222,-0.6026149,-0.48360395,-0.26149708,0.03279209,0.35145783,0.5960473,0.69446933,0.6119927,0.32521796,-0.0731141,-0.47141576,-0.7788096,-0.92784816,-0.92784816,-0.8406672,-0.73195064,-0.63731617,-0.5660807,-0.522032,-0.5014128,-0.49670857,-0.50235975,-0.5079804,-0.5088968,-0.5032762,-0.49298185,-0.4817406,-0.47046876,-0.46203786,-0.4526599,-0.44236553,-0.43298763,-0.42550367,-0.42079943,-0.41798913,-0.41517878,-0.40861124,-0.39736992,-0.38893896,-0.37956107,-0.3711301,-0.3645625,-0.35894185,-0.3514579,-0.34208,-0.33178568,-0.31959742,-0.30646223,-0.29146367,-0.2727384,-0.25398254,-0.23712063,-0.21836483,-0.19774562,-0.17245275,-0.1415087,-0.11059523,-0.080598116,-0.051548004,-0.020634532,0.00560534,0.029034853,0.050601006,0.07216716,0.09651303,0.118079185,0.1349411,0.1471293,0.15183353,0.15745425,0.16307485,0.16680157,0.16774845,0.15745425,0.13307774,0.09464967,0.043117046,-0.013119876,-0.0721671,-0.12654072,-0.1818307,-0.23617369,-0.2896003,-0.34302688,-0.39083284,-0.43488157,-0.46955234,-0.49579215,-0.51360106,-0.522032,-0.5267057,-0.53232634,-0.5398409,-0.55108213,-0.5595131,-0.5641868,-0.5670277,-0.56794405,-0.569838,-0.56513375,-0.56137645,-0.55764973,-0.55483943,-0.55483943,-0.5538925,-0.5520291,-0.5482719,-0.54546154,-0.54546154,-0.5464085,-0.54732484,-0.54732484,-0.54356766,-0.53794694,-0.53232634,-0.530463,-0.529516,-0.5285996,-0.5267057,-0.5248423,-0.5276526,-0.5276526,-0.5276526,-0.5267057,-0.521085,-0.5182748,-0.5154644,-0.5154644,-0.51641136,-0.51641136,-0.51922166,-0.522032,-0.5201381,-0.5173278,-0.51265407,-0.5107907,-0.5145174,-0.51922166,-0.522979,-0.522032,-0.51641136,-0.5117071,-0.50608647,-0.4986025,-0.4845509,-0.46674204,-0.4479862,-0.43488157,-0.42736703,-0.41236848,-0.38518173,-0.34583724,-0.30365193,-0.27835906,-0.28022242,-0.30365193,-0.33178568,-0.34959453,-0.3533212,-0.34583724,-0.34021658,-0.3448903,-0.3683198,-0.41050512,-0.46393174,-0.5173278,-0.55670273,-0.57732195,-0.5819956,-0.57918537,-0.5754586,-0.57451165,-0.57732195,-0.58013225,-0.58107924,-0.58013225,-0.5754586,-0.57170135,-0.5670277,-0.5641868,-0.5754586,-0.60356176,-0.631665,-0.63261193,-0.5726483,-0.41517878,-0.16026449,0.15745425,0.47046876,0.67666054,0.7150886,0.5482718,0.19774556,-0.22025877,-0.59513086,-0.83975077,-0.92033356,-0.87533796,-0.7750829,-0.6747973,-0.5998045,-0.5529455,-0.529516,-0.5201381,-0.51360106,-0.5051701,-0.49579215,-0.4882776,-0.48265702,-0.4779833,-0.47327906,-0.46579504,-0.45736408,-0.45079654,-0.44331253,-0.43674493,-0.4320407,-0.43112433,-0.43112433,-0.42736703,-0.42079943,-0.41050512,-0.40112722,-0.39174926,-0.38518173,-0.37864465,-0.37207705,-0.36269915,-0.3505109,-0.33740628,-0.32521802,-0.3120829,-0.2961679,-0.27835906,-0.2530356,-0.22868973,-0.20526022,-0.18274713,-0.16026449,-0.13683504,-0.113405526,-0.08997601,-0.06559962,-0.038443327,-0.006552279,0.024361134,0.051547885,0.07308352,0.090892434,0.10683787,0.119026065,0.12745714,0.13121438,0.1349411,0.1415087,0.14337206,0.13683498,0.11245847,0.07403052,0.027171493,-0.024361193,-0.07684088,-0.12935102,-0.18745136,-0.2446047,-0.30084157,-0.3533212,-0.39831692,-0.435798,-0.46955234,-0.4986025,-0.522979,-0.5426512,-0.55764973,-0.5660807,-0.57170135,-0.5735647,-0.57732195,-0.58107924,-0.5819956,-0.58107924,-0.57732195,-0.5726483,-0.569838,-0.569838,-0.569838,-0.56889105,-0.5660807,-0.5604601,-0.5538925,-0.5492188,-0.5464085,-0.54451454,-0.54546154,-0.5426512,-0.5398409,-0.5360836,-0.5342202,-0.5332732,-0.529516,-0.5276526,-0.52578926,-0.5248423,-0.5276526,-0.5276526,-0.5285996,-0.5267057,-0.5248423,-0.521085,-0.5173278,-0.51641136,-0.5201381,-0.5267057,-0.5314099,-0.5332732,-0.53232634,-0.530463,-0.5285996,-0.529516,-0.5276526,-0.5276526,-0.52578926,-0.522979,-0.521085,-0.5201381,-0.522032,-0.522979,-0.522032,-0.5201381,-0.5173278,-0.51641136,-0.5154644,-0.5107907,-0.5014128,-0.48360395,-0.46484816,-0.44703925,-0.43769187,-0.43393463,-0.42174637,-0.3936432,-0.3542682,-0.31397676,-0.2924106,-0.2952209,-0.3148932,-0.33551234,-0.34864753,-0.35240483,-0.34864753,-0.3448903,-0.3477006,-0.36269915,-0.39736992,-0.4479862,-0.5032762,-0.5492188,-0.57451165,-0.58013225,-0.5735647,-0.5641868,-0.5604601,-0.56327033,-0.5660807,-0.56513375,-0.5604601,-0.5538925,-0.5492188,-0.55108213,-0.55856615,-0.58013225,-0.6148031,-0.64666355,-0.6419898,-0.56889105,-0.39455962,-0.119026184,0.21650147,0.5482718,0.7591374,0.7938082,0.6185602,0.2548989,-0.16777915,-0.5332732,-0.7591374,-0.8247522,-0.77413595,-0.6869855,-0.6195073,-0.5782689,-0.5529455,-0.53794694,-0.52578926,-0.5173278,-0.51265407,-0.50984377,-0.5088968,-0.5079804,-0.50422317,-0.5014128,-0.49670857,-0.49298185,-0.4882776,-0.4789303,-0.46765846,-0.45455378,-0.44422895,-0.43488157,-0.42736703,-0.419883,-0.41426235,-0.40955812,-0.40580088,-0.40112722,-0.3936432,-0.3842653,-0.3748874,-0.3636461,-0.3505109,-0.33926964,-0.32427108,-0.30740917,-0.2896003,-0.27084452,-0.25211924,-0.23241639,-0.21088082,-0.18650442,-0.15931761,-0.1330778,-0.10592157,-0.079681754,-0.051548004,-0.023444831,0.0037419796,0.030928731,0.057168603,0.083408356,0.10778487,0.12559378,0.13775146,0.14431906,0.15088665,0.15650725,0.15745425,0.14902318,0.12840414,0.09559667,0.054358363,0.0027951002,-0.051548004,-0.10964829,-0.16683215,-0.22025877,-0.27179146,-0.31959742,-0.3664564,-0.40769482,-0.44236553,-0.47327906,-0.49765557,-0.5173278,-0.5314099,-0.5407573,-0.5464085,-0.5501352,-0.55483943,-0.55483943,-0.55108213,-0.54732484,-0.54356766,-0.5426512,-0.54356766,-0.5426512,-0.53794694,-0.5332732,-0.53232634,-0.530463,-0.5285996,-0.5276526,-0.5238954,-0.522032,-0.521085,-0.51922166,-0.5182748,-0.5173278,-0.5182748,-0.5201381,-0.51922166,-0.5182748,-0.51641136,-0.5173278,-0.5182748,-0.5173278,-0.5173278,-0.51360106,-0.5117071,-0.5107907,-0.5079804,-0.50984377,-0.5145174,-0.521085,-0.5248423,-0.522979,-0.5173278,-0.50984377,-0.50703347,-0.5088968,-0.5117071,-0.51360106,-0.5154644,-0.5154644,-0.51360106,-0.5117071,-0.5107907,-0.51360106,-0.5182748,-0.522032,-0.5201381,-0.51641136,-0.5107907,-0.5079804,-0.50703347,-0.50703347,-0.5088968,-0.50984377,-0.51265407,-0.5154644,-0.5154644,-0.5145174,-0.5117071,-0.50984377,-0.50608647,-0.50235975,-0.5014128,-0.49954945,-0.4986025,-0.49765557,-0.49389827,-0.4920349,-0.49017155,-0.49017155,-0.4910879,-0.4910879,-0.4910879,-0.4910879,-0.49298185,-0.49298185,-0.4910879,-0.4882776,-0.4845509,-0.4779833,-0.46484816,-0.4451759,-0.42269337,-0.40299058,-0.3936432,-0.39083284,-0.38050807,-0.3542682,-0.31302983,-0.2699281,-0.2446047,-0.24555165,-0.26803416,-0.2952209,-0.31397676,-0.32146078,-0.32051378,-0.3177035,-0.32521802,-0.3505109,-0.3936432,-0.44893318,-0.50235975,-0.53794694,-0.5501352,-0.54356766,-0.529516,-0.521085,-0.51922166,-0.522032,-0.52578926,-0.5276526,-0.52578926,-0.5248423,-0.521085,-0.5182748,-0.5248423,-0.5464085,-0.58575296,-0.61761343,-0.6063721,-0.51922166,-0.32240772,-0.025308132,0.33083868,0.67009294,0.86971736,0.88657916,0.68322814,0.30270493,-0.118079185,-0.46579504,-0.67290336,-0.7291403,-0.68603855,-0.6213707,-0.5782689,-0.5520291,-0.5332732,-0.51922166,-0.5107907,-0.50608647,-0.5051701,-0.50235975,-0.49484527,-0.4845509,-0.47517294,-0.46765846,-0.46112138,-0.45641714,-0.4526599,-0.44612288,-0.43955523,-0.43298763,-0.42831397,-0.42269337,-0.41893607,-0.41798913,-0.4170727,-0.41612577,-0.41236848,-0.40393752,-0.39269626,-0.38050807,-0.36926675,-0.3570785,-0.3448903,-0.33083868,-0.3148932,-0.30178857,-0.28865337,-0.2727384,-0.25492954,-0.23150003,-0.20807052,-0.184641,-0.16121155,-0.13683504,-0.10778493,-0.07778782,-0.047790706,-0.021550894,0.0027951002,0.026224494,0.047790647,0.07027328,0.093702674,0.115268946,0.13402474,0.1471293,0.1536969,0.15556026,0.1546439,0.15183353,0.1424557,0.12464678,0.09559667,0.059978962,0.018740535,-0.02625513,-0.0721671,-0.11997312,-0.17058945,-0.22306907,-0.27554876,-0.32616502,-0.373024,-0.41426235,-0.4479862,-0.47517294,-0.49579215,-0.50984377,-0.521085,-0.5276526,-0.53232634,-0.5342202,-0.53232634,-0.53232634,-0.53232634,-0.5342202,-0.5370306,-0.5370306,-0.5360836,-0.529516,-0.522979,-0.5145174,-0.5088968,-0.5079804,-0.5088968,-0.5107907,-0.5088968,-0.5051701,-0.5014128,-0.49954945,-0.49954945,-0.50235975,-0.5051701,-0.50703347,-0.5051701,-0.50235975,-0.49670857,-0.4910879,-0.4882776,-0.4873612,-0.4882776,-0.4892246,-0.49017155,-0.4910879,-0.4910879,-0.49298185,-0.49389827,-0.49579215,-0.49670857,-0.49670857,-0.49954945,-0.5032762,-0.50608647,-0.5088968,-0.5088968,-0.50984377,-0.5088968,-0.5079804,-0.50703347,-0.5051701,-0.50422317,-0.5051701,-0.5051701,-0.5051701,-0.50422317,-0.50422317,-0.5032762,-0.5014128,-0.4986025,-0.49484527,-0.4910879,-0.49017155,-0.4892246,-0.4910879,-0.4920349,-0.49298185,-0.49298185,-0.49389827,-0.49484527,-0.49484527,-0.49579215,-0.49670857,-0.49579215,-0.49579215,-0.49484527,-0.49298185,-0.49298185,-0.49389827,-0.49579215,-0.49670857,-0.49670857,-0.49298185,-0.4892246,-0.48641425,-0.48360395,-0.4845509,-0.4845509,-0.4854673,-0.48641425,-0.4854673,-0.48641425,-0.4854673,-0.4873612,-0.49017155,-0.49017155,-0.4892246,-0.48360395,-0.4779833,-0.47422606,-0.47517294,-0.4789303,-0.4817406,-0.48360395,-0.48360395,-0.4817406,-0.48079365,-0.47984672,-0.4779833,-0.47422606,-0.46579504,-0.4498496,-0.42736703,-0.40488446,-0.38988596,-0.38237137,-0.3748874,-0.3533212,-0.3120829,-0.2624135,-0.22212213,-0.20898688,-0.2267958,-0.2605502,-0.2933576,-0.30835617,-0.30835617,-0.30178857,-0.30365193,-0.32335466,-0.3674034,-0.4292304,-0.4892246,-0.5342202,-0.55575585,-0.5538925,-0.54356766,-0.5314099,-0.52578926,-0.522032,-0.522032,-0.5238954,-0.5238954,-0.52578926,-0.5285996,-0.53232634,-0.54732484,-0.5726483,-0.6082355,-0.624181,-0.5904572,-0.47608942,-0.247415,0.07497752,0.44798613,0.76756823,0.9175234,0.86504364,0.5866693,0.16588509,-0.25773984,-0.5838896,-0.7525698,-0.77694625,-0.7150887,-0.6410429,-0.5895102,-0.55483943,-0.5314099,-0.5145174,-0.5051701,-0.50235975,-0.5014128,-0.50046587,-0.49670857,-0.4910879,-0.4854673,-0.4789303,-0.47327906,-0.46484816,-0.45736408,-0.44893318,-0.44141865,-0.435798,-0.43112433,-0.4264201,-0.419883,-0.41331547,-0.40769482,-0.40207416,-0.3964535,-0.39083284,-0.38050807,-0.3702137,-0.3570785,-0.34208,-0.32802832,-0.31584013,-0.30459887,-0.29146367,-0.27741206,-0.2624135,-0.2446047,-0.2267958,-0.20807052,-0.18650442,-0.16493821,-0.13778204,-0.108731866,-0.07778782,-0.046874344,-0.018740594,0.008415699,0.03468597,0.058115482,0.07684088,0.09278631,0.10683787,0.119026065,0.13121438,0.1405617,0.14526594,0.14526594,0.1415087,0.1349411,0.12183654,0.10216427,0.07497752,0.03841281,-0.004688978,-0.054358304,-0.10778493,-0.16121155,-0.21274424,-0.2624135,-0.30927253,-0.35521513,-0.3964535,-0.4320407,-0.46017444,-0.4789303,-0.49484527,-0.50703347,-0.5182748,-0.5285996,-0.53794694,-0.54451454,-0.54732484,-0.54732484,-0.54356766,-0.5398409,-0.53889394,-0.53889394,-0.5398409,-0.5398409,-0.5360836,-0.53232634,-0.52578926,-0.522979,-0.522032,-0.522032,-0.52578926,-0.5276526,-0.529516,-0.529516,-0.5285996,-0.5276526,-0.5276526,-0.5267057,-0.5248423,-0.5238954,-0.5248423,-0.52578926,-0.5276526,-0.5285996,-0.5285996,-0.5276526,-0.52578926,-0.5248423,-0.521085,-0.51922166,-0.51922166,-0.51922166,-0.51922166,-0.5201381,-0.522979,-0.52578926,-0.5285996,-0.53232634,-0.5342202,-0.53513664,-0.5360836,-0.5370306,-0.5370306,-0.53794694,-0.5370306,-0.53794694,-0.5360836,-0.5332732,-0.530463,-0.5285996,-0.5276526,-0.5267057,-0.52578926,-0.5238954,-0.521085,-0.51922166,-0.51922166,-0.5182748,-0.5173278,-0.51641136,-0.5145174,-0.5117071,-0.5117071,-0.5145174,-0.5182748,-0.522979,-0.522032,-0.51641136,-0.50984377,-0.50422317,-0.5032762,-0.5032762,-0.5032762,-0.50235975,-0.5014128,-0.50046587,-0.49954945,-0.4986025,-0.4986025,-0.49954945,-0.5014128,-0.5014128,-0.49954945,-0.49579215,-0.4910879,-0.4892246,-0.4892246,-0.4910879,-0.4910879,-0.4920349,-0.49389827,-0.4892246,-0.48265702,-0.4686054,-0.44893318,-0.43017733,-0.41612577,-0.40674782,-0.39926386,-0.3842653,-0.35802543,-0.31584013,-0.2689811,-0.23431033,-0.22774273,-0.24930888,-0.2839797,-0.3120829,-0.32335466,-0.31865042,-0.3120829,-0.3148932,-0.33832264,-0.3842653,-0.44422895,-0.5032762,-0.54170424,-0.55670273,-0.5520291,-0.5407573,-0.53513664,-0.5360836,-0.54170424,-0.5464085,-0.5501352,-0.5520291,-0.55108213,-0.5501352,-0.55108213,-0.56232345,-0.5904572,-0.6251279,-0.63355887,-0.58480597,-0.44236553,-0.18650442,0.15088665,0.51357055,0.78537714,0.87628496,0.75538015,0.42079937,-0.017824113,-0.4292304,-0.7197624,-0.8500451,-0.8406672,-0.76100075,-0.6747973,-0.6119927,-0.56889105,-0.5407573,-0.52578926,-0.51922166,-0.5182748,-0.5173278,-0.51360106,-0.5051701,-0.49484527,-0.48641425,-0.47984672,-0.47517294,-0.46955234,-0.46298474,-0.45360684,-0.4479862,-0.44141865,-0.43674493,-0.4320407,-0.42550367,-0.41893607,-0.41145205,-0.40299058,-0.39269626,-0.38050807,-0.3702137,-0.36175215,-0.35613155,-0.34959453,-0.34021658,-0.32802832,-0.31116647,-0.2952209,-0.27741206,-0.26149708,-0.24368823,-0.22025877,-0.19401896,-0.16588521,-0.13778204,-0.111542165,-0.08530235,-0.06187284,-0.03654939,-0.009362698,0.017793536,0.04403341,0.06746292,0.086218715,0.10121727,0.11245847,0.12464678,0.1349411,0.14337206,0.1480763,0.14621294,0.1415087,0.1293205,0.11245847,0.08716571,0.051547885,0.007499337,-0.045927286,-0.10216433,-0.15931761,-0.21463817,-0.26711774,-0.31865042,-0.3645625,-0.40580088,-0.44331253,-0.47422606,-0.5032762,-0.5267057,-0.54356766,-0.55483943,-0.5604601,-0.5641868,-0.5670277,-0.56889105,-0.57170135,-0.5735647,-0.5754586,-0.5754586,-0.5754586,-0.5726483,-0.5670277,-0.56232345,-0.55764973,-0.55575585,-0.55575585,-0.55575585,-0.55575585,-0.5538925,-0.55108213,-0.5492188,-0.5464085,-0.54451454,-0.5426512,-0.5398409,-0.53889394,-0.53794694,-0.5360836,-0.53232634,-0.5285996,-0.5248423,-0.5201381,-0.5201381,-0.51922166,-0.5201381,-0.521085,-0.521085,-0.521085,-0.522032,-0.522979,-0.5248423,-0.5238954,-0.522032,-0.521085,-0.521085,-0.522979,-0.5248423,-0.5267057,-0.5285996,-0.5314099,-0.53513664,-0.5370306,-0.53794694,-0.53232634,-0.5285996,-0.5248423,-0.522032,-0.521085,-0.51922166,-0.5173278,-0.5145174,-0.51265407,-0.5117071,-0.5088968,-0.50703347,-0.50703347,-0.5107907,-0.5145174,-0.5145174,-0.5154644,-0.5145174,-0.5154644,-0.5182748,-0.5201381,-0.522032,-0.522979,-0.521085,-0.5201381,-0.5182748,-0.5154644,-0.51265407,-0.50984377,-0.50984377,-0.5107907,-0.5117071,-0.50984377,-0.50703347,-0.5032762,-0.5014128,-0.50235975,-0.5051701,-0.50703347,-0.50608647,-0.50046587,-0.49298185,-0.47984672,-0.46112138,-0.44141865,-0.42079943,-0.40769482,-0.39736992,-0.37956107,-0.34678417,-0.30084157,-0.25587648,-0.23241639,-0.23898399,-0.26522386,-0.2952209,-0.31397676,-0.31678712,-0.30927253,-0.30459887,-0.31397676,-0.3448903,-0.39926386,-0.46298474,-0.5182748,-0.5529455,-0.56513375,-0.56232345,-0.55483943,-0.5492188,-0.54546154,-0.54451454,-0.54546154,-0.54546154,-0.54546154,-0.5407573,-0.5370306,-0.54356766,-0.5641868,-0.6016984,-0.6269913,-0.6119927,-0.521085,-0.32146078,-0.024361193,0.33175516,0.66541934,0.8509613,0.8416141,0.6026149,0.1902616,-0.2567929,-0.62323403,-0.8350465,-0.88660973,-0.8266156,-0.73103416,-0.64947385,-0.5904572,-0.5501352,-0.5285996,-0.5201381,-0.5154644,-0.5088968,-0.49954945,-0.4892246,-0.47984672,-0.47046876,-0.46298474,-0.45455378,-0.44703925,-0.44331253,-0.44141865,-0.43769187,-0.43393463,-0.42550367,-0.41517878,-0.40580088,-0.39736992,-0.3936432,-0.39174926,-0.39083284,-0.38612866,-0.3748874,-0.36175215,-0.34678417,-0.33459598,-0.32521802,-0.3148932,-0.30365193,-0.285843,-0.26803416,-0.24836195,-0.2267958,-0.20712352,-0.18555743,-0.16588521,-0.14621294,-0.12559372,-0.10402763,-0.07684088,-0.044980407,-0.011256516,0.022497773,0.052464366,0.07778776,0.09559667,0.11059511,0.12745714,0.1424557,0.15650725,0.16680157,0.17526317,0.17712653,0.17431617,0.16588509,0.14526594,0.115268946,0.07965112,0.03654945,-0.0074992776,-0.057168603,-0.10964829,-0.16307491,-0.21555454,-0.26711774,-0.3177035,-0.3683198,-0.41612577,-0.45641714,-0.48641425,-0.5032762,-0.5145174,-0.522979,-0.53232634,-0.5407573,-0.5492188,-0.55670273,-0.56137645,-0.56513375,-0.5641868,-0.56232345,-0.55856615,-0.55575585,-0.55483943,-0.5520291,-0.55108213,-0.5501352,-0.54732484,-0.54732484,-0.5426512,-0.53889394,-0.5398409,-0.5398409,-0.5398409,-0.53889394,-0.5360836,-0.5332732,-0.5285996,-0.5248423,-0.5201381,-0.51641136,-0.51265407,-0.51265407,-0.51360106,-0.51265407,-0.51265407,-0.51265407,-0.51265407,-0.5145174,-0.5182748,-0.522979,-0.5276526,-0.53232634,-0.5332732,-0.5285996,-0.5248423,-0.521085,-0.5173278,-0.521085,-0.52578926,-0.5314099,-0.5360836,-0.5407573,-0.5426512,-0.5426512,-0.54451454,-0.54451454,-0.5407573,-0.53232634,-0.522032,-0.51360106,-0.5088968,-0.50984377,-0.5117071,-0.50984377,-0.5088968,-0.50608647,-0.5051701,-0.50608647,-0.50608647,-0.50608647,-0.5032762,-0.50235975,-0.5014128,-0.50046587,-0.5032762,-0.5051701,-0.50608647,-0.50235975,-0.4892246,-0.4686054,-0.44612288,-0.4264201,-0.41612577,-0.40769482,-0.39083284,-0.35802543,-0.3120829,-0.26803416,-0.2446047,-0.2502253,-0.27460176,-0.30084157,-0.31865042,-0.32335466,-0.32146078,-0.32521802,-0.3448903,-0.38612866,-0.44141865,-0.49954945,-0.54546154,-0.56794405,-0.569838,-0.56137645,-0.55764973,-0.55670273,-0.5604601,-0.56327033,-0.5604601,-0.55108213,-0.54451454,-0.53889394,-0.53889394,-0.5407573,-0.5492188,-0.576375,-0.6054251,-0.61012936,-0.55670273,-0.40955812,-0.16026449,0.15275002,0.4610908,0.6616621,0.6991432,0.53700006,0.18931472,-0.22493243,-0.5960778,-0.8472348,-0.94000584,-0.906282,-0.81537426,-0.71884596,-0.63731617,-0.57451165,-0.5360836,-0.5173278,-0.5032762,-0.49579215,-0.4892246,-0.48079365,-0.47327906,-0.46484816,-0.45736408,-0.4526599,-0.44893318,-0.44236553,-0.43298763,-0.42455667,-0.41517878,-0.41145205,-0.41236848,-0.41145205,-0.40674782,-0.3964535,-0.38145494,-0.3664564,-0.3542682,-0.3477006,-0.34021658,-0.33083868,-0.32335466,-0.31116647,-0.29708433,-0.28116935,-0.2633605,-0.24649853,-0.23055309,-0.21836483,-0.20244986,-0.184641,-0.16212791,-0.13402474,-0.10311127,-0.07122022,-0.040306687,-0.012203515,0.014066815,0.040306687,0.06559956,0.08997607,0.11151159,0.1293205,0.14526594,0.16118085,0.17245269,0.17993677,0.18555737,0.18555737,0.17807329,0.16680157,0.14431906,0.11245847,0.07216716,0.025308132,-0.025308132,-0.07778782,-0.13402474,-0.19026166,-0.247415,-0.3027355,-0.3542682,-0.39831692,-0.43955523,-0.47422606,-0.50046587,-0.5201381,-0.5360836,-0.5501352,-0.5660807,-0.57918537,-0.58856326,-0.5923205,-0.5923205,-0.5895102,-0.58480597,-0.5782689,-0.57451165,-0.57732195,-0.58107924,-0.5838896,-0.5819956,-0.57170135,-0.56232345,-0.5595131,-0.55856615,-0.55764973,-0.55764973,-0.5538925,-0.5501352,-0.54732484,-0.5464085,-0.5464085,-0.54546154,-0.54356766,-0.5370306,-0.530463,-0.5238954,-0.5248423,-0.5276526,-0.5276526,-0.5276526,-0.522032,-0.51922166,-0.521085,-0.5248423,-0.530463,-0.5332732,-0.5332732,-0.5285996,-0.5276526,-0.529516,-0.5314099,-0.5342202,-0.5342202,-0.5285996,-0.5248423,-0.5182748,-0.51641136,-0.5154644,-0.51641136,-0.5182748,-0.5173278,-0.5173278,-0.5154644,-0.50984377,-0.50235975,-0.49484527,-0.4845509,-0.47422606,-0.45831108,-0.4386083,-0.42079943,-0.40769482,-0.39831692,-0.38145494,-0.3514579,-0.3055458,-0.2596032,-0.23336339,-0.23806763,-0.2624135,-0.2896003,-0.30365193,-0.3027355,-0.2952209,-0.29427403,-0.31021947,-0.3505109,-0.40393752,-0.46298474,-0.50984377,-0.53232634,-0.53794694,-0.5342202,-0.529516,-0.530463,-0.530463,-0.530463,-0.5332732,-0.53513664,-0.53794694,-0.53889394,-0.53513664,-0.53232634,-0.53794694,-0.56232345,-0.59699416,-0.6204237,-0.6016984,-0.5079804,-0.3148932,-0.03935969,0.27832854,0.55575573,0.6981962,0.6663357,0.4245566,0.03935969,-0.3674034,-0.6982268,-0.88098913,-0.91095567,-0.84537137,-0.7525698,-0.6672827,-0.5998045,-0.5501352,-0.51922166,-0.50422317,-0.50422317,-0.5079804,-0.5079804,-0.5014128,-0.4873612,-0.47517294,-0.4686054,-0.46765846,-0.47141576,-0.47141576,-0.46579504,-0.45736408,-0.44703925,-0.43955523,-0.43393463,-0.42831397,-0.42079943,-0.41145205,-0.40393752,-0.39550656,-0.3870756,-0.38050807,-0.3711301,-0.3608358,-0.3477006,-0.33270204,-0.31678712,-0.30365193,-0.29427403,-0.28116935,-0.26522386,-0.24368823,-0.21836483,-0.19120866,-0.16212791,-0.13216132,-0.10402763,-0.07778782,-0.053411305,-0.025308132,0.0065523386,0.040306687,0.07122016,0.09278631,0.10870123,0.12183654,0.13402474,0.14431906,0.15088665,0.15183353,0.14621294,0.13869846,0.12745714,0.10589087,0.07497752,0.03468597,-0.013119876,-0.06935692,-0.13121444,-0.19774562,-0.2624135,-0.32051378,-0.3655095,-0.40580088,-0.44612288,-0.4854673,-0.5182748,-0.54451454,-0.56327033,-0.57451165,-0.58107924,-0.58575296,-0.58575296,-0.58575296,-0.58856326,-0.5904572,-0.59137356,-0.58856326,-0.58575296,-0.5838896,-0.58480597,-0.58480597,-0.58480597,-0.5819956,-0.57732195,-0.5735647,-0.569838,-0.5670277,-0.56794405,-0.56889105,-0.56794405,-0.56513375,-0.55856615,-0.5529455,-0.5492188,-0.55108213,-0.5529455,-0.55108213,-0.54732484,-0.54170424,-0.53794694,-0.53889394,-0.5407573,-0.5426512,-0.54170424,-0.53794694,-0.53513664,-0.5332732,-0.5360836,-0.5407573,-0.54451454,-0.54451454,-0.54170424,-0.53889394,-0.53794694,-0.53794694,-0.5398409,-0.5398409,-0.53794694,-0.5360836,-0.53232634,-0.5248423,-0.50984377,-0.49298185,-0.47608942,-0.46298474,-0.45360684,-0.4451759,-0.4320407,-0.40674782,-0.36926675,-0.32521802,-0.2924106,-0.2821163,-0.2961679,-0.32240772,-0.34302688,-0.3514579,-0.3514579,-0.35240483,-0.3664564,-0.3964535,-0.44331253,-0.49954945,-0.5520291,-0.59137356,-0.6082355,-0.6054251,-0.5923205,-0.58107924,-0.576375,-0.5782689,-0.5819956,-0.5838896,-0.5819956,-0.5782689,-0.5726483,-0.5670277,-0.5670277,-0.58013225,-0.6119927,-0.6485574,-0.65604144,-0.6082355,-0.46955234,-0.22587937,0.085271835,0.41704214,0.65885174,0.7385181,0.6194767,0.29708433,-0.11716282,-0.5079804,-0.7807035,-0.8959571,-0.8762849,-0.7891345,-0.6972798,-0.624181,-0.5754586,-0.54451454,-0.5276526,-0.5182748,-0.51265407,-0.51265407,-0.5117071,-0.5079804,-0.49954945,-0.4882776,-0.4789303,-0.47422606,-0.47236264,-0.46955234,-0.46393174,-0.45831108,-0.45174348,-0.44612288,-0.44141865,-0.435798,-0.4292304,-0.42269337,-0.41426235,-0.40580088,-0.39831692,-0.39083284,-0.38050807,-0.3645625,-0.3477006,-0.33178568,-0.3177035,-0.30459887,-0.29054725,-0.2727384,-0.25117224,-0.23055309,-0.21088082,-0.19120866,-0.17058945,-0.145266,-0.116215885,-0.08530235,-0.052494943,-0.024361193,0.0018786192,0.028118491,0.054358363,0.07965112,0.09932339,0.113405466,0.120889544,0.12651014,0.13213074,0.1349411,0.13402474,0.1236999,0.10497451,0.07684088,0.03468597,-0.015013814,-0.06935692,-0.12559372,-0.17993683,-0.23055309,-0.28116935,-0.33459598,-0.3842653,-0.4264201,-0.46203786,-0.4882776,-0.5088968,-0.52578926,-0.53889394,-0.5492188,-0.55670273,-0.5641868,-0.569838,-0.5735647,-0.5735647,-0.57075435,-0.56794405,-0.5660807,-0.56513375,-0.5660807,-0.56794405,-0.569838,-0.56889105,-0.5660807,-0.56137645,-0.55856615,-0.55764973,-0.55856615,-0.5595131,-0.5595131,-0.55764973,-0.5538925,-0.5482719,-0.5426512,-0.54356766,-0.54732484,-0.5520291,-0.5538925,-0.5492188,-0.54170424,-0.53513664,-0.5332732,-0.5332732,-0.53513664,-0.53513664,-0.5342202,-0.53232634,-0.530463,-0.5285996,-0.5276526,-0.52578926,-0.5238954,-0.522032,-0.521085,-0.5238954,-0.5267057,-0.529516,-0.5285996,-0.5248423,-0.521085,-0.5182748,-0.5182748,-0.5201381,-0.5201381,-0.521085,-0.5201381,-0.5154644,-0.50608647,-0.4892246,-0.4686054,-0.44703925,-0.43017733,-0.42079943,-0.41798913,-0.41145205,-0.39083284,-0.35521513,-0.31021947,-0.2727384,-0.2567929,-0.26711774,-0.29146367,-0.3148932,-0.32802832,-0.33270204,-0.33178568,-0.33926964,-0.35894185,-0.3936432,-0.44331253,-0.49670857,-0.5407573,-0.5660807,-0.5726483,-0.5670277,-0.55856615,-0.55483943,-0.55483943,-0.55575585,-0.55483943,-0.55108213,-0.5482719,-0.5464085,-0.5464085,-0.5501352,-0.55856615,-0.58107924,-0.61761343,-0.64012647,-0.62231755,-0.5285996,-0.32897532,-0.03654939,0.30832553,0.6232339,0.794755,0.7834834,0.5576191,0.17431617,-0.23525733,-0.5660807,-0.7525698,-0.7919448,-0.73757124,-0.6644724,-0.6129397,-0.57918537,-0.55483943,-0.5360836,-0.522979,-0.5154644,-0.5154644,-0.5145174,-0.50984377,-0.50235975,-0.4910879,-0.4817406,-0.47141576,-0.46393174,-0.45736408,-0.45174348,-0.44612288,-0.44141865,-0.43674493,-0.43393463,-0.4320407,-0.43017733,-0.42550367,-0.419883,-0.41331547,-0.40299058,-0.3936432,-0.38331836,-0.373024,-0.3636461,-0.3542682,-0.34397388,-0.32989174,-0.31397676,-0.29803127,-0.2821163,-0.26522386,-0.24649853,-0.22212213,-0.19588232,-0.16777915,-0.1415087,-0.114352524,-0.08811271,-0.05906254,-0.028118491,0.0037419796,0.03468597,0.061842322,0.083408356,0.10027027,0.11151159,0.122752905,0.13307774,0.1424557,0.14902318,0.14526594,0.13121438,0.10402763,0.06654656,0.023414254,-0.022497833,-0.0721671,-0.12373042,-0.17902035,-0.23525733,-0.2924106,-0.34397388,-0.38893896,-0.42736703,-0.45831108,-0.48360395,-0.50235975,-0.5173278,-0.530463,-0.5426512,-0.55108213,-0.55575585,-0.55670273,-0.55764973,-0.5595131,-0.56327033,-0.56513375,-0.56232345,-0.55670273,-0.55108213,-0.5482719,-0.5501352,-0.5520291,-0.5501352,-0.54546154,-0.53889394,-0.5332732,-0.529516,-0.5285996,-0.5285996,-0.530463,-0.530463,-0.5314099,-0.53232634,-0.53232634,-0.5332732,-0.53232634,-0.5314099,-0.530463,-0.529516,-0.5314099,-0.53232634,-0.5314099,-0.529516,-0.5276526,-0.5285996,-0.529516,-0.5314099,-0.5332732,-0.53232634,-0.5314099,-0.5285996,-0.5276526,-0.5276526,-0.5285996,-0.529516,-0.530463,-0.529516,-0.5285996,-0.5285996,-0.5276526,-0.5267057,-0.5238954,-0.522032,-0.5201381,-0.5201381,-0.5201381,-0.51922166,-0.5182748,-0.5173278,-0.5182748,-0.5201381,-0.522032,-0.522032,-0.522979,-0.522032,-0.5182748,-0.5145174,-0.5079804,-0.5014128,-0.4986025,-0.49954945,-0.5032762,-0.5079804,-0.50984377,-0.5088968,-0.5032762,-0.49765557,-0.49298185,-0.49298185,-0.49579215,-0.4986025,-0.49954945,-0.49765557,-0.49298185,-0.4910879,-0.49017155,-0.4892246,-0.4892246,-0.4873612,-0.48641425,-0.4845509,-0.48265702,-0.4817406,-0.48079365,-0.47984672,-0.47984672,-0.4779833,-0.47608942,-0.47517294,-0.47327906,-0.47046876,-0.46674204,-0.46298474,-0.46017444,-0.45831108,-0.45736408,-0.45736408,-0.45736408,-0.45736408,-0.45550078,-0.45360684,-0.45360684,-0.4526599,-0.45174348,-0.44893318,-0.4386083,-0.42079943,-0.39926386,-0.3758343,-0.3608358,-0.35521513,-0.3505109,-0.33551234,-0.29992515,-0.25211924,-0.20807052,-0.19120866,-0.20526022,-0.23806763,-0.27179146,-0.28865337,-0.2896003,-0.2821163,-0.27835906,-0.2933576,-0.33083868,-0.38799202,-0.4479862,-0.49765557,-0.522032,-0.522032,-0.5088968,-0.49765557,-0.49298185,-0.4986025,-0.50608647,-0.5088968,-0.50703347,-0.50235975,-0.49765557,-0.49954945,-0.51360106,-0.54451454,-0.58480597,-0.5998045,-0.55670273,-0.42269337,-0.17245275,0.16026449,0.53137934,0.8266156,0.951247,0.87066424,0.5688909,0.1471293,-0.26149708,-0.5595131,-0.70665777,-0.71789896,-0.6616621,-0.60450876,-0.5670277,-0.5426512,-0.5238954,-0.51265407,-0.50422317,-0.50046587,-0.4986025,-0.49484527,-0.49017155,-0.48360395,-0.47517294,-0.46765846,-0.46017444,-0.45550078,-0.4498496,-0.44331253,-0.43769187,-0.435798,-0.43769187,-0.43674493,-0.43488157,-0.42831397,-0.41798913,-0.40955812,-0.40112722,-0.3936432,-0.3842653,-0.373024,-0.36269915,-0.3505109,-0.33926964,-0.32897532,-0.31678712,-0.3027355,-0.28773695,-0.27365482,-0.25773984,-0.23806763,-0.21555454,-0.18745136,-0.15840113,-0.1302675,-0.10311127,-0.07778782,-0.051548004,-0.023444831,0.0037419796,0.029034853,0.050601006,0.0693568,0.084355354,0.09746003,0.10964835,0.118079185,0.12559378,0.13213074,0.1349411,0.13402474,0.122752905,0.10589087,0.081545115,0.051547885,0.017793536,-0.020634532,-0.0637362,-0.10778493,-0.1518336,-0.19869262,-0.247415,-0.2961679,-0.34302688,-0.38518173,-0.41798913,-0.4451759,-0.46765846,-0.4882776,-0.50703347,-0.5238954,-0.5370306,-0.54546154,-0.5464085,-0.54546154,-0.5407573,-0.5370306,-0.53513664,-0.5360836,-0.53794694,-0.53794694,-0.53513664,-0.5285996,-0.522032,-0.51922166,-0.51922166,-0.51922166,-0.5173278,-0.5154644,-0.51360106,-0.51360106,-0.5173278,-0.5201381,-0.522979,-0.52578926,-0.52578926,-0.52578926,-0.521085,-0.5173278,-0.5145174,-0.51360106,-0.5154644,-0.5173278,-0.5182748,-0.5173278,-0.5173278,-0.51922166,-0.5182748,-0.51641136,-0.51265407,-0.50984377,-0.5079804,-0.5051701,-0.5051701,-0.5051701,-0.50608647,-0.5117071,-0.51641136,-0.5173278,-0.51360106,-0.5107907,-0.5088968,-0.50703347,-0.5079804,-0.50984377,-0.5117071,-0.51265407,-0.5145174,-0.5154644,-0.51360106,-0.51265407,-0.5145174,-0.51641136,-0.51641136,-0.5145174,-0.50984377,-0.50703347,-0.50608647,-0.5088968,-0.5107907,-0.5107907,-0.5088968,-0.50608647,-0.50422317,-0.5051701,-0.5088968,-0.5107907,-0.5079804,-0.5032762,-0.4986025,-0.49579215,-0.49670857,-0.49670857,-0.49579215,-0.49484527,-0.49484527,-0.49670857,-0.49670857,-0.4920349,-0.4854673,-0.48079365,-0.4817406,-0.48641425,-0.49484527,-0.49765557,-0.49765557,-0.49670857,-0.49765557,-0.50046587,-0.50046587,-0.4986025,-0.49579215,-0.49298185,-0.49389827,-0.49298185,-0.4910879,-0.4873612,-0.4845509,-0.4845509,-0.48641425,-0.4854673,-0.4789303,-0.46393174,-0.4451759,-0.4264201,-0.41426235,-0.40769482,-0.39831692,-0.373024,-0.33083868,-0.27646512,-0.23525733,-0.22025877,-0.23617369,-0.27084452,-0.30365193,-0.32146078,-0.32146078,-0.31678712,-0.32146078,-0.34397388,-0.38893896,-0.44612288,-0.4986025,-0.5332732,-0.5464085,-0.54546154,-0.5407573,-0.54170424,-0.54170424,-0.54170424,-0.53889394,-0.5360836,-0.5360836,-0.5370306,-0.5370306,-0.5360836,-0.54170424,-0.5641868,-0.5960778,-0.61012936,-0.5726483,-0.44236553,-0.19682926,0.1358881,0.50232923,0.7834834,0.8893895,0.78537714,0.4629848,0.026224494,-0.3936432,-0.70009017,-0.8444244,-0.84537137,-0.76665187,-0.67855453,-0.61012936,-0.5641868,-0.5342202,-0.5173278,-0.5088968,-0.50608647,-0.5051701,-0.5032762,-0.49765557,-0.49017155,-0.4789303,-0.47046876,-0.46393174,-0.45736408,-0.45360684,-0.4479862,-0.44422895,-0.43955523,-0.43393463,-0.4264201,-0.41798913,-0.41426235,-0.41331547,-0.41331547,-0.41145205,-0.40393752,-0.3936432,-0.38050807,-0.3674034,-0.3570785,-0.34397388,-0.33083868,-0.3148932,-0.2961679,-0.27835906,-0.2596032,-0.24274135,-0.22117513,-0.19963956,-0.17712653,-0.15278053,-0.12840414,-0.10311127,-0.079681754,-0.05625224,-0.03187573,-0.006552279,0.021550894,0.049654126,0.07497752,0.093702674,0.10497451,0.113405466,0.119942546,0.12840414,0.1358881,0.13869846,0.13683498,0.12840414,0.113405466,0.090892434,0.055274725,0.012172937,-0.03935969,-0.09464967,-0.14997023,-0.20526022,-0.25773984,-0.30740917,-0.35521513,-0.39831692,-0.43769187,-0.47046876,-0.49579215,-0.51922166,-0.5370306,-0.5520291,-0.5604601,-0.56513375,-0.5670277,-0.56794405,-0.569838,-0.569838,-0.56889105,-0.57075435,-0.57170135,-0.57451165,-0.5735647,-0.569838,-0.56513375,-0.55856615,-0.55575585,-0.55483943,-0.55483943,-0.5538925,-0.5529455,-0.5501352,-0.54451454,-0.53794694,-0.5332732,-0.5276526,-0.522032,-0.51922166,-0.5201381,-0.5238954,-0.5267057,-0.5285996,-0.5248423,-0.5154644,-0.5088968,-0.5079804,-0.51265407,-0.5201381,-0.5248423,-0.522032,-0.5145174,-0.5079804,-0.50608647,-0.5088968,-0.50984377,-0.50703347,-0.50235975,-0.49954945,-0.50235975,-0.5079804,-0.51360106,-0.5182748,-0.5182748,-0.51641136,-0.51641136,-0.5145174,-0.5107907,-0.5051701,-0.49954945,-0.49579215,-0.49765557,-0.50608647,-0.51265407,-0.5154644,-0.5117071,-0.5032762,-0.49484527,-0.49017155,-0.49017155,-0.49298185,-0.49579215,-0.49765557,-0.49765557,-0.49484527,-0.49017155,-0.48641425,-0.4873612,-0.4882776,-0.49017155,-0.4910879,-0.49017155,-0.4910879,-0.49298185,-0.49579215,-0.49765557,-0.49389827,-0.48360395,-0.46765846,-0.45079654,-0.4386083,-0.42736703,-0.42079943,-0.40674782,-0.38050807,-0.34208,-0.2924106,-0.2502253,-0.22868973,-0.23806763,-0.26803416,-0.29803127,-0.31397676,-0.31302983,-0.30646223,-0.31021947,-0.33270204,-0.3767507,-0.43488157,-0.49298185,-0.53513664,-0.5538925,-0.55483943,-0.54356766,-0.53794694,-0.53889394,-0.54546154,-0.55575585,-0.56137645,-0.56327033,-0.56232345,-0.55764973,-0.5520291,-0.5482719,-0.55856615,-0.5895102,-0.61669695,-0.61575,-0.54732484,-0.37864465,-0.11716282,0.19960904,0.49389827,0.66447234,0.66541934,0.46484816,0.09932339,-0.30835617,-0.65885174,-0.87817883,-0.9447101,-0.8997144,-0.80694336,-0.70852107,-0.62604433,-0.5670277,-0.53513664,-0.5248423,-0.5238954,-0.52578926,-0.5201381,-0.50984377,-0.4986025,-0.4882776,-0.47984672,-0.47703636,-0.46955234,-0.45736408,-0.44331253,-0.43017733,-0.41798913,-0.41050512,-0.40769482,-0.40580088,-0.40769482,-0.40955812,-0.40580088,-0.3964535,-0.38331836,-0.3702137,-0.35802543,-0.34864753,-0.34302688,-0.33459598,-0.32240772,-0.30740917,-0.2896003,-0.27365482,-0.2567929,-0.24087793,-0.21931183,-0.19588232,-0.16964245,-0.13964534,-0.108731866,-0.079681754,-0.052494943,-0.028118491,-0.006552279,0.012172937,0.03468597,0.06092596,0.08902907,0.11245847,0.12840414,0.13683498,0.1424557,0.14902318,0.15745425,0.16307485,0.16026449,0.1471293,0.119942546,0.080598116,0.030928731,-0.023444831,-0.07684088,-0.1302675,-0.18274713,-0.23806763,-0.2952209,-0.3514579,-0.40393752,-0.4479862,-0.48265702,-0.5107907,-0.53513664,-0.55764973,-0.57732195,-0.59326744,-0.60075146,-0.6016984,-0.59794116,-0.59326744,-0.59326744,-0.5960778,-0.5960778,-0.5923205,-0.5838896,-0.57732195,-0.57451165,-0.57451165,-0.5754586,-0.576375,-0.5735647,-0.5726483,-0.57170135,-0.56889105,-0.5641868,-0.56232345,-0.56232345,-0.56232345,-0.5604601,-0.55764973,-0.55108213,-0.5464085,-0.54356766,-0.54170424,-0.53889394,-0.5342202,-0.53232634,-0.53232634,-0.53232634,-0.5342202,-0.5370306,-0.53889394,-0.5398409,-0.5398409,-0.53794694,-0.53513664,-0.53513664,-0.5370306,-0.5398409,-0.54170424,-0.5407573,-0.53889394,-0.53794694,-0.5398409,-0.5426512,-0.54356766,-0.53889394,-0.529516,-0.522032,-0.51641136,-0.522032,-0.529516,-0.53513664,-0.5370306,-0.530463,-0.521085,-0.51360106,-0.5051701,-0.49298185,-0.47608942,-0.4592275,-0.4498496,-0.44612288,-0.43955523,-0.41331547,-0.3683198,-0.31865042,-0.2839797,-0.28303272,-0.30740917,-0.33832264,-0.35894185,-0.3636461,-0.35894185,-0.3542682,-0.3655095,-0.39736992,-0.44893318,-0.5088968,-0.5604601,-0.59137356,-0.59888804,-0.5904572,-0.58107924,-0.57451165,-0.5735647,-0.57451165,-0.57732195,-0.58013225,-0.57918537,-0.576375,-0.57170135,-0.5660807,-0.57075435,-0.58575296,-0.61575,-0.6419898,-0.63450587,-0.57170135,-0.4170727,-0.17058945,0.13402474,0.43579793,0.6307181,0.6672826,0.50703335,0.16869557,-0.23431033,-0.6026149,-0.84537137,-0.9343852,-0.8997144,-0.80413306,-0.70198405,-0.6195073,-0.5595131,-0.529516,-0.5182748,-0.5154644,-0.51265407,-0.50703347,-0.4986025,-0.4892246,-0.4779833,-0.46579504,-0.45736408,-0.45079654,-0.4479862,-0.4451759,-0.4386083,-0.4320407,-0.42360973,-0.4170727,-0.40955812,-0.40299058,-0.39736992,-0.38988596,-0.38237137,-0.3758343,-0.3636461,-0.35240483,-0.341133,-0.33083868,-0.32240772,-0.31302983,-0.30084157,-0.28865337,-0.2727384,-0.25587648,-0.23431033,-0.21088082,-0.18931472,-0.16869551,-0.14715993,-0.12278342,-0.09559673,-0.0665465,-0.03654939,-0.010309577,0.016877174,0.044980288,0.07216716,0.09559667,0.115268946,0.13213074,0.14526594,0.1546439,0.16118085,0.16026449,0.15650725,0.14431906,0.12559378,0.09932339,0.061842322,0.016877174,-0.03654939,-0.09559673,-0.1574542,-0.21931183,-0.27554876,-0.32616502,-0.3702137,-0.40861124,-0.4451759,-0.47517294,-0.4986025,-0.51922166,-0.53513664,-0.5492188,-0.56327033,-0.5726483,-0.58107924,-0.58480597,-0.5876163,-0.5876163,-0.58669984,-0.5838896,-0.5819956,-0.57918537,-0.5754586,-0.57075435,-0.5660807,-0.56327033,-0.56232345,-0.56327033,-0.56232345,-0.5595131,-0.5520291,-0.54451454,-0.5370306,-0.5314099,-0.529516,-0.529516,-0.529516,-0.5238954,-0.5182748,-0.5145174,-0.5117071,-0.5117071,-0.5107907,-0.50984377,-0.50984377,-0.51265407,-0.51922166,-0.5238954,-0.5238954,-0.522032,-0.51922166,-0.51922166,-0.522032,-0.5248423,-0.521085,-0.5145174,-0.5088968,-0.5051701,-0.50608647,-0.50984377,-0.51360106,-0.5173278,-0.5173278,-0.5182748,-0.5182748,-0.5182748,-0.522032,-0.5238954,-0.522979,-0.51641136,-0.49954945,-0.47608942,-0.45174348,-0.43298763,-0.42360973,-0.41893607,-0.40488446,-0.3739404,-0.33178568,-0.29146367,-0.27084452,-0.27741206,-0.29992515,-0.32616502,-0.34302688,-0.34583724,-0.34397388,-0.3448903,-0.35894185,-0.39083284,-0.4386083,-0.49389827,-0.54170424,-0.5726483,-0.58575296,-0.58480597,-0.58107924,-0.57732195,-0.5782689,-0.57918537,-0.57918537,-0.58107924,-0.5782689,-0.57732195,-0.57451165,-0.57075435,-0.5735647,-0.58856326,-0.6195073,-0.6504208,-0.6504208,-0.5923205,-0.43955523,-0.18745136,0.13213074,0.4610908,0.686955,0.7478962,0.6044781,0.26617074,-0.1490233,-0.5267057,-0.77413595,-0.86409664,-0.8294259,-0.7413285,-0.6616621,-0.6054251,-0.56794405,-0.5464085,-0.5360836,-0.5342202,-0.53232634,-0.5285996,-0.5201381,-0.50703347,-0.49765557,-0.4920349,-0.4882776,-0.48641425,-0.48079365,-0.47422606,-0.46579504,-0.46112138,-0.4592275,-0.45736408,-0.45550078,-0.45079654,-0.44422895,-0.435798,-0.42550367,-0.41612577,-0.40580088,-0.39926386,-0.39455962,-0.38893896,-0.38237137,-0.36926675,-0.3542682,-0.33832264,-0.32051378,-0.30178857,-0.279306,-0.25587648,-0.23336339,-0.20993394,-0.18555743,-0.15840113,-0.12935102,-0.09654361,-0.0637362,-0.03187573,-1.5318394e-05,0.026224494,0.052464366,0.07589388,0.09651303,0.115268946,0.1293205,0.1405617,0.1471293,0.14993966,0.1480763,0.13964534,0.1236999,0.09651303,0.056221724,0.0037419796,-0.055305243,-0.118079185,-0.1780734,-0.23525733,-0.2896003,-0.34021658,-0.3842653,-0.42269337,-0.45641714,-0.48360395,-0.5088968,-0.5285996,-0.54356766,-0.55575585,-0.56327033,-0.5670277,-0.56794405,-0.5670277,-0.5660807,-0.56232345,-0.56232345,-0.56232345,-0.5641868,-0.5670277,-0.5670277,-0.5660807,-0.5604601,-0.5538925,-0.5492188,-0.54356766,-0.5407573,-0.53889394,-0.53889394,-0.53794694,-0.5370306,-0.5360836,-0.5342202,-0.53232634,-0.530463,-0.5267057,-0.5267057,-0.5314099,-0.5370306,-0.5426512,-0.54356766,-0.5398409,-0.53513664,-0.53232634,-0.530463,-0.529516,-0.5285996,-0.5276526,-0.5276526,-0.5276526,-0.5276526,-0.5285996,-0.529516,-0.530463,-0.5285996,-0.5238954,-0.51922166,-0.5173278,-0.5182748,-0.521085,-0.5238954,-0.5267057,-0.5285996,-0.529516,-0.5267057,-0.521085,-0.51641136,-0.51265407,-0.5117071,-0.51265407,-0.5117071,-0.5117071,-0.5107907,-0.5107907,-0.5117071,-0.50984377,-0.5079804,-0.5051701,-0.50422317,-0.5051701,-0.50422317,-0.5032762,-0.5014128,-0.49954945,-0.49765557,-0.49579215,-0.49389827,-0.49017155,-0.48265702,-0.46674204,-0.44422895,-0.42174637,-0.40488446,-0.39550656,-0.38612866,-0.3636461,-0.32616502,-0.28116935,-0.24555165,-0.23431033,-0.24649853,-0.2727384,-0.29803127,-0.31397676,-0.31678712,-0.3120829,-0.31397676,-0.32897532,-0.3664564,-0.419883,-0.47422606,-0.5182748,-0.54170424,-0.54546154,-0.5398409,-0.5314099,-0.5267057,-0.52578926,-0.5267057,-0.529516,-0.530463,-0.530463,-0.529516,-0.529516,-0.5314099,-0.5407573,-0.5660807,-0.60450876,-0.62885463,-0.6073191,-0.5051701,-0.2933576,0.012172937,0.37299347,0.69633293,0.87066424,0.8547188,0.61666656,0.22303855,-0.19401896,-0.52578926,-0.71133137,-0.75070643,-0.6982268,-0.631665,-0.58480597,-0.55764973,-0.5398409,-0.5267057,-0.5182748,-0.5117071,-0.50703347,-0.5014128,-0.49298185,-0.48265702,-0.47422606,-0.46765846,-0.46484816,-0.46298474,-0.46112138,-0.45455378,-0.4479862,-0.44050223,-0.43298763,-0.42550367,-0.41798913,-0.41236848,-0.40861124,-0.40674782,-0.40207416,-0.39455962,-0.3842653,-0.37207705,-0.3608358,-0.34959453,-0.33459598,-0.32051378,-0.3055458,-0.29054725,-0.27741206,-0.2624135,-0.247415,-0.22960609,-0.20807052,-0.183694,-0.1546439,-0.12373042,-0.09464967,-0.06559962,-0.03654939,-0.006552279,0.022497773,0.052464366,0.07965112,0.10216427,0.1236999,0.1405617,0.15275002,0.16026449,0.16399133,0.16588509,0.16493821,0.16026449,0.14902318,0.12745714,0.09746003,0.054358363,0.004688859,-0.049684644,-0.10592157,-0.16026449,-0.21369112,-0.26430744,-0.3120829,-0.35613155,-0.39455962,-0.43017733,-0.46017444,-0.4845509,-0.50235975,-0.5154644,-0.52578926,-0.53232634,-0.53794694,-0.5426512,-0.5426512,-0.54170424,-0.5398409,-0.53794694,-0.53513664,-0.53232634,-0.5332732,-0.5342202,-0.5342202,-0.5342202,-0.530463,-0.5248423,-0.51922166,-0.5154644,-0.51360106,-0.51360106,-0.5154644,-0.5182748,-0.521085,-0.522032,-0.5201381,-0.5173278,-0.5145174,-0.51360106,-0.5154644,-0.51641136,-0.51641136,-0.5154644,-0.5154644,-0.5154644,-0.5145174,-0.51265407,-0.51265407,-0.51360106,-0.5154644,-0.5154644,-0.51641136,-0.5182748,-0.51922166,-0.51922166,-0.51641136,-0.5107907,-0.50703347,-0.50608647,-0.50703347,-0.50703347,-0.5079804,-0.50703347,-0.50608647,-0.5051701,-0.5032762,-0.50235975,-0.50046587,-0.4986025,-0.4986025,-0.49954945,-0.50235975,-0.5051701,-0.50608647,-0.50608647,-0.5032762,-0.50235975,-0.50235975,-0.50422317,-0.5051701,-0.50422317,-0.50422317,-0.5032762,-0.50235975,-0.50235975,-0.50046587,-0.49954945,-0.49954945,-0.5014128,-0.50235975,-0.50046587,-0.49765557,-0.49389827,-0.4910879,-0.49017155,-0.4882776,-0.48641425,-0.48360395,-0.48265702,-0.4817406,-0.48079365,-0.48079365,-0.48079365,-0.4789303,-0.47422606,-0.47046876,-0.4686054,-0.46955234,-0.47327906,-0.47608942,-0.47608942,-0.47608942,-0.47608942,-0.4779833,-0.4779833,-0.47517294,-0.47141576,-0.46484816,-0.46017444,-0.45831108,-0.45641714,-0.45736408,-0.45831108,-0.4592275,-0.4592275,-0.45550078,-0.4451759,-0.42550367,-0.40393752,-0.38145494,-0.3645625,-0.35613155,-0.34397388,-0.31678712,-0.27365482,-0.22493243,-0.19212502,-0.18839824,-0.21182775,-0.2446047,-0.26803416,-0.27741206,-0.27554876,-0.27084452,-0.27460176,-0.2952209,-0.33926964,-0.39455962,-0.44893318,-0.4854673,-0.49765557,-0.49579215,-0.4882776,-0.4854673,-0.4873612,-0.49017155,-0.49298185,-0.49389827,-0.49579215,-0.49579215,-0.49579215,-0.5014128,-0.5201381,-0.55670273,-0.5895102,-0.58013225,-0.50046587,-0.3120829,-0.018740594,0.340186,0.6935226,0.9081454,0.9353322,0.7394346,0.35518456,-0.080598116,-0.45455378,-0.6879019,-0.76289463,-0.72446656,-0.6476105,-0.5876163,-0.5520291,-0.530463,-0.5154644,-0.5032762,-0.49579215,-0.4920349,-0.49017155,-0.4873612,-0.4789303,-0.46955234,-0.45831108,-0.4479862,-0.44141865,-0.43769187,-0.43393463,-0.43017733,-0.42736703,-0.42360973,-0.4170727,-0.40955812,-0.39926386,-0.38988596,-0.3842653,-0.37864465,-0.3739404,-0.3664564,-0.3570785,-0.34583724,-0.33364898,-0.32427108,-0.31584013,-0.30459887,-0.29054725,-0.27179146,-0.24930888,-0.22868973,-0.21088082,-0.19307196,-0.17150581,-0.1490233,-0.12373042,-0.10121733,-0.078734756,-0.052494943,-0.025308132,0.004688859,0.03279209,0.059978962,0.085271835,0.10683787,0.12651014,0.1415087,0.15088665,0.15650725,0.1593175,0.16118085,0.16026449,0.15745425,0.14902318,0.13121438,0.10497451,0.06840992,0.025308132,-0.021550894,-0.0721671,-0.12464678,-0.17712653,-0.23055309,-0.28116935,-0.32708144,-0.36926675,-0.40769482,-0.44050223,-0.46765846,-0.4892246,-0.50422317,-0.5154644,-0.52578926,-0.5342202,-0.54170424,-0.54451454,-0.54356766,-0.5398409,-0.53513664,-0.5342202,-0.53232634,-0.530463,-0.5285996,-0.5248423,-0.522032,-0.5182748,-0.5182748,-0.5182748,-0.5173278,-0.5173278,-0.51360106,-0.50984377,-0.50608647,-0.5032762,-0.5051701,-0.50608647,-0.5079804,-0.5107907,-0.51265407,-0.5145174,-0.51641136,-0.5173278,-0.5173278,-0.5173278,-0.51641136,-0.51641136,-0.5173278,-0.5182748,-0.5173278,-0.51641136,-0.51360106,-0.5117071,-0.5117071,-0.5117071,-0.5117071,-0.50984377,-0.5088968,-0.5079804,-0.50608647,-0.50608647,-0.5051701,-0.50703347,-0.50608647,-0.50422317,-0.50422317,-0.5032762,-0.50235975,-0.5051701,-0.50703347,-0.5088968,-0.5107907,-0.5117071,-0.50984377,-0.5088968,-0.5079804,-0.5079804,-0.5088968,-0.5079804,-0.50422317,-0.50046587,-0.49765557,-0.49670857,-0.49670857,-0.49579215,-0.49484527,-0.49389827,-0.49298185,-0.4920349,-0.49017155,-0.4892246,-0.4892246,-0.4892246,-0.4892246,-0.4892246,-0.4910879,-0.49017155,-0.4882776,-0.48265702,-0.47703636,-0.47327906,-0.47327906,-0.47236264,-0.47141576,-0.46765846,-0.46484816,-0.46298474,-0.46203786,-0.46203786,-0.46298474,-0.46579504,-0.47046876,-0.47608942,-0.47703636,-0.47422606,-0.47046876,-0.46579504,-0.46484816,-0.46579504,-0.46674204,-0.46765846,-0.46579504,-0.46203786,-0.45641714,-0.4498496,-0.44236553,-0.43112433,-0.41612577,-0.39550656,-0.3767507,-0.3645625,-0.3533212,-0.33926964,-0.31116647,-0.26803416,-0.2239855,-0.19588232,-0.19869262,-0.22493243,-0.25773984,-0.2821163,-0.2896003,-0.28492665,-0.28022242,-0.28773695,-0.31865042,-0.3702137,-0.43298763,-0.4882776,-0.522032,-0.5314099,-0.5248423,-0.51922166,-0.51922166,-0.5248423,-0.5342202,-0.53513664,-0.53232634,-0.5238954,-0.51265407,-0.5079804,-0.51265407,-0.5370306,-0.576375,-0.6082355,-0.6016984,-0.521085,-0.33270204,-0.040306687,0.31584013,0.65885174,0.8640965,0.8772013,0.6747668,0.28770626,-0.1508866,-0.5285996,-0.7694622,-0.8481817,-0.8050494,-0.71133137,-0.6251279,-0.5641868,-0.5248423,-0.5032762,-0.4920349,-0.4882776,-0.4845509,-0.48079365,-0.47703636,-0.47236264,-0.46765846,-0.46393174,-0.45641714,-0.4451759,-0.43393463,-0.42360973,-0.419883,-0.419883,-0.41893607,-0.41517878,-0.40861124,-0.40018022,-0.39083284,-0.38237137,-0.3748874,-0.3655095,-0.3570785,-0.34959453,-0.33926964,-0.33083868,-0.32240772,-0.31397676,-0.30459887,-0.2924106,-0.27741206,-0.25868678,-0.23806763,-0.21555454,-0.19401896,-0.17339975,-0.1508866,-0.12840414,-0.10121733,-0.07122022,-0.041253626,-0.009362698,0.018740535,0.04403341,0.06746292,0.08716571,0.10308063,0.116215825,0.12651014,0.13869846,0.15088665,0.16399133,0.17055893,0.16964245,0.15837073,0.1405617,0.115268946,0.086218715,0.050601006,0.0065523386,-0.042170107,-0.09278631,-0.14715993,-0.19869262,-0.24930888,-0.29992515,-0.34678417,-0.38988596,-0.42455667,-0.45174348,-0.47608942,-0.49579215,-0.5145174,-0.5314099,-0.54546154,-0.55670273,-0.56327033,-0.5670277,-0.5660807,-0.56327033,-0.56137645,-0.56137645,-0.5595131,-0.55856615,-0.55483943,-0.55108213,-0.5492188,-0.5482719,-0.55108213,-0.5492188,-0.54356766,-0.5370306,-0.530463,-0.5238954,-0.51922166,-0.5173278,-0.51360106,-0.51265407,-0.5107907,-0.5107907,-0.5107907,-0.50984377,-0.50984377,-0.5079804,-0.5051701,-0.50422317,-0.5051701,-0.5088968,-0.51265407,-0.51641136,-0.5182748,-0.51641136,-0.5145174,-0.5107907,-0.5088968,-0.5117071,-0.51641136,-0.522979,-0.5248423,-0.522032,-0.51641136,-0.50984377,-0.5051701,-0.50422317,-0.50422317,-0.50703347,-0.5079804,-0.5107907,-0.5107907,-0.5107907,-0.5079804,-0.5051701,-0.5014128,-0.4986025,-0.4986025,-0.5014128,-0.50235975,-0.5051701,-0.50608647,-0.5051701,-0.5032762,-0.50046587,-0.50046587,-0.50046587,-0.50046587,-0.50046587,-0.50046587,-0.5032762,-0.50422317,-0.5032762,-0.49954945,-0.49389827,-0.49017155,-0.4882776,-0.4882776,-0.49017155,-0.4910879,-0.4910879,-0.48641425,-0.47517294,-0.45736408,-0.43674493,-0.4170727,-0.40299058,-0.3936432,-0.37956107,-0.3533212,-0.3148932,-0.27084452,-0.23806763,-0.23336339,-0.25117224,-0.28116935,-0.30365193,-0.3120829,-0.31021947,-0.30927253,-0.32427108,-0.35988885,-0.41331547,-0.47046876,-0.5145174,-0.5398409,-0.5407573,-0.53232634,-0.5238954,-0.5182748,-0.51922166,-0.522032,-0.5267057,-0.5285996,-0.529516,-0.52578926,-0.522032,-0.5201381,-0.5285996,-0.5520291,-0.58107924,-0.58575296,-0.5360836,-0.39831692,-0.15931761,0.14526594,0.45641708,0.6672826,0.7141417,0.5641867,0.22303855,-0.19401896,-0.57732195,-0.8434775,-0.9484673,-0.92128056,-0.82285833,-0.7132253,-0.6195073,-0.5482719,-0.5079804,-0.4892246,-0.48265702,-0.4817406,-0.4779833,-0.47141576,-0.46112138,-0.4479862,-0.43488157,-0.42360973,-0.41517878,-0.40769482,-0.40299058,-0.40112722,-0.39550656,-0.39174926,-0.38612866,-0.38237137,-0.38050807,-0.3758343,-0.3702137,-0.36175215,-0.3542682,-0.34583724,-0.33832264,-0.32897532,-0.3177035,-0.3055458,-0.2933576,-0.279306,-0.26522386,-0.24930888,-0.23336339,-0.21744847,-0.20150292,-0.183694,-0.16402185,-0.13778204,-0.108731866,-0.07778782,-0.047790706,-0.017824113,0.012172937,0.042170048,0.07216716,0.10027027,0.12464678,0.1471293,0.16399133,0.17712653,0.18461049,0.1902616,0.19493532,0.19774556,0.19588232,0.18555737,0.16399133,0.13307774,0.093702674,0.047790647,-0.0028256178,-0.055305243,-0.111542165,-0.16869551,-0.22868973,-0.2896003,-0.3477006,-0.39926386,-0.44050223,-0.47327906,-0.4986025,-0.51922166,-0.5342202,-0.5464085,-0.55670273,-0.5660807,-0.5754586,-0.57918537,-0.5782689,-0.5735647,-0.57075435,-0.569838,-0.5726483,-0.5735647,-0.5726483,-0.57170135,-0.569838,-0.569838,-0.56794405,-0.56327033,-0.56137645,-0.55856615,-0.5595131,-0.56137645,-0.55856615,-0.55764973,-0.55575585,-0.5529455,-0.5529455,-0.5520291,-0.55108213,-0.5482719,-0.5407573,-0.5342202,-0.529516,-0.52578926,-0.5248423,-0.5238954,-0.522979,-0.5238954,-0.5314099,-0.53889394,-0.5464085,-0.5464085,-0.5426512,-0.53889394,-0.5360836,-0.53794694,-0.5407573,-0.53889394,-0.5360836,-0.5314099,-0.52578926,-0.5248423,-0.52578926,-0.5285996,-0.5314099,-0.5342202,-0.5370306,-0.53794694,-0.53794694,-0.5342202,-0.5285996,-0.522032,-0.5201381,-0.5201381,-0.522032,-0.522979,-0.51922166,-0.50703347,-0.4920349,-0.47422606,-0.4592275,-0.45079654,-0.44422895,-0.43017733,-0.40299058,-0.35988885,-0.3148932,-0.28303272,-0.27741206,-0.2924106,-0.3177035,-0.33740628,-0.34583724,-0.34864753,-0.34864753,-0.35894185,-0.38893896,-0.43488157,-0.49484527,-0.54546154,-0.57451165,-0.58107924,-0.57451165,-0.569838,-0.57075435,-0.576375,-0.5782689,-0.5735647,-0.5670277,-0.56232345,-0.55856615,-0.55670273,-0.5538925,-0.55108213,-0.55670273,-0.5819956,-0.6082355,-0.6073191,-0.5482719,-0.39269626,-0.145266,0.15556026,0.4395553,0.60918236,0.6232339,0.4451759,0.10027027,-0.29897827,-0.6550945,-0.8828525,-0.9512777,-0.90066135,-0.79661846,-0.6991432,-0.62231755,-0.56889105,-0.53513664,-0.51922166,-0.51265407,-0.5079804,-0.5051701,-0.50235975,-0.49670857,-0.4920349,-0.4845509,-0.4789303,-0.47517294,-0.47236264,-0.4686054,-0.46112138,-0.4498496,-0.44050223,-0.43769187,-0.44050223,-0.44050223,-0.43674493,-0.4264201,-0.41426235,-0.40207416,-0.39174926,-0.38237137,-0.3702137,-0.35613155,-0.34397388,-0.32989174,-0.31865042,-0.30646223,-0.2896003,-0.27179146,-0.25398254,-0.23241639,-0.21182775,-0.18745136,-0.16307491,-0.13778204,-0.111542165,-0.08716571,-0.05906254,-0.029981852,-0.0018786788,0.028118491,0.057168603,0.081545115,0.10027027,0.115268946,0.12840414,0.1405617,0.15088665,0.15745425,0.1546439,0.14431906,0.12651014,0.09932339,0.059978962,0.012172937,-0.042170107,-0.09840703,-0.15559083,-0.21182775,-0.26711774,-0.32146078,-0.3711301,-0.41517878,-0.45736408,-0.4920349,-0.522979,-0.54732484,-0.56327033,-0.5754586,-0.5829426,-0.58856326,-0.59418386,-0.5998045,-0.60450876,-0.6054251,-0.60450876,-0.6026149,-0.60075146,-0.6026149,-0.60450876,-0.6026149,-0.59794116,-0.5904572,-0.58480597,-0.5819956,-0.5838896,-0.58669984,-0.58669984,-0.58669984,-0.5838896,-0.58107924,-0.576375,-0.5726483,-0.5670277,-0.5595131,-0.5520291,-0.54546154,-0.5426512,-0.5426512,-0.54451454,-0.54732484,-0.5492188,-0.5492188,-0.5482719,-0.54356766,-0.53889394,-0.5370306,-0.5370306,-0.5407573,-0.5398409,-0.53794694,-0.5314099,-0.5248423,-0.521085,-0.5201381,-0.5201381,-0.521085,-0.522032,-0.522979,-0.522032,-0.521085,-0.5201381,-0.5201381,-0.522032,-0.522979,-0.5201381,-0.5107907,-0.49298185,-0.47422606,-0.45641714,-0.44422895,-0.435798,-0.42360973,-0.39831692,-0.35613155,-0.31021947,-0.27365482,-0.26522386,-0.285843,-0.31865042,-0.3477006,-0.35988885,-0.3570785,-0.34959453,-0.34864753,-0.3683198,-0.41236848,-0.47046876,-0.530463,-0.57075435,-0.58480597,-0.5782689,-0.5660807,-0.55670273,-0.55575585,-0.5604601,-0.5641868,-0.56794405,-0.5735647,-0.57451165,-0.57451165,-0.5726483,-0.57451165,-0.58856326,-0.61669695,-0.6419898,-0.63355887,-0.5641868,-0.40018022,-0.13964534,0.17617953,0.48733068,0.6785239,0.7019534,0.52575874,0.17055893,-0.23993093,-0.59794116,-0.8266156,-0.8959571,-0.84628785,-0.7516534,-0.6672827,-0.6082355,-0.569838,-0.5464085,-0.5314099,-0.522032,-0.5173278,-0.51360106,-0.5088968,-0.5014128,-0.49298185,-0.4845509,-0.47608942,-0.46955234,-0.46298474,-0.45550078,-0.44612288,-0.43674493,-0.43112433,-0.42736703,-0.42736703,-0.42831397,-0.42360973,-0.41517878,-0.40674782,-0.39831692,-0.3936432,-0.39174926,-0.38518173,-0.3739404,-0.35802543,-0.34021658,-0.32427108,-0.31116647,-0.29897827,-0.2839797,-0.26522386,-0.24087793,-0.21369112,-0.183694,-0.15650731,-0.13121444,-0.10402763,-0.07684088,-0.048737705,-0.019687533,0.007499337,0.03468597,0.058115482,0.07870412,0.09651303,0.10964835,0.122752905,0.13213074,0.13964534,0.14337206,0.1405617,0.13402474,0.117132306,0.08902907,0.047790647,-0.0037419796,-0.06278932,-0.11997312,-0.17621005,-0.23336339,-0.29054725,-0.34583724,-0.39550656,-0.43488157,-0.46674204,-0.49484527,-0.51922166,-0.5398409,-0.55575585,-0.5660807,-0.57170135,-0.57451165,-0.576375,-0.576375,-0.5782689,-0.5819956,-0.5829426,-0.5829426,-0.58013225,-0.5754586,-0.5726483,-0.569838,-0.5670277,-0.56137645,-0.55575585,-0.5520291,-0.5501352,-0.5501352,-0.5520291,-0.5529455,-0.55575585,-0.55764973,-0.55764973,-0.55575585,-0.5538925,-0.55108213,-0.5482719,-0.5464085,-0.54451454,-0.54546154,-0.5501352,-0.5520291,-0.5538925,-0.5492188,-0.5407573,-0.5342202,-0.529516,-0.529516,-0.53232634,-0.5360836,-0.53794694,-0.5360836,-0.5342202,-0.5332732,-0.5332732,-0.53513664,-0.5360836,-0.5360836,-0.5360836,-0.5360836,-0.5370306,-0.5370306,-0.5360836,-0.53232634,-0.5285996,-0.52578926,-0.5248423,-0.52578926,-0.5267057,-0.5238954,-0.521085,-0.5173278,-0.51641136,-0.51641136,-0.5145174,-0.5117071,-0.5079804,-0.5051701,-0.5014128,-0.4986025,-0.4920349,-0.47703636,-0.45831108,-0.43769187,-0.42269337,-0.41612577,-0.41050512,-0.39174926,-0.35894185,-0.3148932,-0.27835906,-0.26149708,-0.27179146,-0.2961679,-0.32335466,-0.34208,-0.34864753,-0.34864753,-0.3505109,-0.3645625,-0.39550656,-0.44422895,-0.49954945,-0.54546154,-0.569838,-0.57451165,-0.56794405,-0.56232345,-0.56232345,-0.56513375,-0.56794405,-0.56794405,-0.5670277,-0.5641868,-0.55764973,-0.5501352,-0.5426512,-0.54732484,-0.57075435,-0.6119927,-0.6410429,-0.6213707,-0.521085,-0.31116647,-0.008446217,0.34489024,0.662609,0.8303422,0.8144274,0.57918537,0.18836772,-0.2239855,-0.5529455,-0.7347609,-0.7694622,-0.7160356,-0.6485574,-0.60356176,-0.57732195,-0.5604601,-0.5464085,-0.5342202,-0.5267057,-0.522979,-0.521085,-0.521085,-0.51641136,-0.50984377,-0.49954945,-0.4873612,-0.4789303,-0.47046876,-0.46484816,-0.46112138,-0.45736408,-0.4526599,-0.44422895,-0.43769187,-0.43298763,-0.42831397,-0.42455667,-0.41612577,-0.40674782,-0.39550656,-0.38518173,-0.3758343,-0.3645625,-0.35240483,-0.33551234,-0.31959742,-0.30365193,-0.285843,-0.26803416,-0.2502253,-0.23055309,-0.21274424,-0.19307196,-0.17339975,-0.1480763,-0.11997312,-0.08811271,-0.054358304,-0.025308132,0.0009317398,0.024361134,0.045927286,0.06840992,0.08902907,0.10683787,0.122752905,0.13307774,0.1415087,0.14431906,0.14337206,0.13683498,0.12183654,0.09746003,0.06373608,0.021550894,-0.02625513,-0.0759244,-0.12464678,-0.1752631,-0.22587937,-0.28022242,-0.33083868,-0.3748874,-0.41331547,-0.44236553,-0.4686054,-0.49579215,-0.5173278,-0.5342202,-0.54546154,-0.55108213,-0.5529455,-0.55483943,-0.55670273,-0.55856615,-0.55764973,-0.55575585,-0.5492188,-0.54170424,-0.53513664,-0.5314099,-0.5314099,-0.5314099,-0.5314099,-0.5276526,-0.5248423,-0.522979,-0.5201381,-0.5182748,-0.51360106,-0.5079804,-0.5051701,-0.50422317,-0.5051701,-0.50703347,-0.50703347,-0.5088968,-0.5079804,-0.5079804,-0.50703347,-0.50703347,-0.5079804,-0.50984377,-0.51360106,-0.5145174,-0.5145174,-0.51360106,-0.5107907,-0.5079804,-0.50422317,-0.5014128,-0.49954945,-0.49670857,-0.49670857,-0.49579215,-0.49579215,-0.49765557,-0.49954945,-0.50235975,-0.5032762,-0.50422317,-0.50608647,-0.50608647,-0.50703347,-0.50703347,-0.50608647,-0.5051701,-0.5032762,-0.50235975,-0.5014128,-0.50235975,-0.5051701,-0.50422317,-0.49954945,-0.49484527,-0.4892246,-0.4892246,-0.4910879,-0.49389827,-0.49389827,-0.4910879,-0.4892246,-0.48641425,-0.4854673,-0.48360395,-0.48079365,-0.4789303,-0.47703636,-0.4779833,-0.4789303,-0.48079365,-0.48265702,-0.48265702,-0.48360395,-0.4854673,-0.4845509,-0.47984672,-0.46765846,-0.4451759,-0.419883,-0.39831692,-0.38612866,-0.38145494,-0.3776977,-0.35521513,-0.31584013,-0.2661708,-0.22306907,-0.20617658,-0.21744847,-0.24555165,-0.27460176,-0.2924106,-0.29803127,-0.2952209,-0.2961679,-0.31397676,-0.3514579,-0.40861124,-0.46765846,-0.51360106,-0.5407573,-0.5464085,-0.54170424,-0.53513664,-0.530463,-0.5285996,-0.5285996,-0.529516,-0.529516,-0.5285996,-0.5285996,-0.529516,-0.5370306,-0.55764973,-0.5960778,-0.6279383,-0.6185604,-0.5342202,-0.33832264,-0.037496388,0.32427108,0.6729033,0.87533796,0.88847303,0.6804178,0.29146373,-0.1424557,-0.50608647,-0.7263299,-0.7891345,-0.7413285,-0.6607456,-0.60075146,-0.56232345,-0.53889394,-0.522032,-0.50703347,-0.49765557,-0.49298185,-0.49298185,-0.4920349,-0.4920349,-0.4892246,-0.48079365,-0.47141576,-0.46484816,-0.45831108,-0.4526599,-0.4451759,-0.43769187,-0.43017733,-0.42269337,-0.4170727,-0.41145205,-0.40580088,-0.40018022,-0.3936432,-0.38612866,-0.3767507,-0.3674034,-0.3570785,-0.3448903,-0.33364898,-0.32335466,-0.3148932,-0.3055458,-0.29054725,-0.27084452,-0.24930888,-0.22774273,-0.20617658,-0.18274713,-0.15650731,-0.12935102,-0.10311127,-0.079681754,-0.05625224,-0.029981852,0.0009317398,0.03373909,0.061842322,0.086218715,0.10402763,0.116215825,0.12651014,0.13775146,0.14621294,0.1536969,0.15837073,0.1546439,0.1424557,0.12464678,0.10027027,0.07122016,0.03468597,-0.010309577,-0.06187284,-0.115268886,-0.16777915,-0.21836483,-0.26522386,-0.3120829,-0.35613155,-0.3964535,-0.43393463,-0.46298474,-0.48360395,-0.4986025,-0.5088968,-0.5182748,-0.5276526,-0.5370306,-0.54451454,-0.54732484,-0.54732484,-0.54451454,-0.5398409,-0.5360836,-0.5332732,-0.5332732,-0.53232634,-0.5285996,-0.522032,-0.51360106,-0.5079804,-0.50608647,-0.50703347,-0.50608647,-0.5014128,-0.49670857,-0.49298185,-0.4920349,-0.49579215,-0.4986025,-0.49954945,-0.4986025,-0.49484527,-0.49298185,-0.49298185,-0.49579215,-0.5014128,-0.50235975,-0.50235975,-0.49954945,-0.49579215,-0.49670857,-0.49670857,-0.49579215,-0.4920349,-0.49017155,-0.49017155,-0.49298185,-0.49298185,-0.49017155,-0.4873612,-0.4873612,-0.49017155,-0.49670857,-0.50235975,-0.50608647,-0.5088968,-0.5079804,-0.50422317,-0.50046587,-0.49765557,-0.49765557,-0.49765557,-0.49670857,-0.49298185,-0.49017155,-0.49017155,-0.4910879,-0.49389827,-0.49484527,-0.49579215,-0.49765557,-0.4986025,-0.49954945,-0.49765557,-0.49765557,-0.49765557,-0.49954945,-0.5014128,-0.50046587,-0.49765557,-0.4920349,-0.48641425,-0.48360395,-0.47984672,-0.4789303,-0.4779833,-0.47703636,-0.47608942,-0.47422606,-0.47327906,-0.47327906,-0.47236264,-0.47046876,-0.46579504,-0.46112138,-0.45641714,-0.45550078,-0.45831108,-0.46112138,-0.46484816,-0.46484816,-0.45550078,-0.4386083,-0.41331547,-0.38893896,-0.3711301,-0.36269915,-0.35521513,-0.33270204,-0.2933576,-0.24368823,-0.20431322,-0.19401896,-0.21369112,-0.24930888,-0.28022242,-0.2952209,-0.2952209,-0.28773695,-0.28865337,-0.30835617,-0.3505109,-0.41236848,-0.47422606,-0.5201381,-0.5398409,-0.53794694,-0.529516,-0.5248423,-0.52578926,-0.530463,-0.5360836,-0.53889394,-0.5398409,-0.5398409,-0.5398409,-0.54170424,-0.5520291,-0.576375,-0.6082355,-0.61761343,-0.57451165,-0.44236553,-0.19682926,0.13121438,0.49389827,0.77880955,0.88752615,0.79194474,0.47514236,0.04122305,-0.3748874,-0.67855453,-0.8181846,-0.8144273,-0.7338445,-0.64666355,-0.58480597,-0.54451454,-0.5182748,-0.5032762,-0.49670857,-0.49765557,-0.49954945,-0.49954945,-0.49484527,-0.4854673,-0.47422606,-0.46298474,-0.4526599,-0.44612288,-0.44141865,-0.44050223,-0.4386083,-0.43488157,-0.42831397,-0.41798913,-0.40861124,-0.39926386,-0.3936432,-0.38988596,-0.38612866,-0.38050807,-0.3711301,-0.35894185,-0.34583724,-0.33178568,-0.31865042,-0.30646223,-0.29146367,-0.27646512,-0.25773984,-0.23993093,-0.22212213,-0.20526022,-0.184641,-0.16121155,-0.13402474,-0.10311127,-0.0731141,-0.044980407,-0.017824113,0.009362578,0.03841281,0.06559956,0.09183931,0.11245847,0.13026738,0.14621294,0.16026449,0.17431617,0.18555737,0.19117808,0.19212496,0.18836772,0.17617953,0.15556026,0.12464678,0.084355354,0.03373909,-0.020634532,-0.07497752,-0.12745708,-0.1752631,-0.22212213,-0.2689811,-0.3148932,-0.35894185,-0.39831692,-0.4320407,-0.46017444,-0.4817406,-0.49954945,-0.5117071,-0.522032,-0.5314099,-0.53794694,-0.54451454,-0.54546154,-0.54356766,-0.53889394,-0.5314099,-0.5267057,-0.5238954,-0.5248423,-0.52578926,-0.5267057,-0.5285996,-0.5285996,-0.5285996,-0.5285996,-0.5285996,-0.5285996,-0.52578926,-0.522979,-0.51641136,-0.5107907,-0.50984377,-0.50984377,-0.51360106,-0.51360106,-0.5117071,-0.5088968,-0.50703347,-0.5088968,-0.5107907,-0.50984377,-0.5051701,-0.4986025,-0.49484527,-0.49484527,-0.4986025,-0.50235975,-0.50235975,-0.49765557,-0.49298185,-0.49017155,-0.49017155,-0.4910879,-0.49484527,-0.49670857,-0.49765557,-0.50046587,-0.50046587,-0.49954945,-0.49765557,-0.49389827,-0.4910879,-0.4882776,-0.4882776,-0.49017155,-0.4920349,-0.49389827,-0.49298185,-0.4920349,-0.4892246,-0.4854673,-0.48360395,-0.48265702,-0.4854673,-0.4910879,-0.49389827,-0.49484527,-0.4920349,-0.4882776,-0.4845509,-0.4817406,-0.48079365,-0.4789303,-0.47984672,-0.48079365,-0.4817406,-0.48079365,-0.47703636,-0.47236264,-0.46955234,-0.46765846,-0.47046876,-0.47236264,-0.47608942,-0.4789303,-0.48079365,-0.4817406,-0.4779833,-0.46955234,-0.4526599,-0.4292304,-0.40674782,-0.3870756,-0.3776977,-0.3739404,-0.36269915,-0.33740628,-0.2961679,-0.24930888,-0.21555454,-0.20712352,-0.2239855,-0.2530356,-0.27835906,-0.29054725,-0.2924106,-0.29054725,-0.2961679,-0.32240772,-0.3702137,-0.43393463,-0.49484527,-0.5332732,-0.5464085,-0.53794694,-0.5248423,-0.5173278,-0.51641136,-0.521085,-0.5238954,-0.5248423,-0.5238954,-0.5238954,-0.52578926,-0.5276526,-0.5398409,-0.5641868,-0.59326744,-0.59888804,-0.54546154,-0.39269626,-0.12464678,0.21931171,0.57823837,0.8228582,0.8790952,0.71789896,0.34956396,-0.09840703,-0.50046587,-0.76756835,-0.86785394,-0.83694047,-0.7488431,-0.66636634,-0.6054251,-0.5641868,-0.5360836,-0.5201381,-0.51641136,-0.5182748,-0.5182748,-0.5107907,-0.49670857,-0.48265702,-0.47141576,-0.46579504,-0.46017444,-0.4526599,-0.44236553,-0.43393463,-0.4292304,-0.42736703,