-0.82486975,-0.81457156,-0.79838437,-0.7924953,-0.79838437,-0.8072026,-0.8101625,-0.80279344,-0.7851571,-0.76452994,-0.7468936,-0.7306756,-0.7203774,-0.7174483,-0.7203774,-0.7203774,-0.7144883,-0.7086301,-0.702741,-0.6983011,-0.69685197,-0.70126104,-0.702741,-0.7071501,-0.7159683,-0.7174483,-0.7203774,-0.7159683,-0.71007925,-0.70126104,-0.6894829,-0.6762248,-0.67329574,-0.6777048,-0.6909629,-0.71007925,-0.7218574,-0.7248173,-0.72333735,-0.7189282,-0.7159683,-0.71155924,-0.71007925,-0.7086301,-0.6997811,-0.693892,-0.68800294,-0.6909629,-0.6983011,-0.7056702,-0.7056702,-0.69685197,-0.692412,-0.692412,-0.6997811,-0.7071501,-0.6997811,-0.6806648,-0.65858847,-0.6379613,-0.62032497,-0.61002684,-0.5982487,-0.5864706,-0.5761725,-0.55850524,-0.5305399,-0.50112545,-0.4746092,-0.4628619,-0.46431106,-0.4554929,-0.43930566,-0.42604756,-0.4245984,-0.458422,-0.5246508,-0.60706687,-0.68507385,-0.7380446,-0.7542318,-0.7468936,-0.73656464,-0.7277465,-0.73656464,-0.7513027,-0.7557118,-0.7527518,-0.7439337,-0.72626644,-0.7159683,-0.71007925,-0.6997811,-0.6821139,-0.6541486,-0.59528875,-0.49079645,-0.31125712,-0.09641415,0.10520136,0.25680637,0.3127061,0.21854281,-0.037523568,-0.3789659,-0.7144883,-0.9190639,-0.932322,-0.81164247,-0.6615176,-0.5540961,-0.5114236,-0.5099436,-0.5276108,-0.542318,-0.5364289,-0.5217217,-0.50698364,-0.5055345,-0.50405455,-0.48934728,-0.46579105,-0.4363457,-0.42311847,-0.42604756,-0.4348966,-0.44519472,-0.44519472,-0.4407856,-0.42752755,-0.40838033,-0.3848549,-0.3671878,-0.3568896,-0.35540962,-0.35540962,-0.3539297,-0.3436315,-0.32599515,-0.30391884,-0.27888268,-0.25387728,-0.24061912,-0.23621005,-0.23473006,-0.22443193,-0.2038356,-0.17735028,-0.15379399,-0.13319772,-0.11553049,-0.09197426,-0.055190742,-0.027225375,-0.0036999583,0.016927242,0.036043525,0.06107974,0.07726705,0.08460522,0.09638333,0.10964143,0.12434864,0.12727773,0.112570524,0.08901417,0.06252885,0.033114433,-0.009589016,-0.07578701,-0.16116303,-0.25239724,-0.33922237,-0.41426945,-0.47904915,-0.5276108,-0.56880337,-0.6041378,-0.64681035,-0.6909629,-0.7277465,-0.7380446,-0.73215556,-0.7292264,-0.7292264,-0.7439337,-0.7586409,-0.7674899,-0.77337897,-0.7836771,-0.7807172,-0.770419,-0.76308084,-0.7571918,-0.7557118,-0.7527518,-0.73656464,-0.7144883,-0.7086301,-0.7159683,-0.7248173,-0.7218574,-0.7056702,-0.692412,-0.6806648,-0.6747757,-0.6629976,-0.6497395,-0.6424012,-0.64385045,-0.6526994,-0.6615176,-0.65858847,-0.6497395,-0.6379613,-0.62473404,-0.6144359,-0.6144359,-0.62766325,-0.64829034,-0.6644776,-0.66888666,-0.6629976,-0.6541486,-0.64533037,-0.6424012,-0.6409213,-0.63503224,-0.63503224,-0.6409213,-0.6512195,-0.6541486,-0.6526994,-0.64829034,-0.64533037,-0.6394414,-0.63503224,-0.626214,-0.617365,-0.617365,-0.62032497,-0.62177414,-0.617365,-0.615885,-0.611476,-0.5908797,-0.56880337,-0.55113626,-0.5364289,-0.5276108,-0.5143527,-0.49079645,-0.46579105,-0.44519472,-0.43045664,-0.41426945,-0.38633496,-0.3642586,-0.35540962,-0.35100055,-0.3436315,-0.33774245,-0.33922237,-0.3671878,-0.42900747,-0.50405455,-0.5717634,-0.626214,-0.65562856,-0.67329574,-0.6762248,-0.6659267,-0.6541486,-0.6497395,-0.6541486,-0.65562856,-0.66003764,-0.65710855,-0.64829034,-0.64681035,-0.63503224,-0.61002684,-0.58058155,-0.5128727,-0.381895,-0.15527403,0.14201593,0.42897654,0.6320722,0.693892,0.5746615,0.26858437,-0.1243487,-0.5128727,-0.77630806,-0.83960783,-0.74982274,-0.61002684,-0.50405455,-0.45697284,-0.45108378,-0.46431106,-0.48049825,-0.49227643,-0.49227643,-0.48197824,-0.4628619,-0.4422348,-0.4334166,-0.43045664,-0.42604756,-0.41574937,-0.40252215,-0.38778406,-0.383375,-0.37748593,-0.36129868,-0.33922237,-0.32010603,-0.3083279,-0.3024389,-0.3024389,-0.29947895,-0.29214072,-0.2818426,-0.2671045,-0.24650824,-0.22295201,-0.20531559,-0.19942653,-0.19646657,-0.19501746,-0.18764836,-0.17146116,-0.14497584,-0.10964143,-0.07137793,-0.040483475,-0.015447259,0.0036690235,0.028674483,0.058119774,0.08315599,0.09638333,0.103752255,0.11109054,0.12727773,0.13905573,0.14053583,0.14790487,0.15083396,0.15672302,0.15820312,0.14346492,0.11109054,0.06252885,0.0080782175,-0.049301624,-0.1126014,-0.18027937,-0.25091726,-0.32599515,-0.40252215,-0.47020012,-0.5290599,-0.5732125,-0.6011778,-0.6306231,-0.65710855,-0.6777048,-0.6894829,-0.69685197,-0.702741,-0.71155924,-0.7292264,-0.7424537,-0.73215556,-0.7218574,-0.71155924,-0.6983011,-0.6909629,-0.68655384,-0.6894829,-0.692412,-0.6894829,-0.68359387,-0.6674067,-0.6512195,-0.6424012,-0.6379613,-0.63355225,-0.6291431,-0.6321031,-0.6394414,-0.6379613,-0.62473404,-0.60706687,-0.6011778,-0.6041378,-0.6129559,-0.6129559,-0.5982487,-0.58351064,-0.58058155,-0.5908797,-0.6011778,-0.59528875,-0.58351064,-0.57028335,-0.56732345,-0.57028335,-0.58206147,-0.5908797,-0.5996978,-0.6041378,-0.6055869,-0.6011778,-0.5996978,-0.60706687,-0.611476,-0.6144359,-0.6055869,-0.6011778,-0.60854685,-0.62032497,-0.62473404,-0.618845,-0.6026578,-0.5938396,-0.6026578,-0.6129559,-0.61002684,-0.6011778,-0.5893997,-0.58206147,-0.58351064,-0.58206147,-0.57910156,-0.5658742,-0.5599852,-0.54524714,-0.5276108,-0.50698364,-0.48345822,-0.458422,-0.43045664,-0.40545124,-0.38926405,-0.37600595,-0.3715968,-0.3715968,-0.3642586,-0.34807146,-0.32451516,-0.3083279,-0.31125712,-0.35100055,-0.4348966,-0.534949,-0.62032497,-0.6703666,-0.6806648,-0.66888666,-0.6541486,-0.64681035,-0.64829034,-0.6541486,-0.65858847,-0.6629976,-0.66888666,-0.6644776,-0.6629976,-0.6674067,-0.67181575,-0.66888666,-0.6497395,-0.57910156,-0.4348966,-0.18616837,0.14346492,0.48194742,0.7394937,0.8498751,0.7380445,0.39660215,-0.050781667,-0.48490733,-0.768939,-0.8425369,-0.76160085,-0.63355225,-0.5364289,-0.49375635,-0.48197824,-0.49375635,-0.5114236,-0.51583266,-0.51583266,-0.51583266,-0.5084636,-0.49523634,-0.47608918,-0.4481238,-0.4245984,-0.41282028,-0.40693122,-0.41426945,-0.41722935,-0.4245984,-0.4216385,-0.40838033,-0.39074403,-0.3671878,-0.34807146,-0.33188426,-0.31421703,-0.29802984,-0.2803626,-0.2671045,-0.2553572,-0.24061912,-0.22295201,-0.20531559,-0.1891284,-0.16557217,-0.14497584,-0.119939566,-0.103752375,-0.10082328,-0.09786326,-0.087565124,-0.06403971,-0.03163445,0.005149007,0.0404526,0.074307084,0.11109054,0.13612664,0.15524304,0.16409206,0.18172848,0.19646657,0.20676482,0.20824468,0.19646657,0.18616843,0.18616843,0.1758703,0.13905573,0.07578695,-0.0036999583,-0.08611596,-0.15675396,-0.2273919,-0.305368,-0.37748593,-0.44519472,-0.5055345,-0.5526162,-0.59676874,-0.63355225,-0.6526994,-0.6674067,-0.6806648,-0.693892,-0.70419014,-0.71155924,-0.71007925,-0.7086301,-0.7086301,-0.7071501,-0.702741,-0.69685197,-0.69685197,-0.70126104,-0.71155924,-0.71303916,-0.70126104,-0.6894829,-0.6791848,-0.67181575,-0.6703666,-0.6674067,-0.66888666,-0.6659267,-0.6615176,-0.64829034,-0.62766325,-0.618845,-0.611476,-0.60854685,-0.6026578,-0.5908797,-0.58206147,-0.5879506,-0.5982487,-0.61002684,-0.6129559,-0.60854685,-0.60854685,-0.60854685,-0.60854685,-0.61002684,-0.60706687,-0.6026578,-0.6011778,-0.6026578,-0.60854685,-0.6129559,-0.6144359,-0.61002684,-0.6041378,-0.59528875,-0.5908797,-0.5893997,-0.5879506,-0.59235966,-0.59676874,-0.6026578,-0.611476,-0.611476,-0.60706687,-0.6055869,-0.6026578,-0.6041378,-0.6055869,-0.6055869,-0.5982487,-0.5938396,-0.5908797,-0.5849906,-0.5776216,-0.5761725,-0.58351064,-0.5908797,-0.59676874,-0.59235966,-0.58351064,-0.5761725,-0.5717634,-0.5629144,-0.55702525,-0.55850524,-0.56880337,-0.5732125,-0.56732345,-0.55702525,-0.55113626,-0.5614344,-0.5761725,-0.58206147,-0.5761725,-0.5746925,-0.5761725,-0.57910156,-0.56732345,-0.54524714,-0.5276108,-0.5114236,-0.5055345,-0.49523634,-0.4731601,-0.44519472,-0.42604756,-0.39956224,-0.36129868,-0.33629328,-0.32155526,-0.32303518,-0.32744426,-0.3186261,-0.31566614,-0.33333337,-0.39956224,-0.4996454,-0.5908797,-0.6526994,-0.6777048,-0.6806648,-0.6703666,-0.6541486,-0.63503224,-0.62177414,-0.62473404,-0.63355225,-0.6409213,-0.6409213,-0.6365122,-0.63503224,-0.63355225,-0.62177414,-0.5908797,-0.52024174,-0.36129868,-0.08315611,0.2832917,0.64385045,0.90139663,0.9720346,0.770419,0.35685873,-0.12878859,-0.5643943,-0.8042734,-0.8175315,-0.693892,-0.5629144,-0.49079645,-0.47608918,-0.49668545,-0.51876175,-0.5217217,-0.5114236,-0.4996454,-0.49523634,-0.49523634,-0.48490733,-0.47756916,-0.46727103,-0.45697284,-0.4496038,-0.4363457,-0.42752755,-0.43193662,-0.43045664,-0.41870934,-0.39219314,-0.36277866,-0.35248047,-0.3539297,-0.3568896,-0.34952056,-0.33481336,-0.32451516,-0.32451516,-0.32010603,-0.306848,-0.28918082,-0.2671045,-0.24650824,-0.228841,-0.20531559,-0.18175936,-0.16998124,-0.15968305,-0.15086484,-0.13319772,-0.1126014,-0.087565124,-0.059599817,-0.024296284,0.012487292,0.046341658,0.06989789,0.08315599,0.090494275,0.10079241,0.112570524,0.1169796,0.11993945,0.11993945,0.121388674,0.11553037,0.10079241,0.06841791,0.021336198,-0.034594476,-0.103752375,-0.18468845,-0.2715444,-0.35540962,-0.42311847,-0.47756916,-0.5261308,-0.5776216,-0.62473404,-0.6629976,-0.692412,-0.7144883,-0.7424537,-0.770419,-0.78956616,-0.7939753,-0.79838437,-0.79838437,-0.80279344,-0.8042734,-0.8057534,-0.8042734,-0.7939753,-0.779268,-0.7660099,-0.7586409,-0.76012087,-0.7674899,-0.768939,-0.76160085,-0.74982274,-0.7410045,-0.73363554,-0.7189282,-0.70419014,-0.6909629,-0.6909629,-0.70126104,-0.7071501,-0.7056702,-0.693892,-0.6806648,-0.6777048,-0.6777048,-0.6747757,-0.67181575,-0.66888666,-0.6674067,-0.6703666,-0.6762248,-0.6791848,-0.68507385,-0.6894829,-0.68507385,-0.6747757,-0.66888666,-0.6644776,-0.67181575,-0.6747757,-0.67181575,-0.6703666,-0.67181575,-0.6747757,-0.6762248,-0.6747757,-0.67181575,-0.6674067,-0.6629976,-0.65710855,-0.64385045,-0.6365122,-0.6321031,-0.6409213,-0.6512195,-0.6615176,-0.6659267,-0.6747757,-0.6747757,-0.6674067,-0.6629976,-0.65562856,-0.6497395,-0.65562856,-0.65562856,-0.64829034,-0.6409213,-0.6394414,-0.6424012,-0.6409213,-0.6379613,-0.63503224,-0.6424012,-0.6526994,-0.65858847,-0.65710855,-0.64533037,-0.6379613,-0.6394414,-0.6409213,-0.64533037,-0.64533037,-0.63503224,-0.62473404,-0.5982487,-0.56732345,-0.542318,-0.5217217,-0.50257456,-0.48490733,-0.46431106,-0.43930566,-0.42604756,-0.41722935,-0.39663303,-0.3657078,-0.34807146,-0.36129868,-0.41134036,-0.49079645,-0.5717634,-0.63355225,-0.67329574,-0.6983011,-0.7071501,-0.702741,-0.6997811,-0.6983011,-0.70126104,-0.69685197,-0.692412,-0.68655384,-0.68359387,-0.6909629,-0.6909629,-0.6703666,-0.6379613,-0.59528875,-0.53201985,-0.42311847,-0.2420991,-0.034594476,0.15672302,0.29358983,0.31566596,0.16998112,-0.11553049,-0.46872014,-0.779268,-0.93084204,-0.90139675,-0.76308084,-0.62177414,-0.5305399,-0.48345822,-0.47904915,-0.4996454,-0.52024174,-0.5305399,-0.5246508,-0.5084636,-0.49375635,-0.48345822,-0.48197824,-0.47608918,-0.47020012,-0.46579105,-0.45401293,-0.43782568,-0.4216385,-0.40693122,-0.40986037,-0.41426945,-0.40986037,-0.39219314,-0.36277866,-0.33774245,-0.32744426,-0.32744426,-0.32599515,-0.3186261,-0.31125712,-0.30095893,-0.29214072,-0.27447355,-0.25239724,-0.23621005,-0.22295201,-0.21561372,-0.20235562,-0.17146116,-0.13171768,-0.103752375,-0.08315611,-0.06844884,-0.055190742,-0.03900349,-0.0125181675,0.005149007,0.028674483,0.052230716,0.06989789,0.07871604,0.07578695,0.0728271,0.07726705,0.07871604,0.08315599,0.07578695,0.058119774,0.03163445,-0.00662905,-0.06696892,-0.14497584,-0.2273919,-0.30391884,-0.37600595,-0.4496038,-0.5231708,-0.5982487,-0.6541486,-0.6983011,-0.7203774,-0.7380446,-0.7527518,-0.7660099,-0.779268,-0.7954552,-0.80279344,-0.8042734,-0.8057534,-0.8042734,-0.8013443,-0.80279344,-0.79986435,-0.7910153,-0.7851571,-0.7836771,-0.7807172,-0.77778804,-0.77337897,-0.7660099,-0.7586409,-0.7571918,-0.7542318,-0.7439337,-0.7292264,-0.71303916,-0.70126104,-0.693892,-0.692412,-0.6821139,-0.6777048,-0.6821139,-0.68800294,-0.6983011,-0.7071501,-0.7056702,-0.69685197,-0.68800294,-0.6821139,-0.68507385,-0.68655384,-0.693892,-0.69685197,-0.692412,-0.6894829,-0.68655384,-0.68507385,-0.68507385,-0.68359387,-0.6791848,-0.6747757,-0.6747757,-0.6821139,-0.68507385,-0.6894829,-0.68800294,-0.6909629,-0.692412,-0.6894829,-0.68359387,-0.6777048,-0.68359387,-0.693892,-0.70419014,-0.71155924,-0.7071501,-0.693892,-0.6777048,-0.6659267,-0.65710855,-0.66003764,-0.6674067,-0.66888666,-0.6644776,-0.66003764,-0.66003764,-0.66888666,-0.6674067,-0.6526994,-0.63355225,-0.617365,-0.6026578,-0.5893997,-0.5732125,-0.5526162,-0.53201985,-0.5114236,-0.48934728,-0.46579105,-0.45108378,-0.45990193,-0.47020012,-0.45990193,-0.43193662,-0.40104216,-0.39808226,-0.4481238,-0.5393889,-0.63355225,-0.702741,-0.7380446,-0.7395246,-0.7174483,-0.695372,-0.68507385,-0.68359387,-0.6909629,-0.70126104,-0.70126104,-0.6983011,-0.69685197,-0.70419014,-0.7071501,-0.693892,-0.6629976,-0.611476,-0.5217217,-0.3730768,-0.15379399,0.08167601,0.2818116,0.39512217,0.3745259,0.17291033,-0.15379399,-0.51583266,-0.80279344,-0.91317487,-0.846946,-0.70126104,-0.5761725,-0.50405455,-0.48049825,-0.48638737,-0.50257456,-0.51583266,-0.5231708,-0.51583266,-0.50698364,-0.49668545,-0.4878673,-0.47904915,-0.46431106,-0.45401293,-0.44519472,-0.43930566,-0.4363457,-0.4245984,-0.40545124,-0.39663303,-0.38926405,-0.3848549,-0.3730768,-0.3539297,-0.33481336,-0.32010603,-0.31421703,-0.3083279,-0.29506987,-0.27447355,-0.25976634,-0.25091726,-0.2420991,-0.23180091,-0.2200228,-0.20824468,-0.1891284,-0.15968305,-0.1243487,-0.08315611,-0.059599817,-0.05226159,-0.041963458,-0.018407226,0.013967156,0.052230716,0.07871604,0.09638333,0.106681466,0.112570524,0.11405051,0.11993945,0.12434864,0.13171768,0.1302377,0.11405051,0.08460522,0.0537107,0.0228163,-0.021336317,-0.07726705,-0.15086484,-0.23621005,-0.3186261,-0.39663303,-0.4716801,-0.5393889,-0.5879506,-0.626214,-0.6541486,-0.6762248,-0.6997811,-0.71007925,-0.71155924,-0.7189282,-0.7306756,-0.7571918,-0.7851571,-0.79838437,-0.7924953,-0.779268,-0.76452994,-0.7527518,-0.74834275,-0.74541366,-0.74982274,-0.7542318,-0.7513027,-0.73656464,-0.7159683,-0.6997811,-0.6983011,-0.70419014,-0.7056702,-0.6983011,-0.693892,-0.68507385,-0.6747757,-0.66003764,-0.64533037,-0.63355225,-0.626214,-0.62032497,-0.617365,-0.611476,-0.615885,-0.62766325,-0.6321031,-0.63503224,-0.63355225,-0.6291431,-0.62177414,-0.6129559,-0.6011778,-0.5996978,-0.6144359,-0.6306231,-0.6394414,-0.64385045,-0.64385045,-0.64681035,-0.6512195,-0.64385045,-0.6306231,-0.615885,-0.6144359,-0.62473404,-0.6379613,-0.6409213,-0.6379613,-0.63503224,-0.63355225,-0.63503224,-0.6321031,-0.626214,-0.62177414,-0.6232541,-0.63355225,-0.63355225,-0.626214,-0.615885,-0.6041378,-0.60706687,-0.62473404,-0.63355225,-0.6379613,-0.6321031,-0.615885,-0.5982487,-0.5849906,-0.5761725,-0.5658742,-0.5599852,-0.549687,-0.54524714,-0.542318,-0.534949,-0.5099436,-0.47904915,-0.4496038,-0.43045664,-0.4245984,-0.42311847,-0.41870934,-0.40693122,-0.38633496,-0.3642586,-0.34659147,-0.3568896,-0.40838033,-0.4981655,-0.5982487,-0.66888666,-0.6983011,-0.692412,-0.6747757,-0.65858847,-0.6541486,-0.6497395,-0.6497395,-0.65562856,-0.6644776,-0.6644776,-0.6644776,-0.6629976,-0.6541486,-0.63503224,-0.5982487,-0.5143527,-0.36866772,-0.13760674,0.15672302,0.44812393,0.6644467,0.73360455,0.59528875,0.24650812,-0.18616837,-0.57910156,-0.81457156,-0.84105694,-0.73215556,-0.5908797,-0.50112545,-0.46872014,-0.4746092,-0.4996454,-0.51583266,-0.5099436,-0.49375635,-0.47904915,-0.4746092,-0.46579105,-0.4554929,-0.4466439,-0.4422348,-0.4437148,-0.44519472,-0.42752755,-0.40397125,-0.381895,-0.3657078,-0.35248047,-0.3421824,-0.33333337,-0.32599515,-0.32155526,-0.31566614,-0.29947895,-0.28625166,-0.2715444,-0.26269543,-0.24946815,-0.23328096,-0.2141338,-0.19646657,-0.17883027,-0.15968305,-0.1434958,-0.13319772,-0.12289959,-0.111121416,-0.09052515,-0.05815071,-0.028705359,-0.011038184,0.0066291094,0.03163445,0.06252885,0.09638333,0.12727773,0.15231395,0.17291033,0.18616843,0.18909752,0.18172848,0.17439032,0.17143023,0.16850114,0.15524304,0.112570524,0.0537107,-0.016927183,-0.087565124,-0.15379399,-0.2273919,-0.305368,-0.38778406,-0.45401293,-0.5114236,-0.5643943,-0.6055869,-0.6365122,-0.6644776,-0.6894829,-0.71155924,-0.73215556,-0.7439337,-0.7468936,-0.74541366,-0.7513027,-0.7586409,-0.76012087,-0.7557118,-0.74834275,-0.74541366,-0.74541366,-0.74541366,-0.7424537,-0.73511547,-0.73215556,-0.73656464,-0.73215556,-0.7218574,-0.7086301,-0.695372,-0.6894829,-0.68800294,-0.6806648,-0.66888666,-0.65710855,-0.6497395,-0.64681035,-0.64681035,-0.64385045,-0.64533037,-0.6394414,-0.62766325,-0.615885,-0.61002684,-0.61002684,-0.615885,-0.62177414,-0.626214,-0.6291431,-0.63355225,-0.63503224,-0.62766325,-0.615885,-0.6055869,-0.6055869,-0.6144359,-0.62177414,-0.62766325,-0.63355225,-0.6409213,-0.64829034,-0.6526994,-0.6541486,-0.65710855,-0.65858847,-0.6629976,-0.6644776,-0.6541486,-0.64533037,-0.6409213,-0.6409213,-0.64681035,-0.64681035,-0.64385045,-0.6379613,-0.63355225,-0.6306231,-0.6232541,-0.62177414,-0.626214,-0.63503224,-0.63355225,-0.62766325,-0.6144359,-0.6055869,-0.6055869,-0.61002684,-0.6129559,-0.61002684,-0.5996978,-0.5908797,-0.57910156,-0.5746925,-0.5776216,-0.5849906,-0.5879506,-0.58206147,-0.5717634,-0.55557615,-0.540838,-0.5246508,-0.50698364,-0.48638737,-0.4746092,-0.47020012,-0.46579105,-0.4525329,-0.42752755,-0.39808226,-0.37455678,-0.36866772,-0.3730768,-0.37455678,-0.3657078,-0.34807146,-0.33481336,-0.33922237,-0.37455678,-0.4437148,-0.53201985,-0.611476,-0.66003764,-0.67181575,-0.6615176,-0.64681035,-0.6424012,-0.64385045,-0.64681035,-0.64533037,-0.6409213,-0.6365122,-0.63503224,-0.6379613,-0.6321031,-0.618845,-0.5908797,-0.5084636,-0.33922237,-0.05815071,0.30388796,0.64385045,0.8734313,0.93522024,0.74979186,0.35685873,-0.10964143,-0.5276108,-0.76452994,-0.78808624,-0.6777048,-0.5540961,-0.48197824,-0.45990193,-0.47020012,-0.49668545,-0.5217217,-0.5305399,-0.5217217,-0.50698364,-0.49375635,-0.48345822,-0.4731601,-0.46431106,-0.45401293,-0.4481238,-0.4422348,-0.42752755,-0.41134036,-0.39663303,-0.38778406,-0.38633496,-0.381895,-0.3715968,-0.3657078,-0.36129868,-0.3568896,-0.3451115,-0.32451516,-0.3024389,-0.28477168,-0.27299356,-0.25828636,-0.23913914,-0.2200228,-0.2038356,-0.18616837,-0.16557217,-0.14642495,-0.1273086,-0.10816145,-0.09052515,-0.06403971,-0.033114374,-0.0022200346,0.025745392,0.05075085,0.08167601,0.10964143,0.12727773,0.13171768,0.13171768,0.13905573,0.1626122,0.19205749,0.20528471,0.19939566,0.18027925,0.15524304,0.12727773,0.08608508,0.025745392,-0.049301624,-0.13319772,-0.21561372,-0.2965498,-0.37600595,-0.4407856,-0.49227643,-0.543798,-0.5893997,-0.6291431,-0.65858847,-0.67329574,-0.6806648,-0.693892,-0.7174483,-0.7380446,-0.74982274,-0.7571918,-0.76308084,-0.770419,-0.77482814,-0.770419,-0.76012087,-0.7527518,-0.7513027,-0.7542318,-0.7586409,-0.7557118,-0.7468936,-0.7277465,-0.7056702,-0.68655384,-0.6762248,-0.67329574,-0.6777048,-0.6747757,-0.6703666,-0.6674067,-0.67329574,-0.6762248,-0.67181575,-0.66003764,-0.6409213,-0.63503224,-0.64681035,-0.6644776,-0.6791848,-0.6806648,-0.67181575,-0.6629976,-0.6512195,-0.6394414,-0.6321031,-0.6379613,-0.6526994,-0.6629976,-0.6644776,-0.6541486,-0.64681035,-0.6512195,-0.6629976,-0.67329574,-0.6791848,-0.68359387,-0.68800294,-0.692412,-0.693892,-0.6894829,-0.68359387,-0.6762248,-0.6674067,-0.65858847,-0.65710855,-0.65858847,-0.6629976,-0.6659267,-0.6615176,-0.6629976,-0.6659267,-0.66888666,-0.6629976,-0.6541486,-0.64681035,-0.64829034,-0.65562856,-0.65710855,-0.64385045,-0.6306231,-0.62032497,-0.6232541,-0.62766325,-0.6232541,-0.6129559,-0.5996978,-0.5864706,-0.5849906,-0.5879506,-0.59528875,-0.61002684,-0.615885,-0.60706687,-0.5864706,-0.5614344,-0.542318,-0.5290599,-0.52024174,-0.49668545,-0.46431106,-0.43193662,-0.40397125,-0.38044584,-0.3671878,-0.36866772,-0.3715968,-0.36866772,-0.34659147,-0.32451516,-0.33188426,-0.37748593,-0.46431106,-0.5540961,-0.62177414,-0.6629976,-0.68800294,-0.692412,-0.6821139,-0.66003764,-0.64533037,-0.6409213,-0.64533037,-0.6512195,-0.65562856,-0.6615176,-0.67181575,-0.6644776,-0.63355225,-0.5879506,-0.5231708,-0.42900747,-0.2774027,-0.08022696,0.12286866,0.2818116,0.3436314,0.24795723,-0.008109033,-0.3451115,-0.6791848,-0.88961864,-0.91758394,-0.81309164,-0.6674067,-0.5540961,-0.49668545,-0.48638737,-0.50405455,-0.5261308,-0.534949,-0.5276108,-0.5099436,-0.48934728,-0.47020012,-0.4628619,-0.46431106,-0.46727103,-0.4628619,-0.4496038,-0.4334166,-0.41574937,-0.40693122,-0.39219314,-0.3701169,-0.35248047,-0.33922237,-0.33333337,-0.32744426,-0.32010603,-0.31273705,-0.306848,-0.3024389,-0.28918082,-0.2715444,-0.25239724,-0.24061912,-0.23180091,-0.22150284,-0.20235562,-0.18175936,-0.16261214,-0.14201587,-0.119939566,-0.09641415,-0.07137793,-0.056670725,-0.046372533,-0.025776267,0.0036690235,0.025745392,0.046341658,0.06107974,0.07871604,0.103752255,0.13171768,0.14790487,0.15083396,0.14790487,0.13905573,0.12727773,0.10816145,0.08019614,0.0404526,-0.015447259,-0.087565124,-0.17146116,-0.26269543,-0.3421824,-0.40838033,-0.4628619,-0.51731265,-0.57028335,-0.62032497,-0.6644776,-0.6997811,-0.7277465,-0.7513027,-0.76012087,-0.76308084,-0.76452994,-0.77482814,-0.78660625,-0.7910153,-0.7836771,-0.77482814,-0.770419,-0.77630806,-0.77482814,-0.76160085,-0.7424537,-0.7277465,-0.7218574,-0.7189282,-0.7159683,-0.71007925,-0.70419014,-0.70419014,-0.70126104,-0.695372,-0.68507385,-0.6762248,-0.6674067,-0.6615176,-0.65562856,-0.65562856,-0.6541486,-0.6526994,-0.64385045,-0.6321031,-0.62766325,-0.6321031,-0.6394414,-0.6394414,-0.6306231,-0.62032497,-0.62032497,-0.6321031,-0.64385045,-0.6526994,-0.6541486,-0.65710855,-0.6615176,-0.6674067,-0.6703666,-0.6644776,-0.66003764,-0.6615176,-0.6659267,-0.6747757,-0.68507385,-0.692412,-0.69685197,-0.69685197,-0.6894829,-0.67329574,-0.6615176,-0.65858847,-0.6629976,-0.6659267,-0.6644776,-0.65562856,-0.64681035,-0.6424012,-0.6409213,-0.6379613,-0.6379613,-0.6379613,-0.6394414,-0.6409213,-0.6424012,-0.64385045,-0.64385045,-0.6394414,-0.6291431,-0.6144359,-0.6055869,-0.6011778,-0.5893997,-0.5717634,-0.549687,-0.5305399,-0.5143527,-0.4981655,-0.47904915,-0.45401293,-0.4407856,-0.43930566,-0.43045664,-0.40838033,-0.3701169,-0.3421824,-0.3451115,-0.38633496,-0.46431106,-0.5526162,-0.6306231,-0.6806648,-0.695372,-0.68359387,-0.6644776,-0.65562856,-0.65858847,-0.6644776,-0.6629976,-0.65858847,-0.6541486,-0.6541486,-0.65858847,-0.64829034,-0.62766325,-0.5982487,-0.5526162,-0.46431106,-0.3083279,-0.09197426,0.12727773,0.2979989,0.38923323,0.35685873,0.15083396,-0.17294115,-0.53349984,-0.8086825,-0.89991677,-0.8175315,-0.6674067,-0.543798,-0.47904915,-0.45990193,-0.46872014,-0.48638737,-0.4996454,-0.49668545,-0.48345822,-0.46872014,-0.45697284,-0.45401293,-0.45401293,-0.44519472,-0.43045664,-0.41134036,-0.39663303,-0.39219314,-0.39219314,-0.38778406,-0.3789659,-0.3598187,-0.33774245,-0.31566614,-0.30095893,-0.29947895,-0.30095893,-0.29802984,-0.2906608,-0.27595347,-0.26269543,-0.2553572,-0.24650824,-0.23032099,-0.20972472,-0.18468845,-0.16850126,-0.15086484,-0.13467765,-0.1184904,-0.10230321,-0.08463603,-0.062559724,-0.030185282,0.0036690235,0.033114433,0.058119774,0.08167601,0.10227227,0.12434864,0.13760674,0.14053583,0.14494503,0.14935398,0.15524304,0.15672302,0.14642489,0.1302377,0.10816145,0.07578695,0.028674483,-0.037523568,-0.111121416,-0.1891284,-0.26417536,-0.33922237,-0.41282028,-0.4746092,-0.5276108,-0.57028335,-0.6026578,-0.6291431,-0.6512195,-0.6659267,-0.6806648,-0.695372,-0.7086301,-0.7159683,-0.7174483,-0.71155924,-0.70419014,-0.70126104,-0.695372,-0.693892,-0.693892,-0.69685197,-0.6909629,-0.6777048,-0.6644776,-0.65858847,-0.66003764,-0.6674067,-0.6659267,-0.6512195,-0.6306231,-0.62032497,-0.62177414,-0.626214,-0.626214,-0.62473404,-0.617365,-0.6129559,-0.611476,-0.6055869,-0.5982487,-0.5908797,-0.5849906,-0.5849906,-0.5879506,-0.59528875,-0.6026578,-0.6129559,-0.615885,-0.6144359,-0.611476,-0.611476,-0.61002684,-0.6055869,-0.59528875,-0.5938396,-0.6026578,-0.615885,-0.626214,-0.6232541,-0.6144359,-0.61002684,-0.61002684,-0.611476,-0.60854685,-0.6041378,-0.6011778,-0.5996978,-0.5996978,-0.59528875,-0.5908797,-0.5908797,-0.5893997,-0.58351064,-0.5776216,-0.5761725,-0.58058155,-0.5879506,-0.5908797,-0.5849906,-0.5761725,-0.57028335,-0.56732345,-0.5643943,-0.5629144,-0.5643943,-0.5732125,-0.5776216,-0.5746925,-0.5614344,-0.5379089,-0.51583266,-0.4996454,-0.48345822,-0.46727103,-0.4525329,-0.4437148,-0.43193662,-0.41282028,-0.39074403,-0.3730768,-0.36129868,-0.36129868,-0.3642586,-0.34952056,-0.32010603,-0.28918082,-0.27299356,-0.2832917,-0.33333337,-0.41574937,-0.5084636,-0.5849906,-0.6291431,-0.6365122,-0.6232541,-0.60854685,-0.60706687,-0.60706687,-0.60706687,-0.6055869,-0.60706687,-0.61002684,-0.60854685,-0.6026578,-0.58351064,-0.55702525,-0.52024174,-0.4363457,-0.2685845,0.0036690235,0.3303733,0.62177396,0.8042426,0.8322078,0.6497394,0.28770077,-0.14201587,-0.5246508,-0.7380446,-0.7468936,-0.6321031,-0.5114236,-0.4437148,-0.4216385,-0.42604756,-0.4363457,-0.44519472,-0.4466439,-0.43782568,-0.42752755,-0.4216385,-0.41574937,-0.40693122,-0.39663303,-0.38778406,-0.3848549,-0.383375,-0.3730768,-0.35540962,-0.32892424,-0.3024389,-0.28477168,-0.2715444,-0.25828636,-0.25239724,-0.24798816,-0.24650824,-0.24357915,-0.23328096,-0.21854281,-0.20676476,-0.19942653,-0.19501746,-0.1891284,-0.17735028,-0.15968305,-0.14497584,-0.1243487,-0.10523236,-0.078746974,-0.055190742,-0.0360744,-0.015447259,0.0080782175,0.033114433,0.06107974,0.103752255,0.14790487,0.18468833,0.20528471,0.20380461,0.18320847,0.1758703,0.18761742,0.21265376,0.23473,0.24061918,0.23325002,0.20676482,0.16554129,0.11109054,0.041932583,-0.030185282,-0.10230321,-0.16705209,-0.23769003,-0.30980796,-0.37600595,-0.4363457,-0.49079645,-0.542318,-0.5908797,-0.63355225,-0.66003764,-0.67181575,-0.68359387,-0.695372,-0.7071501,-0.71303916,-0.70419014,-0.68507385,-0.6747757,-0.6777048,-0.6894829,-0.7071501,-0.7189282,-0.7174483,-0.7056702,-0.6909629,-0.6777048,-0.6747757,-0.6762248,-0.67181575,-0.6644776,-0.64681035,-0.6306231,-0.62177414,-0.6129559,-0.60706687,-0.60706687,-0.60854685,-0.611476,-0.61002684,-0.5982487,-0.5849906,-0.58058155,-0.57910156,-0.58351064,-0.5864706,-0.5849906,-0.58058155,-0.58058155,-0.5761725,-0.57028335,-0.57028335,-0.5761725,-0.58351064,-0.5864706,-0.58058155,-0.5732125,-0.57028335,-0.56880337,-0.56880337,-0.5629144,-0.55850524,-0.5599852,-0.5643943,-0.5643943,-0.5599852,-0.55557615,-0.55557615,-0.55850524,-0.55850524,-0.5599852,-0.5614344,-0.5658742,-0.57028335,-0.5643943,-0.55113626,-0.5393889,-0.53201985,-0.5364289,-0.540838,-0.54524714,-0.543798,-0.54524714,-0.54524714,-0.543798,-0.5379089,-0.53349984,-0.5305399,-0.5364289,-0.543798,-0.543798,-0.5393889,-0.53349984,-0.5305399,-0.5290599,-0.53201985,-0.53349984,-0.5379089,-0.540838,-0.5364289,-0.5305399,-0.5276108,-0.5276108,-0.534949,-0.5393889,-0.5379089,-0.5276108,-0.5099436,-0.49375635,-0.4716801,-0.4525329,-0.43193662,-0.41134036,-0.39074403,-0.3671878,-0.3421824,-0.32303518,-0.32010603,-0.32599515,-0.32155526,-0.305368,-0.2832917,-0.2774027,-0.30980796,-0.3789659,-0.4716801,-0.55850524,-0.617365,-0.6497395,-0.6541486,-0.64385045,-0.6306231,-0.62177414,-0.617365,-0.6129559,-0.60706687,-0.60854685,-0.6129559,-0.62032497,-0.626214,-0.611476,-0.5893997,-0.5276108,-0.40104216,-0.16116303,0.18320847,0.5452471,0.82486975,0.9499583,0.85428417,0.5158019,0.06107974,-0.38926405,-0.702741,-0.7939753,-0.71007925,-0.5732125,-0.47904915,-0.4496038,-0.4613819,-0.4878673,-0.5114236,-0.52024174,-0.51731265,-0.5099436,-0.49375635,-0.48049825,-0.46872014,-0.458422,-0.4481238,-0.4348966,-0.4201585,-0.40838033,-0.39808226,-0.38633496,-0.37455678,-0.36129868,-0.34807146,-0.33481336,-0.3186261,-0.30391884,-0.29214072,-0.28918082,-0.28773165,-0.2803626,-0.27006447,-0.25828636,-0.24946815,-0.2420991,-0.23328096,-0.21854281,-0.19794655,-0.17587024,-0.15379399,-0.12582868,-0.09641415,-0.07137793,-0.056670725,-0.04489261,-0.021336317,0.016927242,0.06252885,0.10520136,0.12875783,0.14790487,0.1626122,0.1758703,0.18616843,0.1905775,0.19939566,0.20824468,0.21413362,0.20969391,0.1905775,0.16409206,0.13316679,0.08901417,0.028674483,-0.047852516,-0.1302377,-0.21561372,-0.3024389,-0.38926405,-0.46579105,-0.5217217,-0.5599852,-0.5908797,-0.6291431,-0.67181575,-0.70126104,-0.71155924,-0.7086301,-0.7086301,-0.7189282,-0.7292264,-0.7380446,-0.7424537,-0.74834275,-0.7571918,-0.7586409,-0.74982274,-0.7306756,-0.71155924,-0.702741,-0.69685197,-0.695372,-0.693892,-0.68800294,-0.6821139,-0.66888666,-0.6512195,-0.6394414,-0.63503224,-0.6424012,-0.64385045,-0.6394414,-0.63503224,-0.6291431,-0.63355225,-0.63503224,-0.63355225,-0.62766325,-0.62177414,-0.62177414,-0.62473404,-0.6321031,-0.6409213,-0.6497395,-0.65562856,-0.6526994,-0.64385045,-0.6409213,-0.64533037,-0.65858847,-0.6674067,-0.6629976,-0.65562856,-0.64681035,-0.6497395,-0.65562856,-0.65858847,-0.6615176,-0.6659267,-0.6747757,-0.6806648,-0.6821139,-0.6791848,-0.67329574,-0.66888666,-0.66888666,-0.66888666,-0.6703666,-0.6747757,-0.6791848,-0.6791848,-0.6747757,-0.6674067,-0.6644776,-0.6659267,-0.6674067,-0.6674067,-0.6674067,-0.6674067,-0.6674067,-0.66003764,-0.64829034,-0.6379613,-0.6379613,-0.64681035,-0.65858847,-0.6615176,-0.66003764,-0.65562856,-0.6526994,-0.64681035,-0.6394414,-0.6306231,-0.62473404,-0.6232541,-0.62177414,-0.615885,-0.6129559,-0.611476,-0.61002684,-0.6026578,-0.58206147,-0.55557615,-0.53201985,-0.51876175,-0.5128727,-0.4996454,-0.48490733,-0.4628619,-0.43930566,-0.42311847,-0.41722935,-0.40545124,-0.39219314,-0.37600595,-0.36866772,-0.3789659,-0.43045664,-0.5128727,-0.6026578,-0.67329574,-0.7071501,-0.71007925,-0.695372,-0.68359387,-0.6747757,-0.6703666,-0.6674067,-0.66888666,-0.67329574,-0.67329574,-0.67329574,-0.6703666,-0.6512195,-0.62473404,-0.57910156,-0.49375635,-0.35248047,-0.15086484,0.05663979,0.2376591,0.35685873,0.34804046,0.16409206,-0.14938492,-0.50698364,-0.7910153,-0.90287673,-0.845466,-0.7056702,-0.5732125,-0.4878673,-0.4481238,-0.4496038,-0.4746092,-0.49523634,-0.49668545,-0.48345822,-0.4746092,-0.47756916,-0.47904915,-0.47756916,-0.46727103,-0.45697284,-0.4466439,-0.4334166,-0.41574937,-0.39367312,-0.38044584,-0.3730768,-0.3657078,-0.35540962,-0.3421824,-0.33629328,-0.33040422,-0.32155526,-0.3024389,-0.27447355,-0.2553572,-0.2420991,-0.23473006,-0.228841,-0.2200228,-0.21265382,-0.20235562,-0.18616837,-0.16261214,-0.13612682,-0.10671234,-0.08611596,-0.06696892,-0.049301624,-0.030185282,-0.011038184,0.012487292,0.041932583,0.0728271,0.09490335,0.10227227,0.09490335,0.09638333,0.10816145,0.1302377,0.14790487,0.14935398,0.14053583,0.12582862,0.10816145,0.08460522,0.04782164,-0.0022200346,-0.062559724,-0.13760674,-0.22295201,-0.306848,-0.3848549,-0.4466439,-0.4996454,-0.5526162,-0.6026578,-0.6512195,-0.6821139,-0.6997811,-0.71155924,-0.7248173,-0.7395246,-0.7571918,-0.7660099,-0.771899,-0.77337897,-0.7660099,-0.7586409,-0.7557118,-0.7542318,-0.7557118,-0.7542318,-0.74541366,-0.73511547,-0.7277465,-0.72333735,-0.7174483,-0.7056702,-0.695372,-0.6894829,-0.6894829,-0.6909629,-0.6821139,-0.6659267,-0.64829034,-0.63503224,-0.6306231,-0.6365122,-0.64681035,-0.65562856,-0.6615176,-0.65562856,-0.64385045,-0.63355225,-0.63503224,-0.64385045,-0.64829034,-0.6526994,-0.6526994,-0.6526994,-0.6526994,-0.6526994,-0.6497395,-0.64681035,-0.6409213,-0.6394414,-0.6365122,-0.6379613,-0.6424012,-0.64681035,-0.64829034,-0.6409213,-0.6321031,-0.6306231,-0.6321031,-0.63503224,-0.6321031,-0.62177414,-0.611476,-0.6129559,-0.618845,-0.62032497,-0.617365,-0.60854685,-0.6011778,-0.6041378,-0.61002684,-0.611476,-0.60854685,-0.6026578,-0.59676874,-0.5908797,-0.5893997,-0.5864706,-0.5879506,-0.5849906,-0.5732125,-0.55850524,-0.542318,-0.5290599,-0.51583266,-0.4996454,-0.47904915,-0.45697284,-0.4348966,-0.41870934,-0.39808226,-0.3789659,-0.36866772,-0.3642586,-0.36129868,-0.34952056,-0.3421824,-0.3568896,-0.40693122,-0.49079645,-0.57910156,-0.6409213,-0.6674067,-0.66888666,-0.6526994,-0.6394414,-0.6306231,-0.6365122,-0.6497395,-0.6615176,-0.6644776,-0.6615176,-0.65562856,-0.65858847,-0.6541486,-0.626214,-0.58351064,-0.51583266,-0.41722935,-0.26417536,-0.05815071,0.14790487,0.3141861,0.39512217,0.3303733,0.09934318,-0.23032099,-0.5732125,-0.82338977,-0.89109856,-0.8057534,-0.66888666,-0.55557615,-0.4996454,-0.48934728,-0.50112545,-0.5143527,-0.5217217,-0.52024174,-0.5128727,-0.50112545,-0.48345822,-0.46579105,-0.458422,-0.4525329,-0.4466439,-0.4363457,-0.4245984,-0.4201585,-0.41574937,-0.40545124,-0.39219314,-0.3715968,-0.35100055,-0.3421824,-0.33333337,-0.32744426,-0.32155526,-0.31421703,-0.30391884,-0.29214072,-0.27299356,-0.25387728,-0.24061912,-0.23180091,-0.22295201,-0.20676476,-0.18323928,-0.15968305,-0.1434958,-0.12878859,-0.10671234,-0.078746974,-0.05226159,-0.034594476,-0.016927183,0.00073993206,0.025745392,0.055190682,0.07871604,0.10079241,0.11845958,0.13760674,0.15231395,0.15379393,0.15379393,0.15379393,0.14935398,0.13612664,0.106681466,0.06400883,0.011038065,-0.050781667,-0.12141961,-0.2008757,-0.28477168,-0.36129868,-0.43045664,-0.48490733,-0.53349984,-0.5717634,-0.60706687,-0.6409213,-0.67181575,-0.695372,-0.71007925,-0.7174483,-0.72626644,-0.7380446,-0.74982274,-0.7586409,-0.7513027,-0.7395246,-0.7277465,-0.7174483,-0.71303916,-0.71007925,-0.71007925,-0.7086301,-0.6997811,-0.68655384,-0.6674067,-0.6526994,-0.64681035,-0.6526994,-0.65858847,-0.6541486,-0.64533037,-0.6365122,-0.6306231,-0.6291431,-0.6232541,-0.6144359,-0.6011778,-0.5982487,-0.5996978,-0.6041378,-0.6011778,-0.5982487,-0.5893997,-0.5849906,-0.58351064,-0.58351064,-0.58206147,-0.5849906,-0.5879506,-0.59235966,-0.5938396,-0.59235966,-0.5893997,-0.58058155,-0.5746925,-0.5761725,-0.57910156,-0.5879506,-0.5879506,-0.5864706,-0.57910156,-0.5761725,-0.5761725,-0.57910156,-0.5864706,-0.5893997,-0.5938396,-0.5938396,-0.5849906,-0.57028335,-0.55850524,-0.55557615,-0.5614344,-0.57028335,-0.5761725,-0.5761725,-0.57028335,-0.56732345,-0.5614344,-0.55113626,-0.54524714,-0.5467271,-0.5526162,-0.55702525,-0.55702525,-0.54820704,-0.540838,-0.534949,-0.5305399,-0.51876175,-0.5084636,-0.50257456,-0.49079645,-0.4746092,-0.4525329,-0.42311847,-0.39956224,-0.383375,-0.3701169,-0.36277866,-0.3657078,-0.3671878,-0.36277866,-0.33774245,-0.306848,-0.28918082,-0.3083279,-0.37748593,-0.47020012,-0.55557615,-0.617365,-0.64385045,-0.64533037,-0.6321031,-0.6232541,-0.62032497,-0.62177414,-0.626214,-0.62766325,-0.6232541,-0.617365,-0.62032497,-0.6232541,-0.61002684,-0.58206147,-0.5305399,-0.43045664,-0.25680637,0.009558201,0.31714606,0.58203065,0.73656464,0.73067546,0.51876175,0.15672302,-0.25387728,-0.6011778,-0.77482814,-0.7557118,-0.6306231,-0.5128727,-0.45401293,-0.4437148,-0.4525329,-0.46431106,-0.4716801,-0.4746092,-0.4716801,-0.4628619,-0.4496038,-0.43193662,-0.42311847,-0.41722935,-0.40252215,-0.3848549,-0.3701169,-0.36129868,-0.3598187,-0.35248047,-0.33481336,-0.31566614,-0.305368,-0.306848,-0.3024389,-0.29214072,-0.2774027,-0.26417536,-0.25976634,-0.25828636,-0.24650824,-0.22591192,-0.20235562,-0.18175936,-0.16409212,-0.14790493,-0.1302377,-0.1126014,-0.09345424,-0.07285792,-0.046372533,-0.024296284,-0.005149126,0.011038065,0.030154467,0.0537107,0.07871604,0.106681466,0.12875783,0.15083396,0.1758703,0.18909752,0.1905775,0.1905775,0.19205749,0.19939566,0.20969391,0.20528471,0.18172848,0.14642489,0.09786332,0.0404526,-0.030185282,-0.103752375,-0.17883027,-0.24798816,-0.31566614,-0.383375,-0.4481238,-0.4996454,-0.5379089,-0.56732345,-0.59528875,-0.6306231,-0.6526994,-0.6674067,-0.67181575,-0.6703666,-0.6703666,-0.66888666,-0.6644776,-0.6615176,-0.6629976,-0.6703666,-0.6762248,-0.6762248,-0.67329574,-0.67181575,-0.67329574,-0.66888666,-0.65858847,-0.6497395,-0.6409213,-0.6394414,-0.63503224,-0.62473404,-0.611476,-0.6026578,-0.5982487,-0.59528875,-0.5938396,-0.59235966,-0.5879506,-0.5776216,-0.5599852,-0.540838,-0.5379089,-0.5467271,-0.5643943,-0.5746925,-0.5732125,-0.56880337,-0.5658742,-0.56732345,-0.5643943,-0.5599852,-0.5540961,-0.55113626,-0.5526162,-0.5540961,-0.55557615,-0.5599852,-0.56732345,-0.5717634,-0.56880337,-0.5614344,-0.55850524,-0.5732125,-0.5996978,-0.615885,-0.617365,-0.6026578,-0.5864706,-0.5761725,-0.5732125,-0.57028335,-0.56880337,-0.5717634,-0.5761725,-0.5776216,-0.5761725,-0.5776216,-0.5879506,-0.59235966,-0.5893997,-0.5776216,-0.5629144,-0.55850524,-0.5629144,-0.5658742,-0.5643943,-0.5614344,-0.5643943,-0.5658742,-0.5599852,-0.54820704,-0.5364289,-0.53349984,-0.542318,-0.549687,-0.5526162,-0.5540961,-0.5526162,-0.55113626,-0.543798,-0.5246508,-0.50405455,-0.48638737,-0.4716801,-0.45990193,-0.4422348,-0.41722935,-0.39367312,-0.3671878,-0.33629328,-0.3083279,-0.2965498,-0.2965498,-0.29802984,-0.28918082,-0.2685845,-0.26269543,-0.29506987,-0.37455678,-0.4746092,-0.5599852,-0.618845,-0.6424012,-0.6424012,-0.6291431,-0.61002684,-0.5996978,-0.6055869,-0.615885,-0.62032497,-0.615885,-0.6055869,-0.5982487,-0.5938396,-0.58058155,-0.55850524,-0.5143527,-0.41282028,-0.21561372,0.09197414,0.45401287,0.76157,0.933771,0.90139663,0.61147594,0.17143023,-0.29214072,-0.6526994,-0.79986435,-0.74834275,-0.6129559,-0.50112545,-0.4466439,-0.4422348,-0.45401293,-0.46727103,-0.47608918,-0.47608918,-0.4716801,-0.45990193,-0.4437148,-0.4216385,-0.40986037,-0.40986037,-0.41134036,-0.41282028,-0.40545124,-0.39367312,-0.383375,-0.3657078,-0.35248047,-0.33774245,-0.32599515,-0.32010603,-0.31125712,-0.29802984,-0.28773165,-0.2832917,-0.27447355,-0.26269543,-0.2420991,-0.2141338,-0.19646657,-0.18468845,-0.17735028,-0.16705209,-0.14938492,-0.1302377,-0.10964143,-0.08611596,-0.05815071,-0.030185282,-0.00662905,0.009558201,0.024265409,0.05075085,0.08315599,0.11993945,0.15524304,0.18027925,0.19791567,0.21265376,0.21706283,0.21558285,0.2214719,0.23032093,0.23473,0.23032093,0.20969391,0.17439032,0.12875783,0.06693792,-0.015447259,-0.1126014,-0.20235562,-0.28477168,-0.3583696,-0.42900747,-0.49668545,-0.5540961,-0.5982487,-0.6321031,-0.6674067,-0.70419014,-0.7292264,-0.7395246,-0.7395246,-0.73511547,-0.7380446,-0.74541366,-0.7542318,-0.7660099,-0.77482814,-0.77630806,-0.768939,-0.7571918,-0.74834275,-0.74982274,-0.74834275,-0.7410045,-0.72626644,-0.70419014,-0.6909629,-0.68655384,-0.68655384,-0.6806648,-0.6762248,-0.67329574,-0.67181575,-0.6703666,-0.6659267,-0.65562856,-0.6541486,-0.6526994,-0.6526994,-0.64829034,-0.64385045,-0.64385045,-0.64681035,-0.6512195,-0.6541486,-0.6497395,-0.6497395,-0.6526994,-0.6512195,-0.64533037,-0.64385045,-0.64533037,-0.6497395,-0.65710855,-0.65858847,-0.65858847,-0.65710855,-0.6615176,-0.6674067,-0.6659267,-0.6629976,-0.65710855,-0.6541486,-0.6512195,-0.64533037,-0.6424012,-0.64533037,-0.6512195,-0.65858847,-0.66003764,-0.65858847,-0.65858847,-0.65858847,-0.6541486,-0.64681035,-0.6394414,-0.6379613,-0.64385045,-0.64385045,-0.6409213,-0.63355225,-0.6306231,-0.6365122,-0.6394414,-0.6409213,-0.63355225,-0.62032497,-0.60854685,-0.5982487,-0.59235966,-0.59235966,-0.6026578,-0.6129559,-0.6144359,-0.6129559,-0.61002684,-0.61002684,-0.618845,-0.6291431,-0.6232541,-0.5996978,-0.5717634,-0.542318,-0.51876175,-0.4996454,-0.48638737,-0.4716801,-0.45108378,-0.4245984,-0.39367312,-0.3657078,-0.3539297,-0.36129868,-0.3598187,-0.34659147,-0.32892424,-0.32155526,-0.34659147,-0.40838033,-0.49227643,-0.5732125,-0.63503224,-0.67181575,-0.6791848,-0.67181575,-0.66888666,-0.67181575,-0.6806648,-0.6806648,-0.67181575,-0.6615176,-0.6541486,-0.6541486,-0.6497395,-0.62177414,-0.5908797,-0.549687,-0.48049825,-0.3436315,-0.12141961,0.13171768,0.3583387,0.50257444,0.5069835,0.30977702,-0.0360744,-0.4437148,-0.7821972,-0.91758394,-0.85724413,-0.702741,-0.5658742,-0.49523634,-0.47608918,-0.48490733,-0.4981655,-0.5128727,-0.5217217,-0.5114236,-0.49079645,-0.47020012,-0.4613819,-0.4628619,-0.46727103,-0.4613819,-0.4437148,-0.42752755,-0.41574937,-0.40838033,-0.39808226,-0.38778406,-0.37748593,-0.3657078,-0.3568896,-0.3451115,-0.33333337,-0.32892424,-0.32451516,-0.31714612,-0.29802984,-0.27888268,-0.2656554,-0.25976634,-0.25680637,-0.24798816,-0.23621005,-0.2200228,-0.2008757,-0.17146116,-0.1405667,-0.10816145,-0.09641415,-0.08904517,-0.07578701,-0.050781667,-0.013998091,0.019856334,0.04489255,0.06252885,0.08167601,0.09345424,0.10227227,0.10816145,0.112570524,0.11553037,0.11405051,0.10520136,0.08901417,0.06693792,0.0404526,0.00073993206,-0.056670725,-0.12878859,-0.20972472,-0.28773165,-0.3642586,-0.4363457,-0.50405455,-0.5658742,-0.6232541,-0.67181575,-0.71007925,-0.7410045,-0.7557118,-0.76160085,-0.768939,-0.78660625,-0.8101625,-0.82486975,-0.82338977,-0.8101625,-0.8042734,-0.81164247,-0.81605154,-0.82194066,-0.81457156,-0.79986435,-0.7954552,-0.7954552,-0.7910153,-0.7851571,-0.77482814,-0.76012087,-0.7513027,-0.7439337,-0.7395246,-0.7410045,-0.7395246,-0.73511547,-0.72333735,-0.7086301,-0.69685197,-0.6894829,-0.6777048,-0.6659267,-0.6615176,-0.66003764,-0.66003764,-0.6615176,-0.65710855,-0.66003764,-0.6674067,-0.6791848,-0.68359387,-0.6791848,-0.6747757,-0.67181575,-0.6703666,-0.6703666,-0.67181575,-0.6762248,-0.6821139,-0.68655384,-0.6806648,-0.6674067,-0.65710855,-0.65858847,-0.6644776,-0.6674067,-0.6659267,-0.66003764,-0.65562856,-0.65562856,-0.6497395,-0.6379613,-0.63355225,-0.6394414,-0.65710855,-0.6747757,-0.66888666,-0.65562856,-0.6424012,-0.63503224,-0.6394414,-0.6379613,-0.6424012,-0.64681035,-0.65562856,-0.6615176,-0.6629976,-0.65710855,-0.6394414,-0.618845,-0.59235966,-0.5629144,-0.542318,-0.53349984,-0.5231708,-0.50405455,-0.4746092,-0.4437148,-0.41870934,-0.41282028,-0.41870934,-0.42311847,-0.41870934,-0.40838033,-0.39663303,-0.39808226,-0.42752755,-0.4981655,-0.59235966,-0.6806648,-0.73363554,-0.7410045,-0.7203774,-0.70126104,-0.6997811,-0.7086301,-0.7189282,-0.7277465,-0.7380446,-0.74834275,-0.74541366,-0.73656464,-0.7189282,-0.68507385,-0.64681035,-0.5908797,-0.50405455,-0.3642586,-0.17294115,0.013967156,0.17291033,0.2744428,0.25091732,0.059599757,-0.25387728,-0.6041378,-0.87491137,-0.96173656,-0.8866895,-0.7410045,-0.615885,-0.542318,-0.5143527,-0.51583266,-0.5276108,-0.5364289,-0.5305399,-0.5217217,-0.51876175,-0.5114236,-0.4996454,-0.48345822,-0.46579105,-0.46431106,-0.47608918,-0.48197824,-0.47608918,-0.4525329,-0.4245984,-0.40545124,-0.39367312,-0.38926405,-0.38778406,-0.3848549,-0.37455678,-0.3583696,-0.34070235,-0.32892424,-0.33040422,-0.33333337,-0.32155526,-0.2965498,-0.2685845,-0.24650824,-0.23913914,-0.228841,-0.20824468,-0.18323928,-0.16409212,-0.15379399,-0.14790493,-0.1302377,-0.10230321,-0.06844884,-0.041963458,-0.01988715,0.005149007,0.03456354,0.065488815,0.08608508,0.09786332,0.10816145,0.1169796,0.12434864,0.12434864,0.11845958,0.09638333,0.065488815,0.025745392,-0.030185282,-0.09345424,-0.16261214,-0.24502826,-0.33333337,-0.42311847,-0.50112545,-0.5614344,-0.60706687,-0.64533037,-0.6762248,-0.6997811,-0.7189282,-0.7380446,-0.76452994,-0.7910153,-0.8072026,-0.8086825,-0.8057534,-0.8042734,-0.8086825,-0.8101625,-0.8042734,-0.7924953,-0.7836771,-0.77482814,-0.7660099,-0.7586409,-0.7542318,-0.7542318,-0.7586409,-0.7542318,-0.7395246,-0.7159683,-0.6997811,-0.70126104,-0.70419014,-0.7056702,-0.6997811,-0.68655384,-0.67181575,-0.65710855,-0.64533037,-0.6394414,-0.6424012,-0.65562856,-0.6674067,-0.66888666,-0.66003764,-0.6497395,-0.64533037,-0.6409213,-0.6409213,-0.64385045,-0.6512195,-0.65858847,-0.65710855,-0.6497395,-0.64681035,-0.64681035,-0.65562856,-0.65562856,-0.6424012,-0.63355225,-0.6379613,-0.6526994,-0.6703666,-0.67181575,-0.6629976,-0.6541486,-0.6526994,-0.64829034,-0.64385045,-0.6365122,-0.6321031,-0.63503224,-0.6394414,-0.6409213,-0.6394414,-0.6379613,-0.6379613,-0.63355225,-0.6306231,-0.63355225,-0.64385045,-0.6526994,-0.6497395,-0.6365122,-0.626214,-0.62766325,-0.6394414,-0.64385045,-0.63503224,-0.611476,-0.5938396,-0.5776216,-0.55850524,-0.534949,-0.5114236,-0.49523634,-0.47756916,-0.4613819,-0.43930566,-0.41426945,-0.40397125,-0.39663303,-0.39074403,-0.37455678,-0.3539297,-0.34952056,-0.3671878,-0.41574937,-0.4878673,-0.57028335,-0.6424012,-0.6894829,-0.69685197,-0.6806648,-0.6615176,-0.65562856,-0.6629976,-0.67329574,-0.6791848,-0.6821139,-0.6791848,-0.6762248,-0.6674067,-0.6424012,-0.60854685,-0.5776216,-0.5114236,-0.37455678,-0.14497584,0.14494503,0.41278934,0.5893996,0.6335522,0.50257444,0.19350672,-0.2008757,-0.58206147,-0.8204607,-0.85724413,-0.7439337,-0.6041378,-0.5128727,-0.48197824,-0.49079645,-0.51876175,-0.542318,-0.55113626,-0.5364289,-0.5084636,-0.48345822,-0.47020012,-0.46579105,-0.47020012,-0.47020012,-0.4613819,-0.4554929,-0.44519472,-0.43045664,-0.41426945,-0.39956224,-0.38633496,-0.3730768,-0.3568896,-0.33922237,-0.32599515,-0.32599515,-0.33481336,-0.33481336,-0.32303518,-0.30391884,-0.2832917,-0.26121545,-0.24061912,-0.21120471,-0.18616837,-0.16850126,-0.16850126,-0.16705209,-0.15968305,-0.14201587,-0.11405051,-0.078746974,-0.041963458,-0.008109033,0.01837635,0.033114433,0.043412566,0.05663979,0.07578695,0.10079241,0.11993945,0.13612664,0.15379393,0.16702116,0.17291033,0.16554129,0.14642489,0.121388674,0.09786332,0.06400883,0.016927242,-0.05226159,-0.1302377,-0.20676476,-0.2906608,-0.3789659,-0.46727103,-0.54524714,-0.6011778,-0.6394414,-0.67181575,-0.70419014,-0.73215556,-0.7468936,-0.7527518,-0.7527518,-0.7557118,-0.7571918,-0.76012087,-0.76452994,-0.77482814,-0.7851571,-0.78660625,-0.77778804,-0.768939,-0.7586409,-0.74834275,-0.7395246,-0.7277465,-0.7248173,-0.7277465,-0.73363554,-0.72626644,-0.7086301,-0.692412,-0.68655384,-0.6909629,-0.6909629,-0.6806648,-0.6615176,-0.64385045,-0.6365122,-0.63355225,-0.6306231,-0.626214,-0.6232541,-0.6306231,-0.6394414,-0.64533037,-0.6424012,-0.6321031,-0.618845,-0.6055869,-0.6041378,-0.6129559,-0.62766325,-0.6424012,-0.6409213,-0.6306231,-0.62032497,-0.617365,-0.62473404,-0.63355225,-0.63355225,-0.6321031,-0.6365122,-0.64385045,-0.64681035,-0.64385045,-0.6379613,-0.6379613,-0.6394414,-0.6365122,-0.6321031,-0.62177414,-0.61002684,-0.60854685,-0.6055869,-0.6055869,-0.611476,-0.62032497,-0.62473404,-0.6129559,-0.5982487,-0.5879506,-0.5879506,-0.5996978,-0.6055869,-0.6011778,-0.5938396,-0.5908797,-0.59235966,-0.59528875,-0.5938396,-0.5908797,-0.5879506,-0.5879506,-0.58351064,-0.5746925,-0.5643943,-0.55850524,-0.5643943,-0.5717634,-0.5732125,-0.57028335,-0.55702525,-0.542318,-0.5276108,-0.5143527,-0.50698364,-0.4996454,-0.49523634,-0.48345822,-0.4613819,-0.43193662,-0.40104216,-0.37748593,-0.3583696,-0.35100055,-0.35540962,-0.35540962,-0.34807146,-0.33333337,-0.32155526,-0.33188426,-0.38778406,-0.4716801,-0.55702525,-0.62032497,-0.6526994,-0.65858847,-0.6497395,-0.6365122,-0.62473404,-0.62032497,-0.617365,-0.62177414,-0.62473404,-0.618845,-0.62032497,-0.62473404,-0.6291431,-0.6232541,-0.5982487,-0.5114236,-0.33333337,-0.040483475,0.31714606,0.63796127,0.84250605,0.8616532,0.6291431,0.22884095,-0.2170937,-0.59528875,-0.78808624,-0.7851571,-0.6777048,-0.5643943,-0.49227643,-0.46431106,-0.46872014,-0.48490733,-0.49523634,-0.50112545,-0.50112545,-0.49668545,-0.4878673,-0.46872014,-0.45401293,-0.4407856,-0.4407856,-0.43930566,-0.43045664,-0.41574937,-0.40252215,-0.39219314,-0.37600595,-0.3568896,-0.33774245,-0.32892424,-0.33333337,-0.33922237,-0.33481336,-0.32010603,-0.2965498,-0.27595347,-0.26269543,-0.24946815,-0.24061912,-0.23180091,-0.2141338,-0.19501746,-0.16998124,-0.14938492,-0.13319772,-0.117010474,-0.09345424,-0.07137793,-0.04489261,-0.018407226,0.009558201,0.04489255,0.08608508,0.11405051,0.1302377,0.14053583,0.15379393,0.17291033,0.19791567,0.21706283,0.22295201,0.2214719,0.21558285,0.20087552,0.17879939,0.14935398,0.11553037,0.074307084,0.01837635,-0.0610798,-0.15820312,-0.25976634,-0.35248047,-0.4334166,-0.4996454,-0.55557615,-0.6011778,-0.63503224,-0.6615176,-0.68507385,-0.7056702,-0.7189282,-0.72333735,-0.7277465,-0.73656464,-0.74541366,-0.74982274,-0.7410045,-0.7277465,-0.7174483,-0.7174483,-0.7174483,-0.7189282,-0.71303916,-0.7056702,-0.69685197,-0.68359387,-0.67181575,-0.6629976,-0.6615176,-0.66003764,-0.6526994,-0.6379613,-0.62473404,-0.617365,-0.6232541,-0.63355225,-0.6394414,-0.64385045,-0.6394414,-0.6321031,-0.617365,-0.60706687,-0.5996978,-0.6011778,-0.6041378,-0.6041378,-0.5982487,-0.59528875,-0.6041378,-0.611476,-0.6129559,-0.60706687,-0.5982487,-0.5982487,-0.6026578,-0.6041378,-0.60854685,-0.611476,-0.611476,-0.615885,-0.60706687,-0.5982487,-0.5982487,-0.6011778,-0.60706687,-0.611476,-0.6041378,-0.5996978,-0.6055869,-0.615885,-0.615885,-0.6129559,-0.6055869,-0.6041378,-0.6144359,-0.6291431,-0.63503224,-0.6365122,-0.63503224,-0.63355225,-0.6306231,-0.6232541,-0.615885,-0.60854685,-0.6129559,-0.611476,-0.615885,-0.618845,-0.62473404,-0.6306231,-0.6306231,-0.618845,-0.60706687,-0.59676874,-0.5938396,-0.59528875,-0.5908797,-0.5864706,-0.58206147,-0.57910156,-0.58206147,-0.58206147,-0.58206147,-0.58351064,-0.59235966,-0.59676874,-0.5996978,-0.5938396,-0.58058155,-0.57028335,-0.5658742,-0.56880337,-0.5717634,-0.5776216,-0.5776216,-0.5643943,-0.55113626,-0.5379089,-0.5231708,-0.5084636,-0.48490733,-0.45108378,-0.41574937,-0.39074403,-0.37600595,-0.3657078,-0.36129868,-0.35540962,-0.3421824,-0.32010603,-0.2936207,-0.28625166,-0.31273705,-0.38926405,-0.4878673,-0.5717634,-0.617365,-0.6232541,-0.615885,-0.6129559,-0.617365,-0.62177414,-0.62766325,-0.62177414,-0.62032497,-0.62177414,-0.626214,-0.63355225,-0.6291431,-0.611476,-0.57028335,-0.48049825,-0.32892424,-0.0993433,0.1626122,0.40249133,0.57025254,0.615885,0.46872008,0.14790487,-0.25091726,-0.6129559,-0.81309164,-0.81457156,-0.70126104,-0.5893997,-0.53201985,-0.5055345,-0.49523634,-0.48345822,-0.46579105,-0.45108378,-0.4496038,-0.4481238,-0.4437148,-0.43193662,-0.4216385,-0.41870934,-0.4245984,-0.4407856,-0.4496038,-0.4363457,-0.41574937,-0.39219314,-0.37600595,-0.37455678,-0.37748593,-0.38044584,-0.38044584,-0.38044584,-0.36866772,-0.3451115,-0.32010603,-0.29802984,-0.2803626,-0.2685845,-0.25828636,-0.24357915,-0.23621005,-0.228841,-0.21561372,-0.19353747,-0.16557217,-0.13908678,-0.1184904,-0.094934165,-0.07137793,-0.047852516,-0.0228163,-0.008109033,0.005149007,0.025745392,0.052230716,0.08167601,0.106681466,0.12582862,0.13905573,0.14346492,0.14494503,0.14053583,0.14053583,0.13905573,0.13464677,0.11405051,0.08019614,0.033114433,-0.025776267,-0.09641415,-0.17439032,-0.26121545,-0.33774245,-0.40986037,-0.47608918,-0.5393889,-0.5908797,-0.6291431,-0.65858847,-0.6806648,-0.7056702,-0.7292264,-0.7439337,-0.74834275,-0.74834275,-0.7557118,-0.76308084,-0.7674899,-0.76452994,-0.7542318,-0.74982274,-0.74834275,-0.7439337,-0.7395246,-0.72626644,-0.71155924,-0.7071501,-0.7086301,-0.7144883,-0.7174483,-0.71007925,-0.693892,-0.67329574,-0.65562856,-0.6512195,-0.65710855,-0.66003764,-0.6541486,-0.6424012,-0.6306231,-0.6306231,-0.6365122,-0.64385045,-0.6409213,-0.6394414,-0.6365122,-0.6394414,-0.64385045,-0.64829034,-0.6497395,-0.6512195,-0.65562856,-0.65710855,-0.65858847,-0.65858847,-0.6644776,-0.6629976,-0.65710855,-0.64681035,-0.6394414,-0.6394414,-0.64681035,-0.6512195,-0.6512195,-0.6512195,-0.65562856,-0.66003764,-0.6659267,-0.6644776,-0.66003764,-0.65858847,-0.6644776,-0.6703666,-0.66888666,-0.6629976,-0.6629976,-0.66888666,-0.67181575,-0.6644776,-0.64533037,-0.62473404,-0.62032497,-0.6379613,-0.65562856,-0.6674067,-0.6659267,-0.65710855,-0.64385045,-0.6394414,-0.6394414,-0.6424012,-0.64533037,-0.64533037,-0.6424012,-0.6409213,-0.6497395,-0.65858847,-0.65710855,-0.64681035,-0.6291431,-0.617365,-0.60706687,-0.59235966,-0.5746925,-0.5526162,-0.5246508,-0.50112545,-0.4731601,-0.44519472,-0.42604756,-0.42311847,-0.42900747,-0.4245984,-0.40545124,-0.3848549,-0.3848549,-0.4216385,-0.49668545,-0.58351064,-0.6497395,-0.6909629,-0.70126104,-0.69685197,-0.6894829,-0.68800294,-0.695372,-0.6997811,-0.6997811,-0.695372,-0.6894829,-0.68800294,-0.702741,-0.69685197,-0.6615176,-0.617365,-0.5540961,-0.46579105,-0.32155526,-0.1302377,0.065488815,0.21558285,0.28033173,0.21706283,0.0021891594,-0.305368,-0.6321031,-0.86609316,-0.9205439,-0.82634974,-0.6821139,-0.5658742,-0.50257456,-0.48049825,-0.47756916,-0.49079645,-0.5084636,-0.5231708,-0.5290599,-0.5231708,-0.5143527,-0.50257456,-0.49668545,-0.49227643,-0.48345822,-0.48197824,-0.48490733,-0.48490733,-0.48049825,-0.4613819,-0.4437148,-0.42311847,-0.40693122,-0.3951531,-0.3789659,-0.36129868,-0.3451115,-0.33481336,-0.32155526,-0.31421703,-0.3083279,-0.30095893,-0.29802984,-0.27888268,-0.25239724,-0.23328096,-0.22443193,-0.22150284,-0.21120471,-0.18764836,-0.15527403,-0.119939566,-0.08463603,-0.056670725,-0.028705359,-0.008109033,0.00073993206,0.009558201,0.03456354,0.06693792,0.09786332,0.11405051,0.11109054,0.10520136,0.10520136,0.10816145,0.10816145,0.09934318,0.074307084,0.03456354,-0.024296284,-0.09786326,-0.18468845,-0.2671045,-0.34070235,-0.40545124,-0.47608918,-0.54820704,-0.617365,-0.6659267,-0.69685197,-0.7203774,-0.74834275,-0.77630806,-0.79986435,-0.8101625,-0.8072026,-0.8057534,-0.8057534,-0.8042734,-0.8013443,-0.80279344,-0.8101625,-0.81605154,-0.81164247,-0.8042734,-0.78660625,-0.770419,-0.7571918,-0.7513027,-0.74834275,-0.74982274,-0.7527518,-0.74834275,-0.7410045,-0.7380446,-0.73363554,-0.7277465,-0.71007925,-0.6806648,-0.66003764,-0.65562856,-0.6615176,-0.6659267,-0.66003764,-0.64385045,-0.63355225,-0.6365122,-0.6424012,-0.64829034,-0.6526994,-0.6541486,-0.65710855,-0.6497395,-0.6424012,-0.62766325,-0.618845,-0.6232541,-0.6306231,-0.6379613,-0.64533037,-0.6497395,-0.6497395,-0.64533037,-0.6365122,-0.63503224,-0.6394414,-0.6394414,-0.63355225,-0.617365,-0.6041378,-0.6011778,-0.615885,-0.6291431,-0.6321031,-0.62473404,-0.617365,-0.615885,-0.62032497,-0.62766325,-0.6321031,-0.62766325,-0.618845,-0.60854685,-0.59528875,-0.5908797,-0.59528875,-0.61002684,-0.618845,-0.6232541,-0.618845,-0.60706687,-0.59528875,-0.58058155,-0.5643943,-0.5540961,-0.549687,-0.542318,-0.5261308,-0.5055345,-0.48490733,-0.46727103,-0.45697284,-0.4422348,-0.4216385,-0.41282028,-0.41282028,-0.40693122,-0.38778406,-0.3539297,-0.32451516,-0.33629328,-0.40838033,-0.5099436,-0.60706687,-0.6703666,-0.68655384,-0.67181575,-0.6526994,-0.6321031,-0.62766325,-0.6365122,-0.6526994,-0.6644776,-0.66888666,-0.6659267,-0.6674067,-0.6747757,-0.65710855,-0.6232541,-0.55850524,-0.4466439,-0.27447355,-0.027225375,0.24650812,0.47753823,0.60558677,0.5849905,0.37011695,0.021336198,-0.3657078,-0.6806648,-0.8307588,-0.8072026,-0.692412,-0.5849906,-0.53201985,-0.51731265,-0.52024174,-0.5276108,-0.5290599,-0.5231708,-0.52024174,-0.5099436,-0.49375635,-0.47904915,-0.46579105,-0.46431106,-0.46579105,-0.4628619,-0.45697284,-0.4466439,-0.43045664,-0.41426945,-0.39808226,-0.3789659,-0.36277866,-0.34952056,-0.33333337,-0.3186261,-0.31714612,-0.32451516,-0.33629328,-0.33629328,-0.32155526,-0.2965498,-0.2671045,-0.24502826,-0.22591192,-0.20824468,-0.19353747,-0.17587024,-0.15820312,-0.13612682,-0.11553049,-0.09345424,-0.081676066,-0.06844884,-0.03900349,0.00073993206,0.043412566,0.08019614,0.106681466,0.12434864,0.14053583,0.14790487,0.15379393,0.1626122,0.17439032,0.18616843,0.18616843,0.16998112,0.14346492,0.10816145,0.065488815,0.00073993206,-0.08315611,-0.17587024,-0.25828636,-0.32451516,-0.39219314,-0.458422,-0.5276108,-0.5864706,-0.62766325,-0.6541486,-0.6791848,-0.7056702,-0.7189282,-0.7277465,-0.7292264,-0.73215556,-0.7424537,-0.7527518,-0.7557118,-0.7527518,-0.7439337,-0.7292264,-0.71007925,-0.693892,-0.6909629,-0.69685197,-0.702741,-0.6997811,-0.68359387,-0.6703666,-0.6644776,-0.6659267,-0.66888666,-0.6541486,-0.6321031,-0.6144359,-0.6055869,-0.6011778,-0.5982487,-0.59676874,-0.59676874,-0.5996978,-0.6041378,-0.6026578,-0.59235966,-0.5893997,-0.5864706,-0.58058155,-0.5717634,-0.5629144,-0.5658742,-0.5746925,-0.58206147,-0.5864706,-0.5864706,-0.5893997,-0.59235966,-0.59528875,-0.5908797,-0.5864706,-0.59676874,-0.6144359,-0.62766325,-0.62766325,-0.6144359,-0.5996978,-0.5908797,-0.5893997,-0.59235966,-0.5982487,-0.6041378,-0.61002684,-0.611476,-0.6055869,-0.5982487,-0.5982487,-0.6011778,-0.5982487,-0.5908797,-0.57910156,-0.57910156,-0.5893997,-0.59528875,-0.5908797,-0.5761725,-0.5614344,-0.55557615,-0.55557615,-0.55850524,-0.5614344,-0.56732345,-0.56732345,-0.5629144,-0.55113626,-0.5305399,-0.51731265,-0.5114236,-0.50698364,-0.4981655,-0.48638737,-0.46872014,-0.4422348,-0.41426945,-0.38926405,-0.3715968,-0.3671878,-0.3701169,-0.36866772,-0.34952056,-0.32303518,-0.3024389,-0.30095893,-0.33040422,-0.39663303,-0.48490733,-0.56732345,-0.6232541,-0.6409213,-0.6291431,-0.618845,-0.62177414,-0.6409213,-0.6512195,-0.64681035,-0.6321031,-0.62032497,-0.615885,-0.62032497,-0.62766325,-0.6232541,-0.60854685,-0.5658742,-0.458422,-0.25680637,0.04489255,0.38337505,0.6791538,0.8616532,0.85869336,0.60999596,0.19350672,-0.2656554,-0.62766325,-0.779268,-0.73363554,-0.6011778,-0.4981655,-0.45697284,-0.4628619,-0.48197824,-0.49668545,-0.4996454,-0.48934728,-0.4746092,-0.4628619,-0.458422,-0.4554929,-0.45401293,-0.4496038,-0.4466439,-0.4422348,-0.4363457,-0.4216385,-0.40104216,-0.381895,-0.36866772,-0.3598187,-0.35100055,-0.34070235,-0.32155526,-0.306848,-0.2936207,-0.2803626,-0.2671045,-0.25828636,-0.2553572,-0.25387728,-0.25091726,-0.24502826,-0.23328096,-0.2170937,-0.19646657,-0.17587024,-0.15086484,-0.13171768,-0.11405051,-0.09052515,-0.055190742,-0.016927183,0.016927242,0.03900349,0.059599757,0.09197414,0.12727773,0.15965211,0.18320847,0.19646657,0.20969391,0.22884095,0.24061918,0.23473,0.21706283,0.19350672,0.16554129,0.13316679,0.08608508,0.027225256,-0.049301624,-0.12878859,-0.21854281,-0.31421703,-0.40693122,-0.48934728,-0.55557615,-0.60854685,-0.65858847,-0.6997811,-0.7277465,-0.7410045,-0.74541366,-0.74834275,-0.7513027,-0.7542318,-0.7527518,-0.74982274,-0.74834275,-0.7527518,-0.7439337,-0.73511547,-0.73363554,-0.73656464,-0.7468936,-0.7513027,-0.74541366,-0.73656464,-0.7277465,-0.72333735,-0.7159683,-0.70126104,-0.6894829,-0.6791848,-0.67181575,-0.6629976,-0.6497395,-0.6394414,-0.6321031,-0.6291431,-0.63355225,-0.6409213,-0.64681035,-0.6497395,-0.64385045,-0.62766325,-0.60854685,-0.59235966,-0.5908797,-0.5982487,-0.60854685,-0.6144359,-0.617365,-0.618845,-0.62032497,-0.617365,-0.611476,-0.6055869,-0.60854685,-0.62473404,-0.6409213,-0.64681035,-0.6424012,-0.6321031,-0.62032497,-0.611476,-0.60854685,-0.61002684,-0.6144359,-0.615885,-0.61002684,-0.6011778,-0.6011778,-0.61002684,-0.62473404,-0.6321031,-0.6232541,-0.6144359,-0.6129559,-0.6144359,-0.611476,-0.6041378,-0.59528875,-0.5908797,-0.5938396,-0.5982487,-0.59676874,-0.5982487,-0.6026578,-0.60706687,-0.6041378,-0.59235966,-0.58351064,-0.5864706,-0.5982487,-0.6026578,-0.5938396,-0.58351064,-0.5776216,-0.58206147,-0.5864706,-0.58351064,-0.57028335,-0.549687,-0.53201985,-0.5099436,-0.4878673,-0.4716801,-0.45990193,-0.44519472,-0.41722935,-0.381895,-0.3568896,-0.3436315,-0.3421824,-0.34659147,-0.3451115,-0.33188426,-0.3186261,-0.31421703,-0.32599515,-0.3730768,-0.4496038,-0.5393889,-0.6129559,-0.65858847,-0.6644776,-0.6497395,-0.6291431,-0.6144359,-0.6144359,-0.626214,-0.6424012,-0.6541486,-0.66003764,-0.65858847,-0.6497395,-0.6321031,-0.6011778,-0.5658742,-0.49523634,-0.35540962,-0.1243487,0.1758703,0.47020006,0.68652296,0.7674589,0.6320722,0.28477168,-0.15675396,-0.56880337,-0.81457156,-0.83812785,-0.7189282,-0.5864706,-0.4996454,-0.46872014,-0.47608918,-0.49668545,-0.5128727,-0.5128727,-0.49668545,-0.48345822,-0.48345822,-0.48638737,-0.4878673,-0.48049825,-0.45990193,-0.4466439,-0.44519472,-0.4437148,-0.4422348,-0.43930566,-0.4245984,-0.40986037,-0.39074403,-0.3715968,-0.36277866,-0.3583696,-0.3539297,-0.3451115,-0.32744426,-0.30980796,-0.2965498,-0.29214072,-0.28625166,-0.27888268,-0.27006447,-0.26121545,-0.24650824,-0.228841,-0.20972472,-0.1891284,-0.16998124,-0.1434958,-0.111121416,-0.08463603,-0.0743379,-0.0610798,-0.041963458,-0.0022200346,0.046341658,0.07871604,0.09197414,0.09490335,0.10520136,0.12582862,0.14790487,0.1626122,0.16702116,0.15965211,0.13905573,0.10079241,0.049301624,-0.011038184,-0.07137793,-0.13612682,-0.20824468,-0.28773165,-0.3701169,-0.44519472,-0.50698364,-0.5643943,-0.6232541,-0.6659267,-0.69685197,-0.70419014,-0.7056702,-0.7174483,-0.73511547,-0.7527518,-0.7674899,-0.779268,-0.78956616,-0.8042734,-0.81309164,-0.8086825,-0.80279344,-0.7939753,-0.78956616,-0.7807172,-0.77337897,-0.7660099,-0.76452994,-0.7660099,-0.7586409,-0.7410045,-0.7292264,-0.7203774,-0.7203774,-0.7189282,-0.7086301,-0.6983011,-0.692412,-0.6909629,-0.68800294,-0.6762248,-0.6674067,-0.6629976,-0.6615176,-0.65858847,-0.6512195,-0.64533037,-0.64533037,-0.6497395,-0.6526994,-0.6497395,-0.6497395,-0.64681035,-0.6526994,-0.65710855,-0.65710855,-0.65710855,-0.6541486,-0.6526994,-0.6526994,-0.6497395,-0.6497395,-0.65710855,-0.6659267,-0.67181575,-0.6703666,-0.6629976,-0.65710855,-0.65858847,-0.6615176,-0.6659267,-0.6762248,-0.68359387,-0.6909629,-0.6909629,-0.6806648,-0.66888666,-0.6659267,-0.66888666,-0.6644776,-0.65858847,-0.66003764,-0.66888666,-0.6777048,-0.6791848,-0.6659267,-0.6497395,-0.6409213,-0.64385045,-0.6512195,-0.6541486,-0.65710855,-0.6615176,-0.65710855,-0.6394414,-0.6129559,-0.5893997,-0.5732125,-0.56732345,-0.5526162,-0.5290599,-0.50257456,-0.48638737,-0.4746092,-0.4628619,-0.4481238,-0.43930566,-0.4348966,-0.42604756,-0.40986037,-0.38926405,-0.38633496,-0.42900747,-0.5084636,-0.5938396,-0.6615176,-0.70126104,-0.7144883,-0.7144883,-0.71155924,-0.70419014,-0.6983011,-0.6997811,-0.7071501,-0.71007925,-0.70126104,-0.695372,-0.692412,-0.68655384,-0.6659267,-0.63355225,-0.5776216,-0.49079645,-0.34807146,-0.14497584,0.065488815,0.2376591,0.32303512,0.25825548,0.024265409,-0.30391884,-0.64829034,-0.8940585,-0.95584744,-0.8675423,-0.7248173,-0.611476,-0.5540961,-0.540838,-0.5540961,-0.5629144,-0.5746925,-0.5776216,-0.5746925,-0.5599852,-0.543798,-0.5305399,-0.5231708,-0.5231708,-0.5231708,-0.5128727,-0.4981655,-0.48638737,-0.47608918,-0.46579105,-0.4554929,-0.44519472,-0.4334166,-0.4216385,-0.40693122,-0.38778406,-0.3730768,-0.36277866,-0.35248047,-0.3436315,-0.33481336,-0.33188426,-0.32451516,-0.32010603,-0.306848,-0.28918082,-0.2715444,-0.24798816,-0.22443193,-0.20235562,-0.18175936,-0.16705209,-0.15527403,-0.13319772,-0.09641415,-0.05371076,-0.0125181675,0.016927242,0.036043525,0.046341658,0.05663979,0.06693792,0.08315599,0.10079241,0.11845958,0.12727773,0.1169796,0.08901417,0.052230716,0.009558201,-0.03900349,-0.10082328,-0.18027937,-0.2656554,-0.34659147,-0.4216385,-0.49079645,-0.5540961,-0.61002684,-0.6526994,-0.6806648,-0.7056702,-0.73511547,-0.7571918,-0.77337897,-0.779268,-0.7836771,-0.7910153,-0.8013443,-0.8057534,-0.8013443,-0.80279344,-0.8086825,-0.81164247,-0.8057534,-0.78956616,-0.77337897,-0.76452994,-0.76012087,-0.7513027,-0.73363554,-0.7248173,-0.72333735,-0.7248173,-0.7189282,-0.6983011,-0.6806648,-0.67329574,-0.6762248,-0.68359387,-0.68359387,-0.6806648,-0.6762248,-0.6644776,-0.64829034,-0.6365122,-0.6321031,-0.63355225,-0.6424012,-0.64681035,-0.64385045,-0.64385045,-0.6379613,-0.6321031,-0.62766325,-0.62473404,-0.6232541,-0.626214,-0.62473404,-0.618845,-0.6129559,-0.6129559,-0.62473404,-0.64681035,-0.65858847,-0.65710855,-0.6512195,-0.64533037,-0.6424012,-0.64681035,-0.64829034,-0.64829034,-0.6512195,-0.6526994,-0.6497395,-0.6365122,-0.63355225,-0.63503224,-0.6394414,-0.6394414,-0.6291431,-0.615885,-0.60854685,-0.611476,-0.62177414,-0.62766325,-0.63355225,-0.6379613,-0.6379613,-0.62766325,-0.617365,-0.60854685,-0.6055869,-0.60706687,-0.60854685,-0.6011778,-0.5893997,-0.58206147,-0.57910156,-0.5746925,-0.5599852,-0.5393889,-0.5143527,-0.4878673,-0.4496038,-0.41134036,-0.381895,-0.36277866,-0.36129868,-0.3701169,-0.36866772,-0.35248047,-0.33188426,-0.31566614,-0.3186261,-0.35540962,-0.42752755,-0.51876175,-0.5938396,-0.6365122,-0.6409213,-0.626214,-0.611476,-0.61002684,-0.62177414,-0.6306231,-0.6321031,-0.63355225,-0.6321031,-0.6321031,-0.6379613,-0.6291431,-0.6041378,-0.57028335,-0.50698364,-0.39219314,-0.19942653,0.06841791,0.35244966,0.57025254,0.67181575,0.59380877,0.31714606,-0.055190742,-0.42752755,-0.68800294,-0.76308084,-0.695372,-0.5761725,-0.48345822,-0.4363457,-0.4245984,-0.43782568,-0.45401293,-0.4628619,-0.45401293,-0.4363457,-0.41722935,-0.40104216,-0.38926405,-0.38778406,-0.38633496,-0.38926405,-0.38633496,-0.3715968,-0.3539297,-0.33629328,-0.32599515,-0.32155526,-0.31421703,-0.305368,-0.3024389,-0.3024389,-0.30391884,-0.2936207,-0.27595347,-0.25976634,-0.24946815,-0.24357915,-0.23180091,-0.21120471,-0.19057757,-0.18175936,-0.17294115,-0.152314,-0.1243487,-0.09345424,-0.06989801,-0.055190742,-0.034594476,-0.008109033,0.021336198,0.046341658,0.06989789,0.09786332,0.13171768,0.15965211,0.17731941,0.19205749,0.20824468,0.22884095,0.24354827,0.24650812,0.23913908,0.22736108,0.21413362,0.18761742,0.14642489,0.08756518,0.012487292,-0.07137793,-0.15379399,-0.23769003,-0.31566614,-0.38926405,-0.45697284,-0.5246508,-0.5879506,-0.63355225,-0.65710855,-0.6674067,-0.67329574,-0.68655384,-0.70419014,-0.7189282,-0.7277465,-0.73215556,-0.7410045,-0.74541366,-0.7410045,-0.7380446,-0.73511547,-0.7380446,-0.7424537,-0.7395246,-0.7292264,-0.7189282,-0.71303916,-0.7056702,-0.695372,-0.68507385,-0.67181575,-0.6629976,-0.65710855,-0.6424012,-0.62766325,-0.6144359,-0.6026578,-0.5982487,-0.5982487,-0.59676874,-0.5982487,-0.5982487,-0.5893997,-0.5776216,-0.5658742,-0.5614344,-0.56732345,-0.5776216,-0.5849906,-0.58206147,-0.58351064,-0.5908797,-0.6026578,-0.6055869,-0.6011778,-0.5879506,-0.5776216,-0.5776216,-0.58351064,-0.5908797,-0.59528875,-0.6026578,-0.6055869,-0.60706687,-0.60706687,-0.60706687,-0.61002684,-0.61002684,-0.6011778,-0.5879506,-0.5761725,-0.58351064,-0.5996978,-0.6144359,-0.618845,-0.61002684,-0.59528875,-0.5879506,-0.5908797,-0.59235966,-0.5879506,-0.58058155,-0.56732345,-0.55557615,-0.55113626,-0.5599852,-0.5746925,-0.5908797,-0.5996978,-0.59676874,-0.5908797,-0.58351064,-0.5776216,-0.5717634,-0.5643943,-0.55702525,-0.55557615,-0.55850524,-0.5599852,-0.55702525,-0.55702525,-0.55557615,-0.55113626,-0.54524714,-0.5364289,-0.53201985,-0.5305399,-0.534949,-0.5393889,-0.5379089,-0.53201985,-0.53201985,-0.5305399,-0.53201985,-0.5364289,-0.540838,-0.5393889,-0.5364289,-0.5261308,-0.5114236,-0.50257456,-0.4996454,-0.4981655,-0.50405455,-0.50698364,-0.50405455,-0.49523634,-0.48049825,-0.458422,-0.43930566,-0.42900747,-0.4245984,-0.41574937,-0.39367312,-0.36277866,-0.33188426,-0.31566614,-0.3186261,-0.32155526,-0.306848,-0.27447355,-0.2420991,-0.23328096,-0.2671045,-0.33629328,-0.4216385,-0.4981655,-0.542318,-0.5526162,-0.54524714,-0.5379089,-0.5393889,-0.54820704,-0.55557615,-0.55702525,-0.5526162,-0.5540961,-0.5614344,-0.56732345,-0.5599852,-0.5393889,-0.50257456,-0.41574937,-0.23621005,0.0537107,0.4069004,0.7203773,0.914624,0.94406927,0.73360455,0.34511137,-0.0993433,-0.48934728,-0.69685197,-0.695372,-0.5864706,-0.48345822,-0.43193662,-0.4216385,-0.42900747,-0.4407856,-0.45108378,-0.45697284,-0.45401293,-0.4422348,-0.43193662,-0.4245984,-0.4201585,-0.41134036,-0.39956224,-0.39074403,-0.3848549,-0.38044584,-0.3730768,-0.3539297,-0.33333337,-0.31566614,-0.30095893,-0.28773165,-0.27888268,-0.27006447,-0.25680637,-0.23769003,-0.21120471,-0.18468845,-0.16998124,-0.16850126,-0.16850126,-0.15968305,-0.14790493,-0.13760674,-0.1273086,-0.11405051,-0.09052515,-0.06403971,-0.041963458,-0.025776267,-0.011038184,0.01544714,0.049301624,0.08019614,0.10816145,0.13316679,0.15820312,0.18468833,0.20824468,0.23032093,0.24943721,0.27151346,0.28918076,0.2950698,0.29210985,0.28477168,0.27592266,0.26121545,0.23325002,0.17879939,0.103752255,0.025745392,-0.050781667,-0.13171768,-0.2170937,-0.3024389,-0.383375,-0.45108378,-0.50257456,-0.543798,-0.5776216,-0.5982487,-0.615885,-0.6379613,-0.6629976,-0.68359387,-0.692412,-0.6909629,-0.68655384,-0.68800294,-0.692412,-0.6894829,-0.6821139,-0.6762248,-0.6777048,-0.6894829,-0.69685197,-0.702741,-0.702741,-0.695372,-0.68359387,-0.66888666,-0.65710855,-0.6512195,-0.6526994,-0.6526994,-0.64533037,-0.63355225,-0.62766325,-0.62177414,-0.617365,-0.611476,-0.6011778,-0.59528875,-0.59676874,-0.59676874,-0.59235966,-0.5864706,-0.5776216,-0.5732125,-0.56880337,-0.56880337,-0.5717634,-0.57910156,-0.5893997,-0.5996978,-0.59676874,-0.5908797,-0.5908797,-0.59528875,-0.6026578,-0.6026578,-0.6041378,-0.60706687,-0.611476,-0.618845,-0.62032497,-0.615885,-0.615885,-0.62032497,-0.6232541,-0.618845,-0.60706687,-0.59528875,-0.59676874,-0.60706687,-0.62177414,-0.6291431,-0.6306231,-0.63503224,-0.63503224,-0.626214,-0.611476,-0.6011778,-0.5996978,-0.6055869,-0.61002684,-0.61002684,-0.60706687,-0.611476,-0.62032497,-0.62473404,-0.62177414,-0.61002684,-0.6011778,-0.5938396,-0.5879506,-0.5849906,-0.5864706,-0.59235966,-0.5982487,-0.5996978,-0.5938396,-0.5893997,-0.59235966,-0.6011778,-0.61002684,-0.60854685,-0.5996978,-0.59528875,-0.5908797,-0.5849906,-0.58351064,-0.58058155,-0.5864706,-0.59235966,-0.5996978,-0.6026578,-0.6055869,-0.6026578,-0.6011778,-0.59235966,-0.57910156,-0.5776216,-0.58058155,-0.58206147,-0.57910156,-0.57028335,-0.5614344,-0.5629144,-0.5658742,-0.5643943,-0.5540961,-0.5393889,-0.52024174,-0.50405455,-0.48345822,-0.4613819,-0.43045664,-0.40104216,-0.3730768,-0.34952056,-0.33922237,-0.34070235,-0.35100055,-0.34952056,-0.32599515,-0.2936207,-0.2774027,-0.3024389,-0.37748593,-0.48049825,-0.5717634,-0.6321031,-0.6541486,-0.64533037,-0.62032497,-0.59528875,-0.5908797,-0.6041378,-0.6232541,-0.63503224,-0.63503224,-0.6306231,-0.63355225,-0.6306231,-0.61002684,-0.5746925,-0.5143527,-0.40838033,-0.2273919,0.025745392,0.28770077,0.5010946,0.6026269,0.5246507,0.24650812,-0.13319772,-0.5276108,-0.79838437,-0.86165327,-0.76160085,-0.6129559,-0.50257456,-0.45697284,-0.4613819,-0.48197824,-0.49668545,-0.49668545,-0.49079645,-0.4878673,-0.48197824,-0.47756916,-0.47020012,-0.4613819,-0.4554929,-0.4496038,-0.4422348,-0.4334166,-0.42311847,-0.40986037,-0.39956224,-0.39219314,-0.39367312,-0.40397125,-0.39956224,-0.3848549,-0.3583696,-0.33629328,-0.32010603,-0.30391884,-0.28773165,-0.27299356,-0.26417536,-0.26269543,-0.2553572,-0.23769003,-0.20972472,-0.18764836,-0.16998124,-0.15820312,-0.14201587,-0.12141961,-0.094934165,-0.07137793,-0.05226159,-0.030185282,-0.00662905,0.016927242,0.036043525,0.052230716,0.07137787,0.090494275,0.10227227,0.10816145,0.10816145,0.11109054,0.12582862,0.14053583,0.14494503,0.12875783,0.08901417,0.03456354,-0.033114374,-0.10523236,-0.17439032,-0.24061912,-0.305368,-0.3715968,-0.4466439,-0.52024174,-0.57910156,-0.6365122,-0.6777048,-0.7071501,-0.7292264,-0.73511547,-0.73656464,-0.74541366,-0.76012087,-0.77337897,-0.7851571,-0.7924953,-0.7969044,-0.8042734,-0.8013443,-0.78660625,-0.7660099,-0.7527518,-0.74834275,-0.74834275,-0.74982274,-0.7468936,-0.7424537,-0.7439337,-0.7468936,-0.7410045,-0.7277465,-0.71007925,-0.695372,-0.68655384,-0.68655384,-0.692412,-0.7086301,-0.7159683,-0.7159683,-0.69685197,-0.67329574,-0.65710855,-0.6541486,-0.66003764,-0.66003764,-0.65858847,-0.65562856,-0.65858847,-0.6659267,-0.6629976,-0.65858847,-0.6541486,-0.65562856,-0.65710855,-0.65562856,-0.64829034,-0.6409213,-0.6379613,-0.6379613,-0.63503224,-0.6365122,-0.64829034,-0.6629976,-0.67329574,-0.6762248,-0.6703666,-0.6659267,-0.6674067,-0.67329574,-0.6777048,-0.67329574,-0.67329574,-0.6703666,-0.67329574,-0.6762248,-0.67181575,-0.6747757,-0.6747757,-0.67181575,-0.6674067,-0.65858847,-0.65858847,-0.6629976,-0.6703666,-0.67181575,-0.6644776,-0.6629976,-0.6674067,-0.6791848,-0.6806648,-0.66888666,-0.65710855,-0.6497395,-0.6526994,-0.65562856,-0.65710855,-0.65858847,-0.66003764,-0.6615176,-0.6629976,-0.6615176,-0.6629976,-0.6674067,-0.6659267,-0.6526994,-0.62766325,-0.6011778,-0.59235966,-0.5864706,-0.5776216,-0.5599852,-0.5364289,-0.51731265,-0.4996454,-0.48197824,-0.458422,-0.4348966,-0.4216385,-0.40838033,-0.38926405,-0.36129868,-0.3436315,-0.3539297,-0.40693122,-0.4981655,-0.5849906,-0.64681035,-0.67181575,-0.6747757,-0.6674067,-0.66888666,-0.6777048,-0.6894829,-0.692412,-0.6894829,-0.6806648,-0.6777048,-0.6821139,-0.68359387,-0.6512195,-0.6011778,-0.5290599,-0.4334166,-0.29947895,-0.12141961,0.06252885,0.20969391,0.28477168,0.2376591,0.025745392,-0.28625166,-0.6129559,-0.85724413,-0.92643297,-0.8440169,-0.6997811,-0.5893997,-0.534949,-0.51876175,-0.5305399,-0.5467271,-0.55702525,-0.55850524,-0.55557615,-0.54820704,-0.53349984,-0.51876175,-0.5084636,-0.50405455,-0.49523634,-0.48345822,-0.46579105,-0.44519472,-0.42900747,-0.4201585,-0.41426945,-0.41426945,-0.41426945,-0.40986037,-0.3951531,-0.3715968,-0.34659147,-0.32599515,-0.31421703,-0.30095893,-0.28773165,-0.27447355,-0.2656554,-0.25680637,-0.24502826,-0.23180091,-0.21265382,-0.19942653,-0.18616837,-0.17146116,-0.152314,-0.12582868,-0.0993433,-0.078746974,-0.055190742,-0.027225375,0.00073993206,0.03456354,0.06841791,0.09934318,0.12286866,0.13316679,0.13612664,0.13171768,0.1302377,0.13464677,0.13464677,0.12727773,0.11109054,0.08608508,0.049301624,-0.00074005127,-0.06989801,-0.15086484,-0.24357915,-0.33040422,-0.41134036,-0.48049825,-0.5379089,-0.58058155,-0.618845,-0.65562856,-0.6894829,-0.7203774,-0.7395246,-0.7513027,-0.76012087,-0.771899,-0.7821972,-0.7836771,-0.7807172,-0.77778804,-0.771899,-0.77337897,-0.77778804,-0.77337897,-0.768939,-0.76308084,-0.7513027,-0.7380446,-0.72626644,-0.7203774,-0.71303916,-0.7071501,-0.6997811,-0.68800294,-0.68359387,-0.68359387,-0.68655384,-0.68359387,-0.6747757,-0.6644776,-0.65858847,-0.66003764,-0.6629976,-0.65710855,-0.64681035,-0.6409213,-0.6394414,-0.63503224,-0.62766325,-0.62177414,-0.6232541,-0.626214,-0.63355225,-0.63355225,-0.6321031,-0.6321031,-0.63355225,-0.6365122,-0.63503224,-0.6394414,-0.6497395,-0.65710855,-0.65710855,-0.64829034,-0.6379613,-0.6365122,-0.6365122,-0.63355225,-0.626214,-0.6232541,-0.618845,-0.62177414,-0.6291431,-0.63503224,-0.64829034,-0.6526994,-0.64533037,-0.626214,-0.6041378,-0.59676874,-0.6026578,-0.615885,-0.62473404,-0.626214,-0.6232541,-0.6232541,-0.618845,-0.61002684,-0.5982487,-0.5908797,-0.59235966,-0.59235966,-0.5893997,-0.58206147,-0.5746925,-0.5732125,-0.57910156,-0.5908797,-0.59676874,-0.5996978,-0.6011778,-0.5879506,-0.5614344,-0.5305399,-0.50112545,-0.48345822,-0.46727103,-0.4466439,-0.4216385,-0.3951531,-0.37455678,-0.3715968,-0.3715968,-0.3671878,-0.34952056,-0.32892424,-0.31273705,-0.32155526,-0.3715968,-0.45697284,-0.5467271,-0.6144359,-0.64681035,-0.64533037,-0.63503224,-0.62766325,-0.6306231,-0.63503224,-0.63355225,-0.6379613,-0.6394414,-0.6409213,-0.64385045,-0.6409213,-0.62032497,-0.59528875,-0.549687,-0.4466439,-0.26121545,0.013967156,0.31566596,0.5584743,0.685043,0.6497394,0.4069004,0.036043525,-0.3657078,-0.6821139,-0.81164247,-0.771899,-0.6526994,-0.55113626,-0.4981655,-0.4878673,-0.49668545,-0.5114236,-0.51583266,-0.50698364,-0.49523634,-0.48345822,-0.48345822,-0.48638737,-0.47904915,-0.46431106,-0.45108378,-0.4407856,-0.4334166,-0.4245984,-0.41134036,-0.39663303,-0.381895,-0.37600595,-0.3657078,-0.35100055,-0.33922237,-0.32892424,-0.32451516,-0.31714612,-0.30391884,-0.2906608,-0.27888268,-0.27006447,-0.25976634,-0.24502826,-0.228841,-0.21265382,-0.19646657,-0.17439032,-0.14790493,-0.12141961,-0.10082328,-0.08022696,-0.056670725,-0.027225375,-0.00074005127,0.01544714,0.030154467,0.04782164,0.074307084,0.10964143,0.13760674,0.15524304,0.16998112,0.18027925,0.18172848,0.1758703,0.16554129,0.15379393,0.13905573,0.112570524,0.06693792,0.005149007,-0.06403971,-0.13908678,-0.2200228,-0.2965498,-0.3671878,-0.42752755,-0.48049825,-0.5290599,-0.58058155,-0.62766325,-0.65710855,-0.6777048,-0.695372,-0.7144883,-0.7306756,-0.7380446,-0.73511547,-0.72626644,-0.72333735,-0.7292264,-0.73656464,-0.7395246,-0.7395246,-0.73656464,-0.7306756,-0.7218574,-0.70419014,-0.68655384,-0.6762248,-0.6703666,-0.6674067,-0.6674067,-0.6674067,-0.6644776,-0.6541486,-0.63503224,-0.615885,-0.6041378,-0.6041378,-0.60706687,-0.6055869,-0.5996978,-0.59528875,-0.59676874,-0.6011778,-0.59528875,-0.58058155,-0.5643943,-0.5599852,-0.5629144,-0.5658742,-0.5643943,-0.5629144,-0.5643943,-0.5732125,-0.58206147,-0.58351064,-0.57910156,-0.5776216,-0.5776216,-0.5761725,-0.5717634,-0.5717634,-0.5761725,-0.58351064,-0.5893997,-0.5849906,-0.5746925,-0.5658742,-0.55702525,-0.55113626,-0.54820704,-0.55113626,-0.5614344,-0.5717634,-0.58351064,-0.5849906,-0.58351064,-0.5776216,-0.56732345,-0.55850524,-0.55113626,-0.549687,-0.5526162,-0.55557615,-0.5526162,-0.54524714,-0.549687,-0.5540961,-0.5599852,-0.5614344,-0.55113626,-0.542318,-0.5393889,-0.540838,-0.542318,-0.5379089,-0.5290599,-0.5290599,-0.534949,-0.5379089,-0.54524714,-0.543798,-0.543798,-0.53201985,-0.5099436,-0.48934728,-0.46872014,-0.4554929,-0.44519472,-0.4201585,-0.38633496,-0.3539297,-0.33333337,-0.32010603,-0.31421703,-0.31714612,-0.3186261,-0.31714612,-0.30095893,-0.2715444,-0.26121545,-0.28773165,-0.3583696,-0.4554929,-0.5393889,-0.59528875,-0.62177414,-0.62766325,-0.62177414,-0.6055869,-0.5908797,-0.5864706,-0.5996978,-0.62032497,-0.626214,-0.62177414,-0.62032497,-0.611476,-0.59676874,-0.5658742,-0.48197824,-0.31714612,-0.05226159,0.28918076,0.6188141,0.8483951,0.91317487,0.7380445,0.35392964,-0.10671234,-0.5217217,-0.7660099,-0.7910153,-0.67181575,-0.53349984,-0.4496038,-0.42311847,-0.43045664,-0.4496038,-0.46579105,-0.4731601,-0.47020012,-0.46579105,-0.4525329,-0.4363457,-0.4216385,-0.41426945,-0.41574937,-0.41574937,-0.40545124,-0.38926405,-0.37455678,-0.3642586,-0.36129868,-0.35248047,-0.33629328,-0.32155526,-0.31273705,-0.30391884,-0.29506987,-0.27447355,-0.25239724,-0.23913914,-0.23328096,-0.2273919,-0.21854281,-0.20972472,-0.20972472,-0.20676476,-0.19353747,-0.16998124,-0.13760674,-0.10964143,-0.09052515,-0.0743379,-0.049301624,-0.013998091,0.024265409,0.059599757,0.08608508,0.10227227,0.11405051,0.13171768,0.15965211,0.19350672,0.22884095,0.25091732,0.25532627,0.2538464,0.24650812,0.24061918,0.2258811,0.19498658,0.14935398,0.10079241,0.043412566,-0.01988715,-0.0993433,-0.1891284,-0.2803626,-0.3583696,-0.42900747,-0.49523634,-0.5599852,-0.6144359,-0.6541486,-0.6806648,-0.69685197,-0.7086301,-0.7218574,-0.7306756,-0.7395246,-0.7468936,-0.7527518,-0.7513027,-0.74541366,-0.74541366,-0.74982274,-0.7542318,-0.7468936,-0.73511547,-0.7174483,-0.7056702,-0.70126104,-0.69685197,-0.6983011,-0.70126104,-0.702741,-0.6997811,-0.6791848,-0.6497395,-0.6321031,-0.6232541,-0.62032497,-0.617365,-0.60706687,-0.5996978,-0.59676874,-0.6026578,-0.61002684,-0.611476,-0.611476,-0.61002684,-0.6026578,-0.5982487,-0.5982487,-0.60706687,-0.617365,-0.62177414,-0.611476,-0.59676874,-0.59676874,-0.61002684,-0.6306231,-0.6424012,-0.6379613,-0.62473404,-0.6144359,-0.60706687,-0.5982487,-0.59528875,-0.59676874,-0.60706687,-0.62473404,-0.6365122,-0.64385045,-0.64829034,-0.6541486,-0.6541486,-0.6526994,-0.64385045,-0.6409213,-0.64681035,-0.64681035,-0.6424012,-0.626214,-0.60706687,-0.5982487,-0.5982487,-0.6026578,-0.60706687,-0.611476,-0.6129559,-0.6129559,-0.611476,-0.6011778,-0.59235966,-0.5893997,-0.5879506,-0.5879506,-0.5849906,-0.57910156,-0.5732125,-0.5732125,-0.5732125,-0.57028335,-0.56880337,-0.56732345,-0.5643943,-0.55113626,-0.5364289,-0.51731265,-0.50257456,-0.49227643,-0.4746092,-0.4525329,-0.4216385,-0.39663303,-0.37455678,-0.3568896,-0.3436315,-0.34070235,-0.33629328,-0.32303518,-0.29947895,-0.2803626,-0.2906608,-0.3436315,-0.4348966,-0.5305399,-0.6026578,-0.64533037,-0.65710855,-0.6541486,-0.64533037,-0.63503224,-0.626214,-0.62177414,-0.618845,-0.618845,-0.626214,-0.6365122,-0.64829034,-0.6321031,-0.59235966,-0.5364289,-0.45108378,-0.32155526,-0.117010474,0.13760674,0.38630414,0.5629144,0.60706687,0.45401287,0.11993945,-0.2965498,-0.6762248,-0.88816947,-0.8822804,-0.7395246,-0.58351064,-0.49375635,-0.4746092,-0.49079645,-0.5099436,-0.51583266,-0.5128727,-0.50698364,-0.50698364,-0.5055345,-0.48934728,-0.4716801,-0.45108378,-0.43193662,-0.4216385,-0.41870934,-0.4245984,-0.4363457,-0.42752755,-0.40104216,-0.36277866,-0.33040422,-0.32599515,-0.33629328,-0.33629328,-0.32599515,-0.3083279,-0.30095893,-0.29947895,-0.29506987,-0.2832917,-0.2656554,-0.24946815,-0.2420991,-0.23032099,-0.20824468,-0.1891284,-0.17439032,-0.16261214,-0.14497584,-0.117010474,-0.078746974,-0.043412566,-0.013998091,0.016927242,0.046341658,0.0728271,0.08901417,0.09786332,0.106681466,0.1169796,0.12727773,0.13464677,0.13905573,0.14201593,0.14494503,0.13905573,0.121388674,0.09638333,0.06107974,0.01544714,-0.04489261,-0.12289959,-0.21120471,-0.28918082,-0.3583696,-0.4201585,-0.48049825,-0.543798,-0.5996978,-0.6497395,-0.6894829,-0.7277465,-0.7557118,-0.770419,-0.77337897,-0.771899,-0.770419,-0.768939,-0.7674899,-0.7660099,-0.77482814,-0.78956616,-0.79838437,-0.7969044,-0.78660625,-0.77778804,-0.77778804,-0.7807172,-0.779268,-0.771899,-0.76452994,-0.7586409,-0.7527518,-0.74541366,-0.7292264,-0.7189282,-0.71007925,-0.7056702,-0.6983011,-0.692412,-0.6894829,-0.6909629,-0.695372,-0.70126104,-0.702741,-0.6997811,-0.6983011,-0.6909629,-0.68655384,-0.68800294,-0.6983011,-0.71303916,-0.7248173,-0.7277465,-0.72333735,-0.7174483,-0.71007925,-0.70419014,-0.70419014,-0.7086301,-0.7203774,-0.7292264,-0.7306756,-0.72333735,-0.71303916,-0.7144883,-0.72626644,-0.7380446,-0.7439337,-0.7380446,-0.7277465,-0.7277465,-0.73511547,-0.7410045,-0.7380446,-0.7306756,-0.7248173,-0.7174483,-0.71303916,-0.71007925,-0.71155924,-0.7174483,-0.72626644,-0.7277465,-0.7189282,-0.71155924,-0.6997811,-0.68800294,-0.6777048,-0.6629976,-0.64385045,-0.62473404,-0.5996978,-0.56732345,-0.5379089,-0.5128727,-0.49375635,-0.48490733,-0.48197824,-0.47608918,-0.4628619,-0.4437148,-0.43045664,-0.4334166,-0.4716801,-0.54820704,-0.6379613,-0.7144883,-0.76012087,-0.771899,-0.7674899,-0.76308084,-0.7586409,-0.7527518,-0.7380446,-0.7292264,-0.7306756,-0.73656464,-0.7395246,-0.73511547,-0.7218574,-0.695372,-0.65710855,-0.60854685,-0.5276108,-0.40545124,-0.22591192,-0.033114374,0.14053583,0.2538464,0.25680637,0.09786332,-0.19353747,-0.5393889,-0.83664787,-0.9735147,-0.93377113,-0.7910153,-0.6497395,-0.5614344,-0.534949,-0.54820704,-0.5746925,-0.5849906,-0.5746925,-0.55850524,-0.5467271,-0.54524714,-0.540838,-0.5290599,-0.5128727,-0.50112545,-0.49668545,-0.48934728,-0.47608918,-0.4613819,-0.4437148,-0.42752755,-0.41722935,-0.40397125,-0.39219314,-0.383375,-0.3701169,-0.35248047,-0.33333337,-0.3186261,-0.31125712,-0.30095893,-0.28773165,-0.2685845,-0.24502826,-0.22443193,-0.20531559,-0.18616837,-0.16998124,-0.15820312,-0.14201587,-0.117010474,-0.08611596,-0.049301624,-0.018407226,0.0021891594,0.021336198,0.041932583,0.06841791,0.090494275,0.10816145,0.12434864,0.14053583,0.15379393,0.16113222,0.16554129,0.16409206,0.15965211,0.15231395,0.13171768,0.09638333,0.04782164,-0.013998091,-0.087565124,-0.16850126,-0.2553572,-0.33774245,-0.40838033,-0.46872014,-0.52024174,-0.56732345,-0.61002684,-0.6541486,-0.6983011,-0.7380446,-0.770419,-0.78808624,-0.7939753,-0.7924953,-0.78808624,-0.7836771,-0.77630806,-0.771899,-0.77337897,-0.78660625,-0.8042734,-0.81164247,-0.8072026,-0.7939753,-0.77630806,-0.76308084,-0.7468936,-0.72626644,-0.71007925,-0.702741,-0.7071501,-0.71303916,-0.71155924,-0.6997811,-0.6894829,-0.68800294,-0.68507385,-0.6791848,-0.6629976,-0.6497395,-0.6424012,-0.6379613,-0.6321031,-0.62766325,-0.626214,-0.6291431,-0.6291431,-0.62032497,-0.60854685,-0.6011778,-0.611476,-0.626214,-0.63503224,-0.63355225,-0.62766325,-0.6232541,-0.618845,-0.611476,-0.6041378,-0.6026578,-0.61002684,-0.618845,-0.62473404,-0.6232541,-0.617365,-0.617365,-0.618845,-0.615885,-0.617365,-0.6232541,-0.63355225,-0.64829034,-0.6512195,-0.64385045,-0.62766325,-0.6129559,-0.6026578,-0.5996978,-0.6055869,-0.6129559,-0.6129559,-0.60706687,-0.5893997,-0.56732345,-0.549687,-0.5379089,-0.5276108,-0.5084636,-0.48049825,-0.4481238,-0.4216385,-0.39808226,-0.38926405,-0.39219314,-0.40104216,-0.40252215,-0.3848549,-0.3539297,-0.33629328,-0.3568896,-0.4245984,-0.5128727,-0.59676874,-0.6512195,-0.6674067,-0.6659267,-0.6526994,-0.6409213,-0.6394414,-0.64681035,-0.65710855,-0.65858847,-0.6512195,-0.6424012,-0.63355225,-0.62473404,-0.5982487,-0.55850524,-0.5055345,-0.41870934,-0.27595347,-0.03900349,0.25680637,0.5231707,0.68652296,0.68945205,0.48194742,0.12875783,-0.27299356,-0.611476,-0.7836771,-0.7674899,-0.6394414,-0.5114236,-0.43930566,-0.4216385,-0.43193662,-0.4481238,-0.45697284,-0.45401293,-0.45697284,-0.4613819,-0.4628619,-0.4554929,-0.4466439,-0.4334166,-0.41870934,-0.40693122,-0.3951531,-0.38044584,-0.3701169,-0.36277866,-0.34952056,-0.33774245,-0.33481336,-0.33481336,-0.32892424,-0.31566614,-0.29506987,-0.27595347,-0.2656554,-0.25976634,-0.24798816,-0.228841,-0.2141338,-0.2038356,-0.19794655,-0.1891284,-0.16998124,-0.14497584,-0.12141961,-0.10230321,-0.08315611,-0.06403971,-0.043412566,-0.016927183,0.012487292,0.046341658,0.07871604,0.09786332,0.112570524,0.12434864,0.13464677,0.15379393,0.16850114,0.17731941,0.18761742,0.19646657,0.20235562,0.19791567,0.18027925,0.15083396,0.103752255,0.03752339,-0.047852516,-0.13908678,-0.22591192,-0.29802984,-0.3568896,-0.41870934,-0.47756916,-0.5290599,-0.56732345,-0.5938396,-0.6129559,-0.63503224,-0.65710855,-0.67181575,-0.6777048,-0.6791848,-0.6791848,-0.6821139,-0.68800294,-0.6909629,-0.6909629,-0.68507385,-0.6806648,-0.6747757,-0.67329574,-0.6791848,-0.6806648,-0.6747757,-0.6629976,-0.64829034,-0.6394414,-0.6409213,-0.64533037,-0.6365122,-0.618845,-0.6011778,-0.5938396,-0.59676874,-0.6026578,-0.6026578,-0.59235966,-0.58206147,-0.5732125,-0.5629144,-0.55557615,-0.549687,-0.549687,-0.549687,-0.549687,-0.5467271,-0.5393889,-0.53201985,-0.5261308,-0.51876175,-0.51583266,-0.5231708,-0.5393889,-0.5599852,-0.5732125,-0.57910156,-0.5761725,-0.5732125,-0.5761725,-0.57910156,-0.58058155,-0.5761725,-0.5732125,-0.56732345,-0.55702525,-0.55113626,-0.543798,-0.54524714,-0.5526162,-0.55850524,-0.5614344,-0.5643943,-0.56732345,-0.56880337,-0.5658742,-0.55113626,-0.534949,-0.5261308,-0.5261308,-0.5393889,-0.549687,-0.5599852,-0.5643943,-0.55702525,-0.5467271,-0.53349984,-0.5246508,-0.52024174,-0.51876175,-0.5114236,-0.5055345,-0.4996454,-0.48934728,-0.47608918,-0.45401293,-0.4245984,-0.39808226,-0.37455678,-0.35100055,-0.32892424,-0.31714612,-0.32599515,-0.33774245,-0.33481336,-0.31273705,-0.28477168,-0.28625166,-0.33774245,-0.4245984,-0.51731265,-0.5849906,-0.62473404,-0.6394414,-0.6379613,-0.62473404,-0.60706687,-0.5938396,-0.59235966,-0.5982487,-0.6026578,-0.6026578,-0.6055869,-0.615885,-0.615885,-0.5996978,-0.56732345,-0.4996454,-0.36129868,-0.1184904,0.22736108,0.58203065,0.84250605,0.9411093,0.8175007,0.4716493,0.028674483,-0.40252215,-0.692412,-0.7660099,-0.6791848,-0.5526162,-0.46872014,-0.44519472,-0.45697284,-0.47608918,-0.48934728,-0.48934728,-0.48345822,-0.4746092,-0.46431106,-0.45401293,-0.4437148,-0.4363457,-0.4334166,-0.43045664,-0.42900747,-0.42604756,-0.41574937,-0.40104216,-0.3789659,-0.3539297,-0.33922237,-0.33188426,-0.32892424,-0.32451516,-0.31566614,-0.305368,-0.2936207,-0.27888268,-0.26121545,-0.24650824,-0.23328096,-0.22443193,-0.2170937,-0.2038356,-0.18764836,-0.17146116,-0.15527403,-0.1302377,-0.0993433,-0.06696892,-0.037523568,-0.016927183,0.0021891594,0.027225256,0.055190682,0.08608508,0.11993945,0.14935398,0.18320847,0.21558285,0.23177004,0.23473,0.23473,0.23032093,0.23325002,0.23473,0.22295201,0.19939566,0.16554129,0.112570524,0.041932583,-0.041963458,-0.1302377,-0.21561372,-0.29802984,-0.37748593,-0.45401293,-0.51876175,-0.57028335,-0.60854685,-0.64829034,-0.6821139,-0.71007925,-0.7218574,-0.7277465,-0.73511547,-0.7439337,-0.74834275,-0.74834275,-0.7410045,-0.73656464,-0.7410045,-0.74541366,-0.74541366,-0.7380446,-0.7292264,-0.7159683,-0.70419014,-0.6909629,-0.6806648,-0.6762248,-0.6791848,-0.6777048,-0.66888666,-0.65562856,-0.6497395,-0.6497395,-0.6497395,-0.6497395,-0.6424012,-0.63503224,-0.6306231,-0.6306231,-0.6291431,-0.6291431,-0.63355225,-0.6365122,-0.63355225,-0.62473404,-0.6129559,-0.60854685,-0.6129559,-0.62032497,-0.6232541,-0.62177414,-0.617365,-0.615885,-0.617365,-0.62177414,-0.6291431,-0.6409213,-0.64681035,-0.64681035,-0.6365122,-0.626214,-0.62473404,-0.62766325,-0.6306231,-0.62766325,-0.617365,-0.6055869,-0.5982487,-0.59528875,-0.59528875,-0.5938396,-0.59528875,-0.6011778,-0.6026578,-0.6026578,-0.5982487,-0.59676874,-0.5938396,-0.59676874,-0.5982487,-0.5982487,-0.5996978,-0.6055869,-0.61002684,-0.60706687,-0.5996978,-0.5938396,-0.59528875,-0.59528875,-0.5908797,-0.58351064,-0.57910156,-0.58058155,-0.5864706,-0.5864706,-0.57910156,-0.5732125,-0.56732345,-0.55850524,-0.543798,-0.5261308,-0.51583266,-0.50405455,-0.49079645,-0.4716801,-0.4422348,-0.41722935,-0.39808226,-0.3789659,-0.3583696,-0.34659147,-0.3436315,-0.33922237,-0.32451516,-0.30391884,-0.29214072,-0.31714612,-0.3848549,-0.48197824,-0.5732125,-0.6394414,-0.6791848,-0.6894829,-0.6821139,-0.67181575,-0.6629976,-0.6659267,-0.67181575,-0.6747757,-0.66888666,-0.65858847,-0.6541486,-0.66003764,-0.65562856,-0.63503224,-0.5982487,-0.5099436,-0.3451115,-0.08022696,0.24943721,0.5584743,0.76157,0.7939445,0.5849905,0.20087552,-0.24650824,-0.63503224,-0.83664787,-0.8307588,-0.702741,-0.56732345,-0.48934728,-0.46727103,-0.48490733,-0.5143527,-0.5290599,-0.5261308,-0.5143527,-0.50257456,-0.49227643,-0.48490733,-0.48049825,-0.4731601,-0.46431106,-0.4554929,-0.4525329,-0.44519472,-0.4348966,-0.4201585,-0.40104216,-0.3848549,-0.37600595,-0.3715968,-0.3657078,-0.3568896,-0.35100055,-0.34659147,-0.3436315,-0.33333337,-0.30980796,-0.28625166,-0.2656554,-0.25387728,-0.2420991,-0.23180091,-0.21854281,-0.20824468,-0.20235562,-0.1891284,-0.16116303,-0.13171768,-0.103752375,-0.08611596,-0.06989801,-0.049301624,-0.0228163,0.00073993206,0.016927242,0.030154467,0.05075085,0.074307084,0.09490335,0.11109054,0.12286866,0.13171768,0.13905573,0.12582862,0.09197414,0.049301624,0.0080782175,-0.027225375,-0.06844884,-0.12582868,-0.20235562,-0.28773165,-0.37600595,-0.458422,-0.534949,-0.5893997,-0.6291431,-0.6629976,-0.695372,-0.7306756,-0.7586409,-0.768939,-0.77482814,-0.7851571,-0.79986435,-0.81164247,-0.81309164,-0.8042734,-0.79986435,-0.8072026,-0.81457156,-0.81605154,-0.8101625,-0.80279344,-0.79986435,-0.80279344,-0.7969044,-0.7821972,-0.76308084,-0.74834275,-0.7380446,-0.73511547,-0.7395246,-0.7439337,-0.7424537,-0.7395246,-0.73215556,-0.7203774,-0.7144883,-0.7218574,-0.7248173,-0.7218574,-0.7189282,-0.71155924,-0.702741,-0.695372,-0.6894829,-0.6806648,-0.6791848,-0.68359387,-0.68800294,-0.6821139,-0.6777048,-0.6747757,-0.68359387,-0.692412,-0.6983011,-0.695372,-0.692412,-0.69685197,-0.70419014,-0.7144883,-0.7159683,-0.7086301,-0.70419014,-0.70126104,-0.6997811,-0.70126104,-0.6983011,-0.695372,-0.692412,-0.68655384,-0.68359387,-0.6791848,-0.67181575,-0.6659267,-0.6644776,-0.6659267,-0.6762248,-0.68359387,-0.68507385,-0.6791848,-0.6747757,-0.6806648,-0.68655384,-0.68655384,-0.6777048,-0.6629976,-0.6541486,-0.6526994,-0.6541486,-0.6526994,-0.64829034,-0.65710855,-0.66888666,-0.6821139,-0.6806648,-0.66888666,-0.65562856,-0.6512195,-0.6497395,-0.6497395,-0.6365122,-0.6232541,-0.611476,-0.59676874,-0.5761725,-0.55702525,-0.5364289,-0.51876175,-0.50257456,-0.48197824,-0.458422,-0.44519472,-0.44519472,-0.4481238,-0.43782568,-0.40693122,-0.37455678,-0.36866772,-0.40252215,-0.48049825,-0.5776216,-0.65858847,-0.702741,-0.71303916,-0.69685197,-0.6747757,-0.66888666,-0.6806648,-0.693892,-0.7071501,-0.71155924,-0.702741,-0.693892,-0.6909629,-0.6821139,-0.66003764,-0.6365122,-0.59235966,-0.51583266,-0.38633496,-0.2008757,-0.011038184,0.14935398,0.25091732,0.24206829,0.06693792,-0.23328096,-0.5864706,-0.8719822,-0.97203463,-0.8984676,-0.7424537,-0.611476,-0.540838,-0.52024174,-0.53349984,-0.55702525,-0.5746925,-0.5761725,-0.55557615,-0.5276108,-0.50698364,-0.5055345,-0.5114236,-0.5143527,-0.5084636,-0.49227643,-0.4731601,-0.458422,-0.44519472,-0.43193662,-0.4245984,-0.42604756,-0.4201585,-0.40545124,-0.383375,-0.3642586,-0.35248047,-0.3451115,-0.3421824,-0.33333337,-0.33040422,-0.33481336,-0.33481336,-0.32155526,-0.29947895,-0.27006447,-0.2420991,-0.22443193,-0.20531559,-0.18616837,-0.16705209,-0.14938492,-0.12878859,-0.10671234,-0.07726705,-0.049301624,-0.027225375,-0.00662905,0.009558201,0.030154467,0.046341658,0.05663979,0.06841791,0.074307084,0.08460522,0.09638333,0.09934318,0.09786332,0.08460522,0.06107974,0.0228163,-0.033114374,-0.09641415,-0.17294115,-0.25387728,-0.33774245,-0.4201585,-0.49375635,-0.55557615,-0.60706687,-0.64533037,-0.6821139,-0.7174483,-0.74834275,-0.779268,-0.8072026,-0.8189807,-0.8189807,-0.8072026,-0.79838437,-0.8013443,-0.8204607,-0.8337188,-0.8337188,-0.82194066,-0.8042734,-0.7954552,-0.79986435,-0.8086825,-0.81164247,-0.8086825,-0.79838437,-0.7821972,-0.7674899,-0.7586409,-0.7586409,-0.76160085,-0.76012087,-0.7527518,-0.7410045,-0.72626644,-0.7189282,-0.7159683,-0.7086301,-0.6997811,-0.68655384,-0.67329574,-0.6659267,-0.65858847,-0.65562856,-0.65858847,-0.6644776,-0.66888666,-0.67329574,-0.67329574,-0.6791848,-0.68655384,-0.68655384,-0.6791848,-0.6644776,-0.65710855,-0.6541486,-0.65710855,-0.6541486,-0.64829034,-0.64829034,-0.6512195,-0.65562856,-0.65562856,-0.64681035,-0.6424012,-0.64385045,-0.64533037,-0.64533037,-0.64533037,-0.6526994,-0.6526994,-0.64681035,-0.63355225,-0.6144359,-0.6026578,-0.6055869,-0.6129559,-0.617365,-0.618845,-0.62032497,-0.6232541,-0.618845,-0.61002684,-0.5982487,-0.59528875,-0.59676874,-0.6026578,-0.6026578,-0.5996978,-0.6041378,-0.6129559,-0.6232541,-0.618845,-0.60706687,-0.6011778,-0.6055869,-0.611476,-0.6129559,-0.5996978,-0.5879506,-0.5879506,-0.59235966,-0.5996978,-0.59528875,-0.57910156,-0.55850524,-0.53349984,-0.5128727,-0.49668545,-0.49079645,-0.4878673,-0.4731601,-0.4554929,-0.4334166,-0.41426945,-0.39808226,-0.38633496,-0.3715968,-0.35540962,-0.34070235,-0.33188426,-0.33040422,-0.3451115,-0.38926405,-0.4628619,-0.542318,-0.6041378,-0.6365122,-0.63503224,-0.62177414,-0.611476,-0.6129559,-0.618845,-0.62766325,-0.6379613,-0.64681035,-0.64533037,-0.6409213,-0.6321031,-0.611476,-0.5849906,-0.5379089,-0.43930566,-0.2715444,-0.0228163,0.25825548,0.5010946,0.64089036,0.6320722,0.41278934,0.052230716,-0.34070235,-0.65562856,-0.7969044,-0.76452994,-0.64385045,-0.53201985,-0.4716801,-0.45108378,-0.4554929,-0.4731601,-0.48345822,-0.48638737,-0.47904915,-0.4716801,-0.4628619,-0.4496038,-0.43782568,-0.43782568,-0.4422348,-0.4481238,-0.43930566,-0.41574937,-0.39219314,-0.3789659,-0.38044584,-0.3789659,-0.36866772,-0.35100055,-0.33629328,-0.32599515,-0.31421703,-0.29947895,-0.2818426,-0.26417536,-0.26121545,-0.25828636,-0.2553572,-0.25387728,-0.24798816,-0.23621005,-0.21120471,-0.17294115,-0.1405667,-0.1126014,-0.10082328,-0.087565124,-0.0610798,-0.024296284,0.009558201,0.033114433,0.052230716,0.07137787,0.09490335,0.11553037,0.12727773,0.13905573,0.15083396,0.16998112,0.18027925,0.18616843,0.18616843,0.18027925,0.16998112,0.14494503,0.10227227,0.05075085,-0.011038184,-0.081676066,-0.15675396,-0.23621005,-0.31125712,-0.37748593,-0.4437148,-0.50405455,-0.5614344,-0.60706687,-0.6321031,-0.6409213,-0.64385045,-0.6541486,-0.6703666,-0.68655384,-0.6983011,-0.70126104,-0.695372,-0.68655384,-0.6894829,-0.69685197,-0.7056702,-0.71155924,-0.702741,-0.68507385,-0.6703666,-0.6629976,-0.6659267,-0.6659267,-0.65710855,-0.64385045,-0.63355225,-0.62766325,-0.626214,-0.62473404,-0.62032497,-0.618845,-0.617365,-0.6129559,-0.6026578,-0.5849906,-0.5732125,-0.57028335,-0.5746925,-0.58058155,-0.58206147,-0.5849906,-0.5879506,-0.5908797,-0.59235966,-0.5893997,-0.5879506,-0.5908797,-0.5908797,-0.5879506,-0.5849906,-0.5938396,-0.61002684,-0.62473404,-0.6306231,-0.62473404,-0.617365,-0.6129559,-0.6129559,-0.615885,-0.618845,-0.62766325,-0.63503224,-0.6394414,-0.6365122,-0.6321031,-0.63355225,-0.6394414,-0.6365122,-0.6306231,-0.62032497,-0.617365,-0.62473404,-0.6306231,-0.6321031,-0.626214,-0.62177414,-0.617365,-0.617365,-0.615885,-0.617365,-0.617365,-0.62473404,-0.6291431,-0.62766325,-0.62032497,-0.6144359,-0.615885,-0.6129559,-0.60706687,-0.59676874,-0.5879506,-0.58351064,-0.5849906,-0.58351064,-0.5776216,-0.5717634,-0.57028335,-0.5717634,-0.5732125,-0.57028335,-0.56732345,-0.5629144,-0.55702525,-0.5526162,-0.543798,-0.540838,-0.5364289,-0.53201985,-0.5261308,-0.5246508,-0.5290599,-0.542318,-0.5526162,-0.5526162,-0.5467271,-0.543798,-0.542318,-0.5364289,-0.5246508,-0.50698364,-0.49375635,-0.48345822,-0.47020012,-0.4466439,-0.41574937,-0.38778406,-0.37600595,-0.36866772,-0.3539297,-0.3421824,-0.33629328,-0.32744426,-0.3083279,-0.2818426,-0.26121545,-0.27888268,-0.34807146,-0.44519472,-0.53201985,-0.5849906,-0.6041378,-0.6026578,-0.59528875,-0.5864706,-0.5849906,-0.5908797,-0.5996978,-0.60854685,-0.6129559,-0.61002684,-0.60854685,-0.6011778,-0.5761725,-0.534949,-0.45990193,-0.32599515,-0.09052515,0.23177004,0.56143427,0.8013134,0.88813853,0.73656464,0.37304604,-0.07137793,-0.48345822,-0.74541366,-0.7910153,-0.6894829,-0.55702525,-0.4731601,-0.44519472,-0.458422,-0.47608918,-0.48197824,-0.4731601,-0.45990193,-0.45108378,-0.4437148,-0.4348966,-0.43045664,-0.42604756,-0.42900747,-0.42604756,-0.41282028,-0.39808226,-0.38778406,-0.381895,-0.37600595,-0.36129868,-0.3451115,-0.33481336,-0.33040422,-0.32451516,-0.3083279,-0.28918082,-0.27006447,-0.2671045,-0.27006447,-0.2685845,-0.26417536,-0.25387728,-0.24357915,-0.23032099,-0.2170937,-0.19646657,-0.17883027,-0.16261214,-0.1405667,-0.11405051,-0.08022696,-0.055190742,-0.03163445,-0.005149126,0.027225256,0.055190682,0.08167601,0.09934318,0.112570524,0.13316679,0.15820312,0.17439032,0.18027925,0.18468833,0.18909752,0.19350672,0.1905775,0.17731941,0.14935398,0.10816145,0.058119774,-0.008109033,-0.08611596,-0.16705209,-0.24650824,-0.3186261,-0.38778406,-0.4554929,-0.51583266,-0.56732345,-0.611476,-0.6541486,-0.693892,-0.7248173,-0.7439337,-0.74982274,-0.7542318,-0.76160085,-0.770419,-0.770419,-0.7674899,-0.76308084,-0.76452994,-0.76308084,-0.7586409,-0.74834275,-0.7395246,-0.7395246,-0.7468936,-0.74541366,-0.7410045,-0.72626644,-0.7159683,-0.7086301,-0.702741,-0.6997811,-0.692412,-0.68655384,-0.6791848,-0.6644776,-0.64829034,-0.6321031,-0.62177414,-0.6144359,-0.6144359,-0.615885,-0.62032497,-0.62177414,-0.618845,-0.6129559,-0.60854685,-0.62032497,-0.63503224,-0.64533037,-0.64533037,-0.6379613,-0.62766325,-0.6291431,-0.63355225,-0.63503224,-0.6379613,-0.6409213,-0.64681035,-0.6424012,-0.6321031,-0.62177414,-0.6129559,-0.62177414,-0.63355225,-0.6424012,-0.64533037,-0.64385045,-0.64385045,-0.64533037,-0.64681035,-0.64533037,-0.6497395,-0.64829034,-0.6409213,-0.6321031,-0.6232541,-0.62032497,-0.62473404,-0.6232541,-0.617365,-0.6129559,-0.60854685,-0.611476,-0.61002684,-0.6055869,-0.6011778,-0.5996978,-0.6055869,-0.611476,-0.62177414,-0.6306231,-0.6306231,-0.6291431,-0.617365,-0.60706687,-0.6011778,-0.60706687,-0.6144359,-0.615885,-0.60854685,-0.59676874,-0.5908797,-0.5893997,-0.5908797,-0.5893997,-0.58206147,-0.5776216,-0.5776216,-0.58058155,-0.5864706,-0.5893997,-0.5982487,-0.6011778,-0.59676874,-0.58058155,-0.5629144,-0.55850524,-0.56732345,-0.58351064,-0.5938396,-0.5893997,-0.5717634,-0.5526162,-0.53349984,-0.5217217,-0.51731265,-0.5143527,-0.5084636,-0.48049825,-0.4437148,-0.40838033,-0.38778406,-0.38633496,-0.39367312,-0.39956224,-0.39367312,-0.38044584,-0.36277866,-0.35100055,-0.3598187,-0.41282028,-0.50112545,-0.59528875,-0.6674067,-0.6909629,-0.68359387,-0.6703666,-0.6674067,-0.6762248,-0.6806648,-0.6747757,-0.6674067,-0.65710855,-0.65858847,-0.66003764,-0.64681035,-0.617365,-0.5732125,-0.49668545,-0.37455678,-0.19205749,0.016927242,0.20969391,0.35540962,0.40986025,0.30240798,0.027225256,-0.33922237,-0.68800294,-0.88961864,-0.88816947,-0.7542318,-0.60706687,-0.50257456,-0.4613819,-0.46872014,-0.4996454,-0.5276108,-0.53349984,-0.51583266,-0.49523634,-0.48638737,-0.49227643,-0.49668545,-0.49079645,-0.4746092,-0.4613819,-0.4554929,-0.4437148,-0.42604756,-0.39956224,-0.3789659,-0.37600595,-0.37748593,-0.381895,-0.37748593,-0.37455678,-0.3715968,-0.36866772,-0.3598187,-0.34952056,-0.33922237,-0.33188426,-0.3186261,-0.29947895,-0.27447355,-0.2553572,-0.24650824,-0.23621005,-0.2200228,-0.19794655,-0.17439032,-0.15675396,-0.13760674,-0.12141961,-0.10523236,-0.08611596,-0.06989801,-0.041963458,-0.0125181675,0.013967156,0.036043525,0.046341658,0.059599757,0.074307084,0.090494275,0.09638333,0.09345424,0.090494275,0.09197414,0.08167601,0.059599757,0.012487292,-0.05371076,-0.12582868,-0.20824468,-0.29214072,-0.3701169,-0.43930566,-0.4996454,-0.54524714,-0.59528875,-0.6526994,-0.7056702,-0.7468936,-0.77337897,-0.7851571,-0.7939753,-0.79986435,-0.8072026,-0.8175315,-0.82338977,-0.8337188,-0.8351679,-0.8351679,-0.8337188,-0.83960783,-0.848426,-0.846946,-0.83812785,-0.8189807,-0.8072026,-0.8086825,-0.79986435,-0.779268,-0.7557118,-0.7410045,-0.7395246,-0.7380446,-0.73215556,-0.71155924,-0.6983011,-0.6997811,-0.7071501,-0.7159683,-0.7189282,-0.71155924,-0.70419014,-0.693892,-0.68800294,-0.68655384,-0.6909629,-0.693892,-0.695372,-0.692412,-0.6909629,-0.695372,-0.6997811,-0.6983011,-0.6909629,-0.6894829,-0.6909629,-0.70126104,-0.7056702,-0.702741,-0.6983011,-0.6997811,-0.702741,-0.6997811,-0.692412,-0.68507385,-0.68359387,-0.68507385,-0.6806648,-0.6703666,-0.65858847,-0.6541486,-0.65710855,-0.6629976,-0.6629976,-0.6615176,-0.6659267,-0.6747757,-0.68507385,-0.68800294,-0.68655384,-0.68800294,-0.68800294,-0.68655384,-0.6762248,-0.6644776,-0.65710855,-0.65710855,-0.6615176,-0.6615176,-0.66003764,-0.65562856,-0.6512195,-0.64533037,-0.6321031,-0.62177414,-0.62177414,-0.6232541,-0.6291431,-0.63355225,-0.6394414,-0.6512195,-0.66003764,-0.65858847,-0.6424012,-0.618845,-0.59528875,-0.58058155,-0.56732345,-0.5540961,-0.542318,-0.5290599,-0.50698364,-0.47756916,-0.4407856,-0.41574937,-0.41134036,-0.41282028,-0.39956224,-0.3730768,-0.3539297,-0.36866772,-0.4334166,-0.5290599,-0.618845,-0.6791848,-0.7056702,-0.7056702,-0.695372,-0.6909629,-0.693892,-0.70126104,-0.702741,-0.695372,-0.68359387,-0.6777048,-0.6806648,-0.6747757,-0.6409213,-0.5908797,-0.51876175,-0.42311847,-0.27595347,-0.07285792,0.13760674,0.30536807,0.38041484,0.30977702,0.065488815,-0.2685845,-0.611476,-0.84990597,-0.9058058,-0.81164247,-0.66888666,-0.55850524,-0.50112545,-0.48638737,-0.4981655,-0.5084636,-0.5143527,-0.5128727,-0.50698364,-0.49668545,-0.48197824,-0.47020012,-0.46431106,-0.45990193,-0.4496038,-0.42900747,-0.40838033,-0.38926405,-0.38926405,-0.3848549,-0.36866772,-0.34659147,-0.32744426,-0.31714612,-0.3083279,-0.29947895,-0.28477168,-0.27006447,-0.2671045,-0.2671045,-0.26121545,-0.24502826,-0.23032099,-0.2200228,-0.21120471,-0.2008757,-0.18468845,-0.16557217,-0.14790493,-0.1302377,-0.103752375,-0.06844884,-0.034594476,-0.0022200346,0.028674483,0.06107974,0.090494275,0.11405051,0.13316679,0.15083396,0.16998112,0.19350672,0.20824468,0.20969391,0.20824468,0.20676482,0.20380461,0.19205749,0.16998112,0.13464677,0.09197414,0.0404526,-0.021336317,-0.09345424,-0.16998124,-0.25091726,-0.32599515,-0.40104216,-0.4731601,-0.5290599,-0.5746925,-0.6129559,-0.64829034,-0.6821139,-0.7174483,-0.7395246,-0.7513027,-0.7586409,-0.7660099,-0.7660099,-0.76452994,-0.76160085,-0.76308084,-0.7674899,-0.7674899,-0.76308084,-0.7527518,-0.7439337,-0.7439337,-0.7410045,-0.73363554,-0.7189282,-0.70126104,-0.695372,-0.692412,-0.6894829,-0.68655384,-0.6806648,-0.66888666,-0.6526994,-0.6365122,-0.62766325,-0.62766325,-0.6365122,-0.6424012,-0.6409213,-0.6394414,-0.6379613,-0.6379613,-0.6379613,-0.6306231,-0.617365,-0.60706687,-0.6041378,-0.6144359,-0.62766325,-0.6394414,-0.64385045,-0.64385045,-0.6365122,-0.6306231,-0.6306231,-0.6365122,-0.6365122,-0.6306231,-0.62177414,-0.615885,-0.615885,-0.6291431,-0.63503224,-0.6321031,-0.62177414,-0.6129559,-0.60706687,-0.6055869,-0.60854685,-0.61002684,-0.6144359,-0.6144359,-0.611476,-0.60706687,-0.5996978,-0.59528875,-0.59235966,-0.5864706,-0.58058155,-0.5776216,-0.58351064,-0.5864706,-0.5849906,-0.5761725,-0.5658742,-0.5629144,-0.5658742,-0.56732345,-0.55850524,-0.5467271,-0.5379089,-0.53349984,-0.5290599,-0.51731265,-0.4996454,-0.47904915,-0.46431106,-0.44519472,-0.41722935,-0.39219314,-0.3715968,-0.3568896,-0.3583696,-0.36277866,-0.3539297,-0.33629328,-0.30980796,-0.28625166,-0.28773165,-0.33040422,-0.41134036,-0.5055345,-0.58058155,-0.62032497,-0.62766325,-0.62177414,-0.617365,-0.6129559,-0.6129559,-0.60706687,-0.60706687,-0.6144359,-0.618845,-0.62177414,-0.626214,-0.615885,-0.59235966,-0.542318,-0.43045664,-0.2420991,0.033114433,0.34215152,0.61147594,0.77630806,0.7836462,0.57025254,0.18761742,-0.24798816,-0.615885,-0.7954552,-0.7836771,-0.6674067,-0.55702525,-0.49079645,-0.46431106,-0.46431106,-0.47608918,-0.49227643,-0.50405455,-0.5055345,-0.49227643,-0.48049825,-0.4613819,-0.4437148,-0.43193662,-0.42604756,-0.42311847,-0.41722935,-0.40986037,-0.40397125,-0.39808226,-0.3951531,-0.38926405,-0.3715968,-0.34807146,-0.33040422,-0.31566614,-0.3024389,-0.29506987,-0.28625166,-0.2803626,-0.27888268,-0.27006447,-0.25976634,-0.2420991,-0.2273919,-0.21120471,-0.19057757,-0.16998124,-0.15086484,-0.13171768,-0.10816145,-0.07726705,-0.046372533,-0.0228163,0.0021891594,0.024265409,0.055190682,0.09345424,0.12434864,0.14053583,0.15083396,0.16850114,0.1905775,0.21558285,0.22295201,0.20969391,0.19646657,0.19498658,0.19350672,0.1758703,0.13464677,0.06693792,-0.0125181675,-0.087565124,-0.16409212,-0.24946815,-0.33481336,-0.41134036,-0.47904915,-0.534949,-0.58206147,-0.62177414,-0.65710855,-0.68507385,-0.7159683,-0.7424537,-0.7527518,-0.7557118,-0.7513027,-0.7439337,-0.7395246,-0.73511547,-0.72626644,-0.7203774,-0.7248173,-0.73511547,-0.74541366,-0.7468936,-0.7424537,-0.73363554,-0.72333735,-0.7086301,-0.692412,-0.6762248,-0.6659267,-0.6629976,-0.6615176,-0.6526994,-0.64385045,-0.6365122,-0.6306231,-0.6306231,-0.6379613,-0.6394414,-0.6409213,-0.63503224,-0.618845,-0.6026578,-0.5982487,-0.61002684,-0.62473404,-0.6321031,-0.6306231,-0.61002684,-0.59528875,-0.5879506,-0.58206147,-0.5849906,-0.5908797,-0.5938396,-0.6041378,-0.6144359,-0.611476,-0.61002684,-0.60854685,-0.6129559,-0.617365,-0.62177414,-0.62473404,-0.62766325,-0.626214,-0.62177414,-0.6129559,-0.6026578,-0.6011778,-0.60706687,-0.60706687,-0.5996978,-0.5908797,-0.5864706,-0.5996978,-0.617365,-0.6291431,-0.6321031,-0.626214,-0.6129559,-0.6011778,-0.59528875,-0.59676874,-0.61002684,-0.617365,-0.6129559,-0.6026578,-0.5864706,-0.58351064,-0.5908797,-0.5908797,-0.5879506,-0.58058155,-0.56880337,-0.55850524,-0.543798,-0.5305399,-0.51583266,-0.50405455,-0.49079645,-0.47020012,-0.4407856,-0.40986037,-0.383375,-0.3701169,-0.37455678,-0.381895,-0.37455678,-0.34807146,-0.31566614,-0.2965498,-0.31566614,-0.383375,-0.48197824,-0.5746925,-0.6379613,-0.6629976,-0.66003764,-0.6497395,-0.64681035,-0.64681035,-0.64829034,-0.6424012,-0.6409213,-0.64681035,-0.65710855,-0.6703666,-0.6777048,-0.66003764,-0.62766325,-0.56732345,-0.4481238,-0.24061912,0.06107974,0.387784,0.6629667,0.8189806,0.77775717,0.49227643,0.05663979,-0.40397125,-0.7571918,-0.8808004,-0.8072026,-0.65858847,-0.534949,-0.47608918,-0.46579105,-0.48638737,-0.5114236,-0.5261308,-0.5231708,-0.5128727,-0.49523634,-0.48049825,-0.47020012,-0.458422,-0.458422,-0.46727103,-0.47608918,-0.4731601,-0.4525329,-0.4201585,-0.38926405,-0.37455678,-0.3657078,-0.3583696,-0.35100055,-0.33922237,-0.33333337,-0.32451516,-0.3083279,-0.2936207,-0.2832917,-0.27888268,-0.27888268,-0.2715444,-0.25976634,-0.24650824,-0.23328096,-0.21561372,-0.19501746,-0.16850126,-0.15086484,-0.13467765,-0.119939566,-0.09786326,-0.06403971,-0.030185282,0.00073993206,0.033114433,0.06400883,0.09490335,0.11845958,0.12582862,0.13612664,0.14642489,0.16113222,0.17731941,0.19350672,0.20380461,0.20235562,0.18320847,0.13905573,0.07871604,0.013967156,-0.041963458,-0.0993433,-0.16409212,-0.23621005,-0.31566614,-0.3951531,-0.4731601,-0.542318,-0.5982487,-0.63503224,-0.65710855,-0.6747757,-0.702741,-0.73511547,-0.76308084,-0.77630806,-0.77630806,-0.771899,-0.7674899,-0.76452994,-0.768939,-0.771899,-0.77630806,-0.77482814,-0.76452994,-0.7513027,-0.7424537,-0.7439337,-0.7513027,-0.74541366,-0.73215556,-0.7159683,-0.7071501,-0.7071501,-0.7086301,-0.70126104,-0.6909629,-0.68655384,-0.68800294,-0.68800294,-0.6806648,-0.67329574,-0.6674067,-0.66888666,-0.67181575,-0.66003764,-0.64385045,-0.6321031,-0.6321031,-0.6409213,-0.6512195,-0.65858847,-0.6615176,-0.66003764,-0.65562856,-0.6497395,-0.64533037,-0.64533037,-0.65562856,-0.6615176,-0.6629976,-0.6615176,-0.65710855,-0.6541486,-0.6541486,-0.6526994,-0.6541486,-0.65710855,-0.65858847,-0.6541486,-0.64533037,-0.63503224,-0.6409213,-0.6526994,-0.66003764,-0.66003764,-0.65562856,-0.65710855,-0.65858847,-0.65562856,-0.64681035,-0.6379613,-0.63355225,-0.6394414,-0.6424012,-0.6365122,-0.626214,-0.62032497,-0.62032497,-0.615885,-0.61002684,-0.59235966,-0.5717634,-0.5526162,-0.53349984,-0.5099436,-0.48490733,-0.45990193,-0.4407856,-0.4245984,-0.4201585,-0.41574937,-0.40104216,-0.3789659,-0.3539297,-0.3436315,-0.37748593,-0.458422,-0.5658742,-0.65710855,-0.71007925,-0.7277465,-0.7248173,-0.72333735,-0.7248173,-0.7144883,-0.70126104,-0.6894829,-0.68655384,-0.692412,-0.6983011,-0.6997811,-0.693892,-0.6659267,-0.6232541,-0.5629144,-0.4716801,-0.33040422,-0.13467765,0.06841791,0.24795723,0.34952056,0.32892418,0.14201593,-0.16705209,-0.5217217,-0.8204607,-0.94702923,-0.8969876,-0.7513027,-0.60706687,-0.5217217,-0.49375635,-0.4996454,-0.5055345,-0.50405455,-0.49079645,-0.47904915,-0.4746092,-0.47020012,-0.46431106,-0.45697284,-0.4554929,-0.45401293,-0.4481238,-0.4334166,-0.41134036,-0.39663303,-0.39074403,-0.381895,-0.3715968,-0.36129868,-0.34807146,-0.3421824,-0.33333337,-0.32155526,-0.31125712,-0.306848,-0.305368,-0.29506987,-0.2774027,-0.26121545,-0.25387728,-0.25387728,-0.24798816,-0.23328096,-0.21265382,-0.19353747,-0.18175936,-0.16557217,-0.1434958,-0.1184904,-0.09052515,-0.06844884,-0.049301624,-0.01988715,0.0080782175,0.03900349,0.06693792,0.08460522,0.09934318,0.10816145,0.11109054,0.1169796,0.1302377,0.13905573,0.14053583,0.12875783,0.09345424,0.046341658,-0.018407226,-0.0993433,-0.19205749,-0.28773165,-0.3715968,-0.44519472,-0.5143527,-0.56732345,-0.6144359,-0.64681035,-0.67329574,-0.70126104,-0.73656464,-0.76160085,-0.77482814,-0.77630806,-0.77778804,-0.78660625,-0.7969044,-0.80279344,-0.8086825,-0.81605154,-0.8278297,-0.8351679,-0.8278297,-0.8086825,-0.78808624,-0.7851571,-0.7851571,-0.7821972,-0.768939,-0.7513027,-0.7380446,-0.73363554,-0.72626644,-0.7189282,-0.7056702,-0.69685197,-0.68800294,-0.6791848,-0.6674067,-0.65710855,-0.65562856,-0.65562856,-0.6526994,-0.6497395,-0.64829034,-0.6541486,-0.6674067,-0.68359387,-0.6821139,-0.6762248,-0.66888666,-0.66888666,-0.6747757,-0.6777048,-0.6806648,-0.6762248,-0.67329574,-0.67181575,-0.6674067,-0.6659267,-0.6762248,-0.6909629,-0.6997811,-0.69685197,-0.6806648,-0.6615176,-0.6497395,-0.6541486,-0.6659267,-0.6777048,-0.6806648,-0.6762248,-0.6674067,-0.65710855,-0.6512195,-0.64829034,-0.6424012,-0.63503224,-0.6321031,-0.63503224,-0.6409213,-0.64829034,-0.64533037,-0.62766325,-0.6129559,-0.60706687,-0.6144359,-0.6291431,-0.6394414,-0.6409213,-0.6394414,-0.63355225,-0.6144359,-0.59676874,-0.5746925,-0.55850524,-0.5467271,-0.5231708,-0.49227643,-0.46579105,-0.4481238,-0.4481238,-0.45401293,-0.4496038,-0.43193662,-0.40104216,-0.383375,-0.3789659,-0.40986037,-0.4716801,-0.5540961,-0.6379613,-0.693892,-0.71007925,-0.7056702,-0.68507385,-0.66888666,-0.6659267,-0.6674067,-0.67181575,-0.67329574,-0.6777048,-0.6777048,-0.6791848,-0.6747757,-0.6512195,-0.618845,-0.55557615,-0.4363457,-0.25091726,0.0021891594,0.26121545,0.45990193,0.5540652,0.49520552,0.25091732,-0.103752375,-0.47904915,-0.76308084,-0.8705023,-0.8175315,-0.6894829,-0.5717634,-0.5055345,-0.48638737,-0.50257456,-0.53201985,-0.54524714,-0.53349984,-0.5128727,-0.4996454,-0.49227643,-0.48490733,-0.4746092,-0.45697284,-0.4466439,-0.4422348,-0.43930566,-0.4334166,-0.42311847,-0.40986037,-0.39074403,-0.3657078,-0.3436315,-0.32599515,-0.32010603,-0.32155526,-0.30980796,-0.29506987,-0.27595347,-0.2656554,-0.2685845,-0.2671045,-0.25976634,-0.23769003,-0.2141338,-0.19942653,-0.1891284,-0.18027937,-0.17439032,-0.16409212,-0.15086484,-0.1243487,-0.08904517,-0.05371076,-0.018407226,0.005149007,0.025745392,0.059599757,0.09197414,0.12286866,0.15083396,0.16850114,0.17879939,0.18027925,0.17291033,0.16554129,0.1626122,0.16554129,0.15672302,0.12434864,0.074307084,0.012487292,-0.056670725,-0.12141961,-0.19353747,-0.2715444,-0.34952056,-0.42311847,-0.49079645,-0.55113626,-0.5996978,-0.6365122,-0.65562856,-0.6747757,-0.69685197,-0.7248173,-0.7468936,-0.7571918,-0.74982274,-0.7424537,-0.7395246,-0.7395246,-0.74834275,-0.7571918,-0.7542318,-0.74834275,-0.73511547,-0.7189282,-0.71007925,-0.7086301,-0.7056702,-0.70126104,-0.68800294,-0.67181575,-0.6629976,-0.6644776,-0.67181575,-0.6747757,-0.66888666,-0.66003764,-0.6409213,-0.62177414,-0.6055869,-0.59528875,-0.5982487,-0.6041378,-0.6026578,-0.5938396,-0.58206147,-0.5776216,-0.5776216,-0.58058155,-0.5776216,-0.5717634,-0.5732125,-0.5776216,-0.57910156,-0.57910156,-0.58058155,-0.5879506,-0.6011778,-0.60706687,-0.6041378,-0.5938396,-0.5893997,-0.59235966,-0.59676874,-0.6011778,-0.5996978,-0.59528875,-0.58351064,-0.5732125,-0.57028335,-0.5761725,-0.59235966,-0.611476,-0.6144359,-0.61002684,-0.6055869,-0.60854685,-0.6129559,-0.6129559,-0.6055869,-0.59528875,-0.59235966,-0.5996978,-0.6011778,-0.5982487,-0.5908797,-0.58206147,-0.58206147,-0.58058155,-0.5864706,-0.5938396,-0.5996978,-0.6026578,-0.59528875,-0.57910156,-0.5658742,-0.5614344,-0.5614344,-0.55850524,-0.5540961,-0.543798,-0.53201985,-0.51583266,-0.4996454,-0.47608918,-0.4466439,-0.41722935,-0.39367312,-0.3701169,-0.3583696,-0.36277866,-0.3715968,-0.3671878,-0.34952056,-0.32155526,-0.31421703,-0.34659147,-0.4216385,-0.5128727,-0.5864706,-0.6291431,-0.64681035,-0.6497395,-0.64829034,-0.64533037,-0.64681035,-0.64533037,-0.64385045,-0.64829034,-0.64533037,-0.6409213,-0.6394414,-0.6365122,-0.62177414,-0.5996978,-0.54524714,-0.40986037,-0.17587024,0.16113222,0.5069835,0.7674589,0.8778404,0.7718681,0.43782568,-0.0036999583,-0.4437148,-0.7468936,-0.8351679,-0.74834275,-0.60706687,-0.5084636,-0.47608918,-0.49227643,-0.5217217,-0.54524714,-0.5540961,-0.54820704,-0.534949,-0.5099436,-0.47904915,-0.45697284,-0.4481238,-0.4525329,-0.4554929,-0.4525329,-0.4407856,-0.42900747,-0.41870934,-0.40986037,-0.40104216,-0.39367312,-0.38926405,-0.37748593,-0.3583696,-0.33481336,-0.31566614,-0.30980796,-0.31273705,-0.306848,-0.29214072,-0.2685845,-0.24650824,-0.228841,-0.2141338,-0.19646657,-0.17735028,-0.15968305,-0.14497584,-0.1243487,-0.09345424,-0.0610798,-0.034594476,-0.00662905,0.024265409,0.04782164,0.07137787,0.08460522,0.08901417,0.10079241,0.11993945,0.14642489,0.17291033,0.19646657,0.21413362,0.22443187,0.21999192,0.19498658,0.1626122,0.1302377,0.09934318,0.059599757,-0.0022200346,-0.087565124,-0.18323928,-0.27595347,-0.36277866,-0.4407856,-0.5128727,-0.56880337,-0.61002684,-0.6424012,-0.6747757,-0.7144883,-0.7527518,-0.779268,-0.78808624,-0.7851571,-0.7807172,-0.770419,-0.76308084,-0.7586409,-0.7542318,-0.7542318,-0.7527518,-0.7468936,-0.7380446,-0.73656464,-0.7380446,-0.7410045,-0.7395246,-0.73215556,-0.7203774,-0.7144883,-0.7071501,-0.69685197,-0.68800294,-0.6762248,-0.6644776,-0.6512195,-0.6365122,-0.63355225,-0.64385045,-0.66003764,-0.6615176,-0.6526994,-0.6379613,-0.6306231,-0.6409213,-0.64829034,-0.64533037,-0.63503224,-0.6291431,-0.63503224,-0.64829034,-0.6615176,-0.66888666,-0.6674067,-0.66888666,-0.6674067,-0.6615176,-0.65710855,-0.65710855,-0.66003764,-0.6629976,-0.66003764,-0.6526994,-0.6497395,-0.6526994,-0.6541486,-0.6526994,-0.6512195,-0.64681035,-0.6409213,-0.6365122,-0.6306231,-0.62766325,-0.63503224,-0.64533037,-0.64681035,-0.6394414,-0.6291431,-0.62177414,-0.62473404,-0.62473404,-0.62177414,-0.62032497,-0.618845,-0.62177414,-0.62032497,-0.615885,-0.60706687,-0.6041378,-0.6041378,-0.5982487,-0.5938396,-0.59676874,-0.5982487,-0.6055869,-0.6041378,-0.59528875,-0.5879506,-0.5849906,-0.5908797,-0.59528875,-0.59528875,-0.5982487,-0.6041378,-0.61002684,-0.61002684,-0.6055869,-0.6011778,-0.5996978,-0.60854685,-0.6144359,-0.6144359,-0.6041378,-0.58206147,-0.5540961,-0.5246508,-0.49668545,-0.47608918,-0.45990193,-0.4422348,-0.42311847,-0.40252215,-0.3848549,-0.38044584,-0.381895,-0.3671878,-0.3421824,-0.32451516,-0.32744426,-0.3701169,-0.45108378,-0.543798,-0.615885,-0.6629976,-0.6791848,-0.6777048,-0.6762248,-0.6777048,-0.68655384,-0.692412,-0.68507385,-0.67181575,-0.66003764,-0.66003764,-0.6615176,-0.64681035,-0.611476,-0.5658742,-0.4878673,-0.3671878,-0.16850126,0.07578695,0.30095887,0.45990193,0.49227643,0.34215152,0.036043525,-0.33629328,-0.6747757,-0.86461323,-0.86609316,-0.7586409,-0.6424012,-0.5614344,-0.5246508,-0.5114236,-0.5099436,-0.5217217,-0.534949,-0.542318,-0.534949,-0.5143527,-0.49523634,-0.48197824,-0.4731601,-0.46727103,-0.45697284,-0.44519472,-0.42752755,-0.40986037,-0.39367312,-0.3789659,-0.3701169,-0.36129868,-0.35100055,-0.33481336,-0.31714612,-0.3024389,-0.2965498,-0.29214072,-0.28773165,-0.2803626,-0.27006447,-0.26121545,-0.2553572,-0.24650824,-0.23621005,-0.2170937,-0.19794655,-0.17587024,-0.15527403,-0.13760674,-0.117010474,-0.09641415,-0.0743379,-0.049301624,-0.016927183,0.009558201,0.028674483,0.043412566,0.058119774,0.07871604,0.103752255,0.12434864,0.13612664,0.14053583,0.14346492,0.14494503,0.13612664,0.11993945,0.10079241,0.07726705,0.04489255,-0.00662905,-0.07726705,-0.15527403,-0.23473006,-0.31125712,-0.3848549,-0.4554929,-0.52024174,-0.5761725,-0.62473404,-0.66888666,-0.70126104,-0.71303916,-0.71155924,-0.7144883,-0.7248173,-0.74541366,-0.76308084,-0.76308084,-0.7586409,-0.7571918,-0.7660099,-0.77337897,-0.77630806,-0.77482814,-0.770419,-0.768939,-0.7660099,-0.7542318,-0.7468936,-0.7410045,-0.7395246,-0.7380446,-0.7292264,-0.7189282,-0.70126104,-0.68800294,-0.6821139,-0.6747757,-0.6791848,-0.68655384,-0.692412,-0.6909629,-0.68507385,-0.6806648,-0.6791848,-0.6821139,-0.68507385,-0.6747757,-0.6644776,-0.65562856,-0.6497395,-0.64533037,-0.6409213,-0.6394414,-0.6409213,-0.6512195,-0.65710855,-0.65562856,-0.65562856,-0.65562856,-0.6629976,-0.67329574,-0.6806648,-0.68507385,-0.68359387,-0.6806648,-0.6703666,-0.66003764,-0.6541486,-0.65710855,-0.6659267,-0.67329574,-0.66888666,-0.6512195,-0.6424012,-0.6379613,-0.6379613,-0.6424012,-0.64681035,-0.6512195,-0.66003764,-0.6615176,-0.6512195,-0.6409213,-0.63503224,-0.6379613,-0.64681035,-0.6526994,-0.6541486,-0.65710855,-0.65710855,-0.6526994,-0.64829034,-0.64681035,-0.6512195,-0.66003764,-0.6615176,-0.6526994,-0.6306231,-0.611476,-0.59676874,-0.5849906,-0.5732125,-0.5614344,-0.549687,-0.5393889,-0.5231708,-0.50112545,-0.4731601,-0.44519472,-0.43045664,-0.4216385,-0.41870934,-0.41282028,-0.40986037,-0.40986037,-0.4334166,-0.48197824,-0.5540961,-0.63355225,-0.6997811,-0.7292264,-0.7248173,-0.71007925,-0.695372,-0.695372,-0.6997811,-0.702741,-0.702741,-0.7071501,-0.71155924,-0.7174483,-0.702741,-0.66888666,-0.626214,-0.56732345,-0.47904915,-0.33629328,-0.15086484,0.025745392,0.16850114,0.23473,0.18320847,-0.021336317,-0.32744426,-0.65710855,-0.88961864,-0.9411402,-0.846946,-0.702741,-0.5879506,-0.5231708,-0.4996454,-0.5084636,-0.53201985,-0.5540961,-0.5614344,-0.54820704,-0.53349984,-0.5246508,-0.51876175,-0.5128727,-0.4996454,-0.4878673,-0.47904915,-0.47756916,-0.46872014,-0.45697284,-0.44519472,-0.4348966,-0.4348966,-0.43193662,-0.4245984,-0.41574937,-0.40693122,-0.39219314,-0.3715968,-0.35100055,-0.33774245,-0.33481336,-0.33629328,-0.32303518,-0.2965498,-0.2656554,-0.2420991,-0.23180091,-0.2273919,-0.21854281,-0.19794655,-0.17294115,-0.1434958,-0.117010474,-0.09641415,-0.078746974,-0.06403971,-0.04489261,-0.018407226,0.01544714,0.04782164,0.0728271,0.09345424,0.10520136,0.11553037,0.11993945,0.11845958,0.112570524,0.10227227,0.08608508,0.0537107,0.0021891594,-0.059599817,-0.1302377,-0.20235562,-0.27299356,-0.35248047,-0.42900747,-0.49523634,-0.55113626,-0.6026578,-0.6541486,-0.6997811,-0.7395246,-0.76308084,-0.77778804,-0.78808624,-0.79986435,-0.8101625,-0.81457156,-0.82194066,-0.8278297,-0.8307588,-0.82194066,-0.8057534,-0.7924953,-0.7821972,-0.77778804,-0.77337897,-0.76452994,-0.7557118,-0.7513027,-0.74834275,-0.7395246,-0.7277465,-0.7159683,-0.70419014,-0.6983011,-0.68655384,-0.67181575,-0.6629976,-0.65710855,-0.65710855,-0.65710855,-0.6526994,-0.64681035,-0.64385045,-0.64533037,-0.64681035,-0.6497395,-0.6512195,-0.6541486,-0.65562856,-0.6541486,-0.64829034,-0.6424012,-0.6424012,-0.64533037,-0.6409213,-0.63355225,-0.62766325,-0.62473404,-0.6321031,-0.6409213,-0.64533037,-0.64681035,-0.64385045,-0.6409213,-0.6379613,-0.6365122,-0.6379613,-0.6379613,-0.6379613,-0.6321031,-0.62032497,-0.6144359,-0.6144359,-0.618845,-0.618845,-0.61002684,-0.6011778,-0.5996978,-0.6041378,-0.61002684,-0.60854685,-0.6026578,-0.5996978,-0.60706687,-0.615885,-0.618845,-0.6129559,-0.6041378,-0.5996978,-0.5982487,-0.5996978,-0.5982487,-0.5893997,-0.5761725,-0.55557615,-0.542318,-0.5379089,-0.5276108,-0.5143527,-0.49227643,-0.46431106,-0.44519472,-0.43782568,-0.42604756,-0.40986037,-0.39808226,-0.39074403,-0.38044584,-0.3598187,-0.33481336,-0.32303518,-0.35100055,-0.4201585,-0.5143527,-0.59528875,-0.6497395,-0.6762248,-0.68507385,-0.6821139,-0.6762248,-0.6629976,-0.65562856,-0.65562856,-0.6703666,-0.68359387,-0.68507385,-0.6806648,-0.66888666,-0.6424012,-0.61002684,-0.54820704,-0.4216385,-0.21265382,0.074307084,0.36570776,0.5849905,0.67326486,0.5864397,0.30095887,-0.078746974,-0.4628619,-0.74541366,-0.83960783,-0.77482814,-0.64681035,-0.540838,-0.49668545,-0.49375635,-0.51583266,-0.534949,-0.53201985,-0.52024174,