-0.31054294,-0.3204761,-0.32441884,-0.31650287,-0.30064029,-0.28875095,-0.28578633,-0.28975958,-0.28975958,-0.2818436,-0.272919,-0.27093226,-0.272919,-0.27490556,-0.272919,-0.26796764,-0.26796764,-0.26995426,-0.26796764,-0.26399434,-0.26102966,-0.26500297,-0.273897,-0.27588362,-0.2719103,-0.26399434,-0.2600516,-0.2600516,-0.26102966,-0.25705636,-0.25607836,-0.26102966,-0.26796764,-0.26995426,-0.26598096,-0.26102966,-0.25904304,-0.26102966,-0.2600516,-0.25607836,-0.25607836,-0.26200765,-0.273897,-0.27588362,-0.26796764,-0.26200765,-0.258065,-0.25506973,-0.25210506,-0.24418902,-0.23923767,-0.24122435,-0.2471537,-0.24816233,-0.24516708,-0.24516708,-0.25011843,-0.25705636,-0.25904304,-0.25311363,-0.251127,-0.25409168,-0.25904304,-0.258065,-0.25011843,-0.24122435,-0.24021572,-0.24418902,-0.24321097,-0.23627305,-0.23132169,-0.22933501,-0.2332778,-0.23031306,-0.2164371,-0.2015832,-0.19268906,-0.18969387,-0.19070244,-0.19070244,-0.18969387,-0.18177783,-0.1599859,-0.12731326,-0.09659666,-0.088680625,-0.106499374,-0.12532657,-0.124318,-0.10353464,-0.08470744,-0.09363204,-0.1332426,-0.18376446,-0.22536176,-0.25011843,-0.258065,-0.25607836,-0.251127,-0.24418902,-0.2422024,-0.24418902,-0.2461757,-0.24516708,-0.2422024,-0.24516708,-0.25607836,-0.26399434,-0.26598096,-0.258065,-0.24914032,-0.24418902,-0.24418902,-0.24418902,-0.2422024,-0.23923767,-0.2045784,-0.0827207,0.15402615,0.45715737,0.7394748,0.87022626,0.78700125,0.49279475,0.05298233,-0.3967327,-0.7503859,-0.9197702,-0.88312423,-0.7107446,-0.51064384,-0.36207342,-0.28480822,-0.25607836,-0.24516708,-0.23229975,-0.21943241,-0.20852107,-0.19663185,-0.1867292,-0.18278646,-0.18575114,-0.19168049,-0.18969387,-0.17979127,-0.16988856,-0.16692382,-0.17089713,-0.16594583,-0.1550346,-0.14216721,-0.13522929,-0.1332426,-0.13422072,-0.1332426,-0.13125598,-0.13125598,-0.12630469,-0.11542398,-0.09858334,-0.088680625,-0.08369881,-0.08073413,-0.0728181,-0.057964087,-0.044088185,-0.037150145,-0.03418553,-0.028225541,-0.01535821,-0.0005043149,0.016336322,0.03516364,0.061906934,0.09757483,0.1322341,0.16096401,0.18672931,0.2144506,0.24715388,0.28083503,0.3135078,0.34621096,0.38184822,0.4145515,0.43930817,0.44921076,0.44921076,0.45021927,0.45220602,0.44031668,0.40862215,0.3581003,0.29963183,0.23920727,0.17483997,0.1054908,0.03415501,-0.026269555,-0.07480472,-0.120375276,-0.1689105,-0.21842378,-0.25607836,-0.27689224,-0.28975958,-0.30363554,-0.3204761,-0.3343215,-0.3343215,-0.32738358,-0.32441884,-0.32640553,-0.33236545,-0.33334345,-0.33334345,-0.3402815,-0.3491755,-0.35314882,-0.34523278,-0.3343215,-0.32640553,-0.32839215,-0.32839215,-0.31946754,-0.3066002,-0.29568893,-0.28875095,-0.2867949,-0.28379965,-0.2818436,-0.2828216,-0.28578633,-0.2828216,-0.2719103,-0.2600516,-0.25210506,-0.2471537,-0.24021572,-0.23229975,-0.22734839,-0.22637033,-0.23031306,-0.23031306,-0.22239709,-0.21744573,-0.21842378,-0.22637033,-0.23725104,-0.23725104,-0.23031306,-0.22438371,-0.22239709,-0.22239709,-0.22438371,-0.22637033,-0.2332778,-0.24321097,-0.25011843,-0.25210506,-0.24816233,-0.24321097,-0.23627305,-0.22637033,-0.21545911,-0.21249437,-0.22239709,-0.23627305,-0.24516708,-0.2422024,-0.23725104,-0.23627305,-0.24122435,-0.24321097,-0.23526442,-0.22832644,-0.22637033,-0.23229975,-0.23825967,-0.23725104,-0.23229975,-0.23132169,-0.23229975,-0.23031306,-0.22832644,-0.22637033,-0.22933501,-0.23725104,-0.23627305,-0.22832644,-0.2204104,-0.2204104,-0.22933501,-0.23526442,-0.23627305,-0.23428637,-0.23526442,-0.23923767,-0.24122435,-0.23725104,-0.23132169,-0.22536176,-0.22239709,-0.21744573,-0.21448112,-0.21545911,-0.22141898,-0.23031306,-0.23031306,-0.22438371,-0.21744573,-0.21448112,-0.21545911,-0.2114858,-0.19366717,-0.1639592,-0.13125598,-0.11047262,-0.106499374,-0.11441535,-0.12233138,-0.12333995,-0.11542398,-0.10747737,-0.113437355,-0.14610994,-0.19663185,-0.24816233,-0.28083497,-0.28480822,-0.2719103,-0.25904304,-0.25904304,-0.26500297,-0.27093226,-0.273897,-0.272919,-0.26995426,-0.26598096,-0.26301628,-0.26102966,-0.26301628,-0.26796764,-0.26500297,-0.25607836,-0.2461757,-0.24122435,-0.2422024,-0.23725104,-0.20259178,-0.09262341,0.11539352,0.3848436,0.64732504,0.79393935,0.74836874,0.49875462,0.08767223,-0.35217077,-0.7107446,-0.9019515,-0.9009429,-0.7602885,-0.5681037,-0.40269268,-0.30064029,-0.25506973,-0.24418902,-0.23725104,-0.22239709,-0.20952976,-0.20259178,-0.2015832,-0.1956538,-0.18177783,-0.16594583,-0.15702122,-0.1560126,-0.15702122,-0.15405649,-0.15206993,-0.15405649,-0.1599859,-0.16295052,-0.15702122,-0.14910519,-0.14216721,-0.1381939,-0.1332426,-0.12630469,-0.12135327,-0.120375276,-0.12135327,-0.11441535,-0.100539446,-0.087672055,-0.08568543,-0.08470744,-0.07874739,-0.060928762,-0.038158774,-0.023274243,-0.012393534,-0.0014823079,0.017314434,0.043079615,0.06487155,0.08467698,0.10845554,0.14213681,0.17979133,0.2144506,0.2441585,0.27389705,0.3055917,0.33630824,0.36204302,0.3848436,0.40960014,0.4333787,0.44823277,0.44725466,0.43237007,0.41256487,0.3878082,0.35412693,0.30262697,0.23425591,0.16689348,0.10451281,0.044057727,-0.020309508,-0.087672055,-0.14910519,-0.1996271,-0.23923767,-0.272919,-0.3046136,-0.3293702,-0.34226805,-0.3491755,-0.3600868,-0.36800277,-0.37099802,-0.36800277,-0.36207342,-0.36305147,-0.3690114,-0.3699894,-0.36601615,-0.3591087,-0.35810012,-0.36305147,-0.36305147,-0.3600868,-0.3561135,-0.35314882,-0.35314882,-0.34523278,-0.33037883,-0.31748092,-0.3135382,-0.3184895,-0.32145423,-0.3184895,-0.31451625,-0.31451625,-0.31552482,-0.3115515,-0.30164886,-0.29272425,-0.28875095,-0.28975958,-0.28875095,-0.2828216,-0.27588362,-0.27588362,-0.2818436,-0.28379965,-0.2788483,-0.27490556,-0.2778703,-0.28875095,-0.29471093,-0.28975958,-0.27985692,-0.27093226,-0.27490556,-0.2778703,-0.27689224,-0.26796764,-0.26102966,-0.26301628,-0.266959,-0.27093226,-0.273897,-0.2788483,-0.28578633,-0.28875095,-0.28480822,-0.28083497,-0.2818436,-0.28578633,-0.2828216,-0.272919,-0.26399434,-0.26301628,-0.27093226,-0.27985692,-0.27985692,-0.27689224,-0.27588362,-0.2788483,-0.2818436,-0.2778703,-0.272919,-0.2689457,-0.26796764,-0.266959,-0.26399434,-0.2600516,-0.266959,-0.27588362,-0.28083497,-0.27689224,-0.26995426,-0.26796764,-0.272919,-0.27689224,-0.27588362,-0.2689457,-0.26796764,-0.272919,-0.27689224,-0.27490556,-0.2689457,-0.26598096,-0.26796764,-0.26995426,-0.26796764,-0.266959,-0.2689457,-0.27490556,-0.2778703,-0.272919,-0.26500297,-0.25904304,-0.25311363,-0.24816233,-0.23725104,-0.2204104,-0.19861847,-0.17386186,-0.1510613,-0.14018059,-0.14711857,-0.16197252,-0.1689105,-0.15900785,-0.13522929,-0.12233138,-0.14711857,-0.19861847,-0.25506973,-0.2917462,-0.3026269,-0.29568893,-0.28875095,-0.28578633,-0.2867949,-0.28975958,-0.29471093,-0.30164886,-0.3026269,-0.29966223,-0.29669756,-0.30064029,-0.30559158,-0.30559158,-0.2976756,-0.28875095,-0.28578633,-0.29073763,-0.2917462,-0.28578633,-0.258065,-0.17285323,0.017314434,0.30360508,0.6205816,0.84742594,0.87221324,0.6721122,0.27884853,-0.18575114,-0.5988202,-0.8623103,-0.9247215,-0.8147531,-0.6235769,-0.4512279,-0.3432461,-0.30064029,-0.2828216,-0.266959,-0.24914032,-0.23725104,-0.23428637,-0.23825967,-0.23428637,-0.22536176,-0.21943241,-0.21943241,-0.21943241,-0.21448112,-0.21050781,-0.20754308,-0.2114858,-0.2164371,-0.21249437,-0.20555651,-0.20356977,-0.2045784,-0.20259178,-0.19366717,-0.18177783,-0.17187524,-0.17187524,-0.17187524,-0.16096395,-0.14610994,-0.13522929,-0.13027799,-0.124318,-0.113437355,-0.09956133,-0.08568543,-0.076791406,-0.0678668,-0.051026165,-0.032198846,-0.020309508,-0.008420229,0.010406971,0.04109311,0.07773888,0.11637151,0.14809668,0.18275607,0.22536182,0.26793718,0.3055917,0.33630824,0.36402965,0.39275956,0.42048085,0.43732142,0.43732142,0.42741883,0.40761352,0.38383496,0.3511623,0.30953443,0.26298583,0.20852125,0.14015007,0.061906934,-0.018322945,-0.087672055,-0.1381939,-0.17881316,-0.2164371,-0.25607836,-0.29073763,-0.31650287,-0.33533013,-0.3491755,-0.3600868,-0.36305147,-0.3610648,-0.3591087,-0.3650381,-0.37692744,-0.38683003,-0.38484347,-0.37197608,-0.35712212,-0.3491755,-0.34621084,-0.35018408,-0.35712212,-0.36702472,-0.37692744,-0.38090068,-0.37197608,-0.35810012,-0.34523278,-0.3402815,-0.33927286,-0.33731675,-0.33731675,-0.3402815,-0.3442242,-0.3442242,-0.33236545,-0.31650287,-0.3026269,-0.29568893,-0.29073763,-0.28777295,-0.28777295,-0.28777295,-0.28777295,-0.28083497,-0.26796764,-0.25705636,-0.258065,-0.26301628,-0.26500297,-0.26598096,-0.26200765,-0.26500297,-0.272919,-0.27588362,-0.27490556,-0.26995426,-0.266959,-0.2689457,-0.266959,-0.26102966,-0.25705636,-0.26102966,-0.272919,-0.28379965,-0.28480822,-0.2778703,-0.26995426,-0.26399434,-0.26500297,-0.26301628,-0.26102966,-0.26301628,-0.26598096,-0.2689457,-0.26500297,-0.258065,-0.25409168,-0.25311363,-0.25506973,-0.25705636,-0.2600516,-0.266959,-0.2719103,-0.2719103,-0.26102966,-0.25210506,-0.251127,-0.2600516,-0.2689457,-0.2689457,-0.26399434,-0.26200765,-0.266959,-0.27093226,-0.26796764,-0.25904304,-0.25607836,-0.25607836,-0.25607836,-0.251127,-0.24122435,-0.23526442,-0.23725104,-0.24021572,-0.23725104,-0.23725104,-0.24321097,-0.25506973,-0.26301628,-0.26399434,-0.25904304,-0.25607836,-0.25607836,-0.251127,-0.23923767,-0.22536176,-0.2164371,-0.21943241,-0.22239709,-0.2114858,-0.18575114,-0.15702122,-0.13917202,-0.13422072,-0.1381939,-0.13620728,-0.12630469,-0.11441535,-0.11145067,-0.119366646,-0.15008318,-0.19168049,-0.23229975,-0.26102966,-0.26796764,-0.26200765,-0.258065,-0.26301628,-0.2719103,-0.27689224,-0.27689224,-0.27689224,-0.27985692,-0.28083497,-0.2788483,-0.273897,-0.2719103,-0.272919,-0.26995426,-0.26200765,-0.25607836,-0.258065,-0.26796764,-0.27490556,-0.25311363,-0.16197252,0.03910637,0.326375,0.64139557,0.86625314,0.8929963,0.6899309,0.28279126,-0.19663185,-0.6077448,-0.8533857,-0.8950136,-0.77612054,-0.5859529,-0.4115867,-0.29868418,-0.24816233,-0.23825967,-0.24321097,-0.24122435,-0.23031306,-0.22536176,-0.22734839,-0.23031306,-0.22337514,-0.20754308,-0.19168049,-0.18177783,-0.17584842,-0.17089713,-0.16493726,-0.16295052,-0.16594583,-0.17089713,-0.17285323,-0.17089713,-0.16790193,-0.16096395,-0.1510613,-0.13721591,-0.124318,-0.120375276,-0.120375276,-0.120375276,-0.113437355,-0.10353464,-0.09858334,-0.094610035,-0.086694,-0.07379609,-0.055977464,-0.042101443,-0.037150145,-0.027247548,-0.007442236,0.017314434,0.044057727,0.068844914,0.09457958,0.12630475,0.16392875,0.19663191,0.22236657,0.2530831,0.29171574,0.32937038,0.36204302,0.38679957,0.40761352,0.43139207,0.45220602,0.4581355,0.44921076,0.43237007,0.41256487,0.38285685,0.33529973,0.27191043,0.19861853,0.13024747,0.06982303,0.0074118376,-0.05894208,-0.119366646,-0.16493726,-0.19861847,-0.22832644,-0.25904304,-0.28975958,-0.31748092,-0.33630818,-0.35116214,-0.36406004,-0.37295413,-0.37099802,-0.36406004,-0.3610648,-0.36207342,-0.3610648,-0.35513544,-0.3472194,-0.34523278,-0.35217077,-0.3600868,-0.3600868,-0.35314882,-0.34523278,-0.3432461,-0.34125948,-0.33533013,-0.3293702,-0.32441884,-0.32441884,-0.32344085,-0.31650287,-0.3066002,-0.30164886,-0.3026269,-0.3026269,-0.29669756,-0.28578633,-0.27689224,-0.273897,-0.27588362,-0.27588362,-0.272919,-0.2719103,-0.272919,-0.27490556,-0.266959,-0.258065,-0.24816233,-0.24321097,-0.24321097,-0.2471537,-0.25311363,-0.26399434,-0.27689224,-0.28083497,-0.272919,-0.258065,-0.25011843,-0.25210506,-0.2600516,-0.26399434,-0.26399434,-0.26102966,-0.26102966,-0.2600516,-0.25210506,-0.24321097,-0.24321097,-0.251127,-0.26200765,-0.26796764,-0.26500297,-0.26200765,-0.26200765,-0.26598096,-0.26995426,-0.26995426,-0.2719103,-0.27490556,-0.27588362,-0.2719103,-0.266959,-0.26399434,-0.26598096,-0.27093226,-0.272919,-0.2689457,-0.26301628,-0.25506973,-0.24516708,-0.23627305,-0.2332778,-0.24021572,-0.25311363,-0.25607836,-0.24516708,-0.22933501,-0.21744573,-0.21943241,-0.22734839,-0.23428637,-0.23428637,-0.23725104,-0.2461757,-0.25210506,-0.25011843,-0.23923767,-0.22734839,-0.21943241,-0.21545911,-0.20852107,-0.2006051,-0.19764048,-0.2006051,-0.20259178,-0.2006051,-0.19070244,-0.18177783,-0.16493726,-0.14018059,-0.11441535,-0.09558803,-0.09659666,-0.10747737,-0.10946405,-0.09757471,-0.08470744,-0.08965874,-0.120375276,-0.1639592,-0.1996271,-0.22239709,-0.23627305,-0.24418902,-0.2471537,-0.2422024,-0.2332778,-0.22933501,-0.22832644,-0.23229975,-0.23229975,-0.22832644,-0.22734839,-0.23428637,-0.2422024,-0.23923767,-0.23031306,-0.22239709,-0.22239709,-0.22734839,-0.23229975,-0.22832644,-0.21249437,-0.15900785,-0.018322945,0.21246386,0.48885202,0.72162557,0.7998992,0.6840013,0.38582158,-0.028225541,-0.4413252,-0.75631523,-0.8969696,-0.850421,-0.67807204,-0.4809358,-0.32839215,-0.24321097,-0.2114858,-0.20555651,-0.20259178,-0.19366717,-0.18079984,-0.16692382,-0.15702122,-0.1550346,-0.15900785,-0.15900785,-0.15008318,-0.13721591,-0.1292693,-0.1292693,-0.1332426,-0.13027799,-0.12333995,-0.11542398,-0.112428665,-0.11047262,-0.10552132,-0.09757471,-0.09558803,-0.09757471,-0.094610035,-0.086694,-0.07183999,-0.05995077,-0.060928762,-0.06490207,-0.061906815,-0.05399078,-0.044088185,-0.033207417,-0.024282813,-0.008420229,0.011384964,0.031190395,0.048030972,0.06685829,0.09063685,0.12132287,0.15500414,0.18572068,0.21842384,0.25406122,0.29171574,0.32441902,0.35015368,0.37393236,0.3986889,0.4244542,0.4442594,0.460122,0.46507335,0.46803808,0.4690466,0.45614874,0.42842734,0.38679957,0.3333131,0.27191043,0.19861853,0.119366765,0.04604435,-0.012393534,-0.05995077,-0.10451263,-0.15304792,-0.2006051,-0.24021572,-0.26500297,-0.28083497,-0.29568893,-0.3066002,-0.31451625,-0.3204761,-0.32441884,-0.33037883,-0.33236545,-0.33135688,-0.32441884,-0.32243228,-0.32441884,-0.32344085,-0.31650287,-0.31054294,-0.3095649,-0.3135382,-0.31748092,-0.3135382,-0.3026269,-0.29471093,-0.2917462,-0.29073763,-0.28578633,-0.27490556,-0.26796764,-0.26598096,-0.26500297,-0.25904304,-0.24914032,-0.23923767,-0.23428637,-0.23825967,-0.23627305,-0.23132169,-0.22438371,-0.21842378,-0.21545911,-0.20852107,-0.2015832,-0.1996271,-0.20555651,-0.21249437,-0.21347249,-0.20852107,-0.2065345,-0.21050781,-0.21943241,-0.22239709,-0.21943241,-0.21842378,-0.21842378,-0.21943241,-0.2164371,-0.20852107,-0.2065345,-0.21249437,-0.2204104,-0.22141898,-0.21744573,-0.20852107,-0.2065345,-0.20555651,-0.2045784,-0.2045784,-0.20555651,-0.20952976,-0.20952976,-0.2045784,-0.1996271,-0.2006051,-0.20952976,-0.21744573,-0.21744573,-0.21050781,-0.20259178,-0.19663185,-0.19168049,-0.18575114,-0.18278646,-0.1867292,-0.1956538,-0.2015832,-0.1996271,-0.19268906,-0.19070244,-0.19168049,-0.19464517,-0.19168049,-0.18474257,-0.18575114,-0.19366717,-0.1996271,-0.19764048,-0.18969387,-0.18474257,-0.18871588,-0.20259178,-0.21249437,-0.21347249,-0.20754308,-0.19861847,-0.18871588,-0.17483985,-0.16493726,-0.16295052,-0.16692382,-0.16790193,-0.14910519,-0.11441535,-0.0827207,-0.068844795,-0.07975602,-0.094610035,-0.09858334,-0.09063673,-0.075782776,-0.07183999,-0.08965874,-0.12532657,-0.17187524,-0.21545911,-0.24516708,-0.24914032,-0.23725104,-0.22637033,-0.22438371,-0.22832644,-0.23428637,-0.23526442,-0.23428637,-0.23428637,-0.2332778,-0.22832644,-0.22337514,-0.22337514,-0.22637033,-0.23031306,-0.22734839,-0.2204104,-0.2164371,-0.21842378,-0.21448112,-0.17187524,-0.038158774,0.19861853,0.48983002,0.75827134,0.8890536,0.818696,0.5383651,0.10151756,-0.35513544,-0.70875806,-0.8692483,-0.8306157,-0.66618276,-0.4759845,-0.33236545,-0.25210506,-0.22438371,-0.2204104,-0.21744573,-0.20754308,-0.19168049,-0.18079984,-0.17881316,-0.17881316,-0.17780453,-0.16790193,-0.15702122,-0.15206993,-0.14809662,-0.14216721,-0.13522929,-0.13125598,-0.13125598,-0.1332426,-0.13125598,-0.12829125,-0.12532657,-0.124318,-0.12333995,-0.11640197,-0.10747737,-0.10353464,-0.10552132,-0.10252607,-0.087672055,-0.06588012,-0.04806149,-0.04112345,-0.038158774,-0.02923417,-0.011415482,0.0014823675,0.00939846,0.018323064,0.03415501,0.058942318,0.08269024,0.09855282,0.11738014,0.14412344,0.17979133,0.21542871,0.24715388,0.27389705,0.30757844,0.34816694,0.3878082,0.41852474,0.44227278,0.4581355,0.4710027,0.47497606,0.46409535,0.44227278,0.4135735,0.37689698,0.32044566,0.25210512,0.1787827,0.10845554,0.049039602,-0.008420229,-0.06588012,-0.120375276,-0.16692382,-0.2065345,-0.2422024,-0.27490556,-0.29966223,-0.3115515,-0.31650287,-0.32243228,-0.33236545,-0.33927286,-0.3402815,-0.33630818,-0.3343215,-0.34125948,-0.3491755,-0.35217077,-0.3472194,-0.3402815,-0.33927286,-0.33927286,-0.34125948,-0.33927286,-0.3343215,-0.32839215,-0.32344085,-0.31451625,-0.30858684,-0.30858684,-0.3115515,-0.3135382,-0.30559158,-0.2917462,-0.28083497,-0.2778703,-0.2778703,-0.27588362,-0.2689457,-0.26301628,-0.26500297,-0.26995426,-0.26796764,-0.25904304,-0.25210506,-0.25409168,-0.25705636,-0.25607836,-0.2471537,-0.23725104,-0.23229975,-0.2332778,-0.2332778,-0.22933501,-0.23031306,-0.23725104,-0.24021572,-0.23229975,-0.2164371,-0.2015832,-0.2006051,-0.20952976,-0.21943241,-0.22734839,-0.23428637,-0.24321097,-0.251127,-0.251127,-0.2461757,-0.24418902,-0.2471537,-0.24816233,-0.24418902,-0.23725104,-0.23428637,-0.23923767,-0.251127,-0.25705636,-0.25409168,-0.24914032,-0.24418902,-0.2422024,-0.23627305,-0.23031306,-0.22637033,-0.22637033,-0.23031306,-0.22933501,-0.22239709,-0.21545911,-0.21347249,-0.21842378,-0.22438371,-0.22832644,-0.23229975,-0.23526442,-0.23825967,-0.23627305,-0.22734839,-0.2204104,-0.22141898,-0.22832644,-0.22933501,-0.22536176,-0.21943241,-0.21448112,-0.21545911,-0.21744573,-0.21448112,-0.20952976,-0.20754308,-0.20852107,-0.2045784,-0.19861847,-0.19464517,-0.19070244,-0.18871588,-0.18474257,-0.17584842,-0.17089713,-0.17285323,-0.17483985,-0.1599859,-0.12731326,-0.094610035,-0.08073413,-0.0916453,-0.10747737,-0.10946405,-0.09757471,-0.081742704,-0.07480472,-0.09063673,-0.12630469,-0.17386186,-0.21842378,-0.25011843,-0.25607836,-0.2461757,-0.23428637,-0.2332778,-0.23825967,-0.24122435,-0.24021572,-0.24321097,-0.2471537,-0.25311363,-0.25311363,-0.24516708,-0.23725104,-0.23526442,-0.23627305,-0.23132169,-0.22141898,-0.21842378,-0.22637033,-0.2422024,-0.22438371,-0.119366646,0.10845554,0.42246747,0.7394748,0.9356023,0.92074835,0.67605495,0.23920727,-0.2461757,-0.6453688,-0.85833704,-0.86032367,-0.70778,-0.51064384,-0.35513544,-0.26598096,-0.23627305,-0.23526442,-0.2332778,-0.2164371,-0.1956538,-0.18575114,-0.18474257,-0.1867292,-0.18376446,-0.17285323,-0.16692382,-0.16988856,-0.17584842,-0.17386186,-0.16197252,-0.14711857,-0.14018059,-0.14711857,-0.15304792,-0.15405649,-0.1510613,-0.15206993,-0.15008318,-0.14115858,-0.12731326,-0.11145067,-0.10747737,-0.10848594,-0.10552132,-0.09262341,-0.076791406,-0.068844795,-0.069853365,-0.0678668,-0.060928762,-0.049039483,-0.038158774,-0.025260866,-0.006433606,0.019301057,0.04210162,0.060898304,0.08269024,0.1134069,0.15500414,0.19761002,0.23327792,0.2600212,0.29272425,0.32937038,0.3610649,0.3848436,0.40364015,0.41852474,0.4412948,0.4581355,0.46409535,0.45220602,0.4244542,0.38184822,0.32441902,0.25803447,0.18572068,0.11637151,0.054968953,-0.005455613,-0.06490207,-0.119366646,-0.16493726,-0.2006051,-0.23627305,-0.27093226,-0.29868418,-0.31252956,-0.31552482,-0.31451625,-0.31946754,-0.33334345,-0.34226805,-0.3402815,-0.33927286,-0.3402815,-0.3472194,-0.3491755,-0.34523278,-0.33630818,-0.33135688,-0.33135688,-0.33135688,-0.32839215,-0.32542747,-0.32640553,-0.3293702,-0.32542747,-0.31054294,-0.2976756,-0.29073763,-0.28777295,-0.28578633,-0.28083497,-0.273897,-0.273897,-0.2818436,-0.2818436,-0.27588362,-0.266959,-0.2600516,-0.25705636,-0.25210506,-0.24816233,-0.2461757,-0.24816233,-0.25409168,-0.25607836,-0.24816233,-0.24122435,-0.23923767,-0.23825967,-0.23627305,-0.22933501,-0.22536176,-0.22536176,-0.23031306,-0.23031306,-0.22536176,-0.22239709,-0.22239709,-0.22832644,-0.23428637,-0.23526442,-0.24021572,-0.2461757,-0.25210506,-0.251127,-0.24321097,-0.23923767,-0.23825967,-0.24021572,-0.23725104,-0.22832644,-0.21943241,-0.2204104,-0.22734839,-0.23132169,-0.23132169,-0.22933501,-0.22734839,-0.22438371,-0.21842378,-0.2164371,-0.22141898,-0.23526442,-0.24914032,-0.24914032,-0.23825967,-0.22536176,-0.22141898,-0.22438371,-0.22438371,-0.21744573,-0.2114858,-0.2114858,-0.22239709,-0.23031306,-0.22734839,-0.21943241,-0.21050781,-0.2015832,-0.19764048,-0.19366717,-0.19464517,-0.20356977,-0.21545911,-0.22239709,-0.21943241,-0.2164371,-0.2114858,-0.20852107,-0.2015832,-0.19070244,-0.18376446,-0.18474257,-0.19168049,-0.19366717,-0.18079984,-0.15008318,-0.11738008,-0.0916453,-0.0827207,-0.08568543,-0.0916453,-0.094610035,-0.09363204,-0.09063673,-0.100539446,-0.13125598,-0.17386186,-0.21943241,-0.24914032,-0.25904304,-0.25506973,-0.25311363,-0.25210506,-0.2471537,-0.23923767,-0.2332778,-0.23725104,-0.24914032,-0.25705636,-0.25506973,-0.2461757,-0.23923767,-0.23923767,-0.23725104,-0.23031306,-0.2204104,-0.21249437,-0.20754308,-0.1996271,-0.16197252,-0.05499935,0.13620734,0.3779055,0.617617,0.75631535,0.72162557,0.49875462,0.11539352,-0.3095649,-0.6651741,-0.86726165,-0.8801595,-0.7503859,-0.56018764,-0.38979477,-0.2818436,-0.23627305,-0.22438371,-0.21744573,-0.19764048,-0.17483985,-0.16197252,-0.1599859,-0.16197252,-0.16295052,-0.15304792,-0.14513189,-0.1332426,-0.119366646,-0.10848594,-0.10451263,-0.10848594,-0.11838865,-0.124318,-0.12233138,-0.119366646,-0.11640197,-0.11441535,-0.10747737,-0.09558803,-0.086694,-0.08470744,-0.088680625,-0.088680625,-0.08369881,-0.07480472,-0.068844795,-0.0678668,-0.061906815,-0.046074748,-0.032198846,-0.019331515,-0.002490878,0.017314434,0.044057727,0.07278764,0.09161496,0.10252619,0.12034488,0.14611006,0.18177795,0.22041047,0.25604784,0.29370236,0.331357,0.36699426,0.3957243,0.41653812,0.4343568,0.45021927,0.460122,0.4621086,0.45220602,0.4333787,0.40960014,0.37295425,0.31748104,0.25210512,0.18474269,0.11738014,0.052004218,-0.014380217,-0.07975602,-0.13226455,-0.16988856,-0.2015832,-0.23725104,-0.27490556,-0.30363554,-0.31946754,-0.32839215,-0.34125948,-0.3561135,-0.36601615,-0.36601615,-0.35712212,-0.3541574,-0.3561135,-0.35513544,-0.3472194,-0.33927286,-0.33630818,-0.33927286,-0.34125948,-0.33731675,-0.33037883,-0.32441884,-0.32542747,-0.3293702,-0.33037883,-0.32542747,-0.31946754,-0.3115515,-0.29868418,-0.28480822,-0.27588362,-0.273897,-0.27689224,-0.27689224,-0.2719103,-0.266959,-0.26796764,-0.2719103,-0.266959,-0.25409168,-0.24021572,-0.23825967,-0.24516708,-0.25210506,-0.25210506,-0.2461757,-0.24321097,-0.24418902,-0.24321097,-0.24021572,-0.23923767,-0.24321097,-0.251127,-0.25607836,-0.25210506,-0.24516708,-0.24122435,-0.24122435,-0.24021572,-0.23526442,-0.23132169,-0.23725104,-0.24816233,-0.25705636,-0.25904304,-0.25607836,-0.25311363,-0.25506973,-0.25607836,-0.251127,-0.2471537,-0.24816233,-0.25210506,-0.25607836,-0.25409168,-0.2471537,-0.2422024,-0.24122435,-0.23825967,-0.23132169,-0.22239709,-0.2204104,-0.22438371,-0.23031306,-0.23627305,-0.23825967,-0.2422024,-0.2471537,-0.2461757,-0.23923767,-0.2332778,-0.23725104,-0.24418902,-0.24516708,-0.23825967,-0.22933501,-0.22536176,-0.23132169,-0.2332778,-0.22536176,-0.21448112,-0.20952976,-0.21448112,-0.22337514,-0.22536176,-0.22337514,-0.2204104,-0.21744573,-0.21347249,-0.20754308,-0.2045784,-0.20754308,-0.2164371,-0.22536176,-0.22637033,-0.21545911,-0.18969387,-0.15702122,-0.12233138,-0.10353464,-0.106499374,-0.12233138,-0.1332426,-0.12630469,-0.10747737,-0.09063673,-0.10353464,-0.1441539,-0.19070244,-0.23031306,-0.25409168,-0.26301628,-0.26399434,-0.25904304,-0.25011843,-0.2422024,-0.24021572,-0.24914032,-0.25705636,-0.2600516,-0.26102966,-0.26200765,-0.26399434,-0.26200765,-0.25607836,-0.251127,-0.25011843,-0.25705636,-0.26399434,-0.26598096,-0.25210506,-0.18474257,-0.018322945,0.2510966,0.5710685,0.8305851,0.9128016,0.77709866,0.43237007,-0.025260866,-0.46210855,-0.7721778,-0.8821156,-0.7998991,-0.61168754,-0.4294359,-0.31252956,-0.26500297,-0.25409168,-0.2461757,-0.2332778,-0.22637033,-0.22734839,-0.22637033,-0.21842378,-0.20555651,-0.19764048,-0.19268906,-0.18773776,-0.17682654,-0.16692382,-0.16790193,-0.17584842,-0.18177783,-0.18079984,-0.17285323,-0.16594583,-0.16295052,-0.15702122,-0.1441539,-0.13226455,-0.12829125,-0.13027799,-0.1332426,-0.12829125,-0.11838865,-0.11047262,-0.10451263,-0.09659666,-0.087672055,-0.07975602,-0.0777694,-0.076791406,-0.068844795,-0.049039483,-0.024282813,-0.0034689307,0.012363076,0.036141634,0.07083154,0.10946417,0.14611006,0.17383134,0.19861853,0.23226929,0.27288854,0.31152117,0.3422376,0.3680029,0.39178157,0.4145515,0.43041408,0.43930817,0.44031668,0.43732142,0.4234761,0.39474618,0.34520233,0.28279126,0.21940196,0.15699077,0.093601584,0.02721703,-0.04011488,-0.101548016,-0.1560126,-0.20356977,-0.24321097,-0.273897,-0.29669756,-0.3135382,-0.32738358,-0.3402815,-0.34621084,-0.3442242,-0.3402815,-0.33927286,-0.3432461,-0.3472194,-0.35018408,-0.35314882,-0.35513544,-0.35513544,-0.3491755,-0.33731675,-0.33135688,-0.33334345,-0.3382948,-0.33731675,-0.3293702,-0.3184895,-0.31451625,-0.31650287,-0.31650287,-0.3115515,-0.30559158,-0.3026269,-0.3026269,-0.29966223,-0.28975958,-0.27985692,-0.27689224,-0.28083497,-0.2828216,-0.2778703,-0.26796764,-0.25904304,-0.25607836,-0.25705636,-0.25904304,-0.25904304,-0.26301628,-0.26301628,-0.25904304,-0.25011843,-0.23526442,-0.22832644,-0.23031306,-0.23526442,-0.23825967,-0.23825967,-0.23825967,-0.23825967,-0.23825967,-0.23428637,-0.23031306,-0.23132169,-0.23923767,-0.2471537,-0.25011843,-0.2471537,-0.2471537,-0.2471537,-0.24516708,-0.24418902,-0.24321097,-0.2461757,-0.25011843,-0.25011843,-0.24321097,-0.23229975,-0.23031306,-0.23229975,-0.23526442,-0.23627305,-0.23825967,-0.24321097,-0.24914032,-0.25210506,-0.24516708,-0.24021572,-0.23923767,-0.24122435,-0.24021572,-0.23031306,-0.21943241,-0.21744573,-0.22438371,-0.23031306,-0.23428637,-0.23428637,-0.23725104,-0.24122435,-0.23923767,-0.22933501,-0.2164371,-0.21347249,-0.21545911,-0.21744573,-0.21842378,-0.21545911,-0.21744573,-0.22438371,-0.22933501,-0.22832644,-0.22536176,-0.22438371,-0.22637033,-0.22536176,-0.2164371,-0.2065345,-0.1996271,-0.2015832,-0.2045784,-0.20259178,-0.19663185,-0.18871588,-0.18474257,-0.17483985,-0.1550346,-0.12333995,-0.100539446,-0.09659666,-0.10451263,-0.112428665,-0.10747737,-0.0916453,-0.07975602,-0.08568543,-0.11640197,-0.1599859,-0.20852107,-0.2471537,-0.26500297,-0.26102966,-0.24914032,-0.24321097,-0.2422024,-0.24122435,-0.23825967,-0.23627305,-0.24122435,-0.25904304,-0.273897,-0.27985692,-0.27689224,-0.2689457,-0.26301628,-0.25506973,-0.2461757,-0.24516708,-0.2471537,-0.25311363,-0.24418902,-0.17881316,-0.01636684,0.24715388,0.5601573,0.83159375,0.94153154,0.83159375,0.4997326,0.031190395,-0.4254626,-0.7503859,-0.8732216,-0.8058591,-0.6334795,-0.45419252,-0.33236545,-0.27588362,-0.266959,-0.2719103,-0.2689457,-0.251127,-0.23132169,-0.22141898,-0.22637033,-0.23132169,-0.22832644,-0.21744573,-0.20356977,-0.19366717,-0.18474257,-0.17682654,-0.17187524,-0.17682654,-0.18773776,-0.19464517,-0.18871588,-0.17285323,-0.1639592,-0.16096395,-0.15799922,-0.14910519,-0.13620728,-0.1292693,-0.13226455,-0.13721591,-0.13721591,-0.13027799,-0.12135327,-0.11738008,-0.10848594,-0.0916453,-0.07379609,-0.05499935,-0.04011488,-0.024282813,-0.002490878,0.019301057,0.03910637,0.05992031,0.08865023,0.12529612,0.16887999,0.20751262,0.23920727,0.2699238,0.30458307,0.33927298,0.36500764,0.38087022,0.3957243,0.4145515,0.43732142,0.45220602,0.45220602,0.43536544,0.40663552,0.3610649,0.29963183,0.23031318,0.15897739,0.09757483,0.04210162,-0.019331515,-0.087672055,-0.15008318,-0.1996271,-0.23825967,-0.272919,-0.3066002,-0.33533013,-0.35314882,-0.3591087,-0.36305147,-0.36800277,-0.3739627,-0.3739627,-0.37295413,-0.37692744,-0.38090068,-0.38187873,-0.37494075,-0.36800277,-0.36601615,-0.37197608,-0.3798921,-0.37692744,-0.3699894,-0.36305147,-0.3610648,-0.3610648,-0.35513544,-0.35018408,-0.3472194,-0.35018408,-0.3491755,-0.34125948,-0.33135688,-0.32738358,-0.33135688,-0.3343215,-0.3293702,-0.3184895,-0.30858684,-0.3066002,-0.3075782,-0.30164886,-0.29272425,-0.28875095,-0.28875095,-0.29272425,-0.2917462,-0.28777295,-0.2867949,-0.28578633,-0.2818436,-0.27093226,-0.25607836,-0.24914032,-0.25705636,-0.2689457,-0.27490556,-0.27490556,-0.2719103,-0.26995426,-0.27093226,-0.27093226,-0.27093226,-0.27588362,-0.27985692,-0.28083497,-0.27490556,-0.26796764,-0.266959,-0.27588362,-0.2818436,-0.2778703,-0.2689457,-0.2600516,-0.25904304,-0.26200765,-0.26500297,-0.266959,-0.272919,-0.2788483,-0.28083497,-0.2719103,-0.26102966,-0.25705636,-0.26301628,-0.27093226,-0.27490556,-0.2719103,-0.27093226,-0.273897,-0.27588362,-0.2719103,-0.26500297,-0.25705636,-0.25311363,-0.24816233,-0.2422024,-0.23825967,-0.24516708,-0.25705636,-0.26399434,-0.26200765,-0.25607836,-0.25311363,-0.258065,-0.26500297,-0.266959,-0.26301628,-0.25904304,-0.25904304,-0.25705636,-0.25210506,-0.2461757,-0.24516708,-0.24914032,-0.24816233,-0.24021572,-0.22933501,-0.21943241,-0.21347249,-0.2065345,-0.19861847,-0.19268906,-0.19464517,-0.19464517,-0.17979127,-0.15304792,-0.12731326,-0.12135327,-0.13226455,-0.13721591,-0.12532657,-0.10252607,-0.088680625,-0.10451263,-0.14610994,-0.19168049,-0.22933501,-0.251127,-0.25705636,-0.24914032,-0.23725104,-0.23132169,-0.24021572,-0.258065,-0.27490556,-0.272919,-0.25904304,-0.24321097,-0.23526442,-0.23526442,-0.23825967,-0.24122435,-0.24321097,-0.24516708,-0.24418902,-0.23825967,-0.22933501,-0.21943241,-0.18376446,-0.06490207,0.14907467,0.41653812,0.66220963,0.7721474,0.6968688,0.43536544,0.031190395,-0.39774132,-0.74442595,-0.9197702,-0.89599156,-0.7374879,-0.53937376,-0.38187873,-0.28777295,-0.24122435,-0.22637033,-0.22141898,-0.21744573,-0.21249437,-0.2045784,-0.19168049,-0.18575114,-0.18575114,-0.18575114,-0.18079984,-0.17187524,-0.16493726,-0.1639592,-0.16197252,-0.15702122,-0.15206993,-0.1510613,-0.1550346,-0.15405649,-0.14513189,-0.13226455,-0.124318,-0.12630469,-0.13027799,-0.12532657,-0.11542398,-0.11047262,-0.112428665,-0.11441535,-0.10946405,-0.09858334,-0.086694,-0.08073413,-0.07083142,-0.05399078,-0.02923417,-0.006433606,0.012363076,0.026239038,0.045066237,0.07083154,0.099530816,0.13024747,0.16295075,0.19861853,0.23822927,0.27288854,0.30360508,0.33529973,0.36898088,0.3967328,0.41852474,0.43139207,0.43732142,0.4432814,0.44227278,0.42741883,0.3957243,0.3511623,0.29767573,0.24318051,0.18177795,0.1134069,0.043079615,-0.025260866,-0.09063673,-0.15206993,-0.20555651,-0.24516708,-0.2689457,-0.2867949,-0.30858684,-0.33037883,-0.35018408,-0.35712212,-0.35712212,-0.3600868,-0.36601615,-0.3699894,-0.36702472,-0.36207342,-0.36207342,-0.36800277,-0.37295413,-0.37197608,-0.36601615,-0.3600868,-0.3610648,-0.3610648,-0.3561135,-0.34621084,-0.3382948,-0.33533013,-0.3343215,-0.3343215,-0.33334345,-0.33533013,-0.33630818,-0.33334345,-0.3204761,-0.30164886,-0.28777295,-0.2818436,-0.2788483,-0.2788483,-0.27588362,-0.27588362,-0.2818436,-0.28578633,-0.28379965,-0.27588362,-0.2719103,-0.26796764,-0.26500297,-0.258065,-0.25311363,-0.25506973,-0.26598096,-0.2788483,-0.28083497,-0.272919,-0.26500297,-0.26200765,-0.26102966,-0.26301628,-0.2600516,-0.2600516,-0.26301628,-0.26500297,-0.26200765,-0.258065,-0.258065,-0.26598096,-0.272919,-0.27490556,-0.272919,-0.27093226,-0.272919,-0.27490556,-0.27490556,-0.272919,-0.272919,-0.27490556,-0.2719103,-0.2600516,-0.24418902,-0.23428637,-0.23428637,-0.24122435,-0.24816233,-0.251127,-0.25506973,-0.26200765,-0.26399434,-0.25904304,-0.251127,-0.2461757,-0.25011843,-0.25607836,-0.25705636,-0.25409168,-0.251127,-0.25409168,-0.258065,-0.25705636,-0.25311363,-0.251127,-0.258065,-0.26301628,-0.26200765,-0.25705636,-0.25409168,-0.26102966,-0.26796764,-0.26995426,-0.266959,-0.26301628,-0.26301628,-0.26200765,-0.25409168,-0.24321097,-0.24021572,-0.2471537,-0.25311363,-0.24914032,-0.23526442,-0.22239709,-0.21943241,-0.22239709,-0.22438371,-0.22438371,-0.22141898,-0.20952976,-0.18474257,-0.14910519,-0.119366646,-0.11738008,-0.13422072,-0.14216721,-0.1332426,-0.10946405,-0.09858334,-0.12135327,-0.17386186,-0.22734839,-0.26500297,-0.2867949,-0.28875095,-0.2788483,-0.26500297,-0.25409168,-0.25311363,-0.26102966,-0.27093226,-0.27689224,-0.28083497,-0.28578633,-0.28975958,-0.28875095,-0.2818436,-0.27093226,-0.26598096,-0.2719103,-0.27689224,-0.27490556,-0.26598096,-0.24914032,-0.19070244,-0.03617215,0.2233752,0.54035187,0.80384195,0.8989563,0.7781073,0.4511974,0.0014823675,-0.44428992,-0.7711692,-0.89599156,-0.8187264,-0.63149285,-0.44627655,-0.33135688,-0.28578633,-0.272919,-0.26200765,-0.2471537,-0.23428637,-0.22734839,-0.22239709,-0.2204104,-0.22141898,-0.2164371,-0.20952976,-0.19861847,-0.18575114,-0.18575114,-0.19464517,-0.19764048,-0.18969387,-0.17584842,-0.16692382,-0.16988856,-0.17483985,-0.17285323,-0.16295052,-0.15702122,-0.15304792,-0.1510613,-0.14216721,-0.12829125,-0.12233138,-0.12333995,-0.12233138,-0.11047262,-0.09262341,-0.07183999,-0.05995077,-0.05301279,-0.042101443,-0.027247548,-0.013371646,-0.0014823079,0.011384964,0.029203773,0.056955576,0.08767223,0.118358135,0.14907467,0.18969393,0.22930467,0.26793718,0.30064046,0.32937038,0.3581003,0.38979483,0.41852474,0.43536544,0.4442594,0.45021927,0.44823277,0.43139207,0.3986889,0.35412693,0.30262697,0.2501185,0.18868542,0.12034488,0.050017595,-0.01535821,-0.069853365,-0.119366646,-0.1689105,-0.21448112,-0.24914032,-0.272919,-0.2917462,-0.30858684,-0.32441884,-0.3382948,-0.34523278,-0.3491755,-0.35116214,-0.35018408,-0.34523278,-0.33630818,-0.33135688,-0.33334345,-0.33630818,-0.33630818,-0.3343215,-0.33630818,-0.34125948,-0.34621084,-0.3472194,-0.3382948,-0.33533013,-0.33630818,-0.3382948,-0.33236545,-0.32145423,-0.30858684,-0.30363554,-0.3066002,-0.30858684,-0.3066002,-0.3026269,-0.29966223,-0.2976756,-0.2917462,-0.2818436,-0.27588362,-0.27490556,-0.27689224,-0.2719103,-0.26102966,-0.24914032,-0.24418902,-0.2471537,-0.25011843,-0.2471537,-0.24418902,-0.24516708,-0.25210506,-0.25506973,-0.25210506,-0.2471537,-0.24321097,-0.24122435,-0.24021572,-0.23725104,-0.23627305,-0.23923767,-0.24321097,-0.24321097,-0.23923767,-0.23725104,-0.24122435,-0.24516708,-0.24516708,-0.24122435,-0.23923767,-0.2422024,-0.2461757,-0.24816233,-0.24021572,-0.23428637,-0.23428637,-0.23825967,-0.23923767,-0.24122435,-0.24516708,-0.25311363,-0.26200765,-0.2600516,-0.24914032,-0.23526442,-0.23031306,-0.2332778,-0.23825967,-0.23923767,-0.23627305,-0.2332778,-0.23031306,-0.22637033,-0.22438371,-0.22637033,-0.23229975,-0.2332778,-0.23031306,-0.22438371,-0.22141898,-0.22637033,-0.22832644,-0.22337514,-0.21545911,-0.21050781,-0.21744573,-0.22536176,-0.22337514,-0.21842378,-0.21744573,-0.22141898,-0.22637033,-0.22337514,-0.21545911,-0.20952976,-0.20952976,-0.21448112,-0.21249437,-0.2045784,-0.2006051,-0.20259178,-0.20555651,-0.2065345,-0.2065345,-0.20754308,-0.21249437,-0.21347249,-0.20259178,-0.18575114,-0.17386186,-0.17285323,-0.17979127,-0.18474257,-0.17386186,-0.15008318,-0.124318,-0.10252607,-0.09558803,-0.101548016,-0.11441535,-0.11441535,-0.09858334,-0.0777694,-0.06588012,-0.0916453,-0.14513189,-0.2006051,-0.23627305,-0.2461757,-0.2422024,-0.23825967,-0.23825967,-0.23725104,-0.23428637,-0.23725104,-0.2471537,-0.2600516,-0.26796764,-0.26796764,-0.26796764,-0.26796764,-0.266959,-0.25705636,-0.2422024,-0.23031306,-0.22933501,-0.23627305,-0.24418902,-0.23132169,-0.15702122,0.03415501,0.32937038,0.66716087,0.91973984,0.96729684,0.7741339,0.3709675,-0.11640197,-0.54432505,-0.8147531,-0.8781729,-0.7662179,-0.57305497,-0.40269268,-0.29966223,-0.26200765,-0.258065,-0.25311363,-0.23627305,-0.2164371,-0.2065345,-0.2015832,-0.19764048,-0.19070244,-0.18376446,-0.18474257,-0.18575114,-0.18278646,-0.17682654,-0.17386186,-0.17187524,-0.1639592,-0.14809662,-0.13226455,-0.12532657,-0.13226455,-0.1441539,-0.1441539,-0.1332426,-0.12135327,-0.11542398,-0.11441535,-0.113437355,-0.10552132,-0.09659666,-0.088680625,-0.0827207,-0.07183999,-0.05894208,-0.050048053,-0.042101443,-0.032198846,-0.014380217,0.010406971,0.03415501,0.052004218,0.061906934,0.081712246,0.111420155,0.14213681,0.17581809,0.21148586,0.24910998,0.28972912,0.33034837,0.36402965,0.39077294,0.41751623,0.44031668,0.45318413,0.45715737,0.45715737,0.454162,0.4442594,0.42048085,0.3779055,0.32142377,0.2590431,0.19464529,0.12630475,0.054968953,-0.014380217,-0.07379609,-0.12333995,-0.17089713,-0.21347249,-0.251127,-0.26995426,-0.27689224,-0.2828216,-0.29966223,-0.3204761,-0.33630818,-0.34226805,-0.3432461,-0.3432461,-0.3472194,-0.3472194,-0.34125948,-0.3382948,-0.34226805,-0.34621084,-0.3432461,-0.3343215,-0.32738358,-0.32738358,-0.33236545,-0.33236545,-0.32441884,-0.3135382,-0.3095649,-0.31252956,-0.31451625,-0.31451625,-0.31552482,-0.31650287,-0.31451625,-0.30363554,-0.2917462,-0.28777295,-0.28875095,-0.29568893,-0.2917462,-0.27985692,-0.26796764,-0.26200765,-0.26399434,-0.26399434,-0.258065,-0.251127,-0.24516708,-0.24418902,-0.24321097,-0.2422024,-0.24321097,-0.24816233,-0.25506973,-0.25607836,-0.25409168,-0.25409168,-0.25705636,-0.26200765,-0.26102966,-0.25409168,-0.25011843,-0.25409168,-0.26399434,-0.27490556,-0.27490556,-0.26796764,-0.25705636,-0.251127,-0.2461757,-0.2471537,-0.25311363,-0.26102966,-0.26598096,-0.26399434,-0.26102966,-0.26200765,-0.2689457,-0.27490556,-0.2719103,-0.26399434,-0.25904304,-0.26500297,-0.27689224,-0.2818436,-0.27588362,-0.266959,-0.26200765,-0.26301628,-0.26301628,-0.26102966,-0.26399434,-0.272919,-0.2788483,-0.2788483,-0.27093226,-0.2600516,-0.25904304,-0.26301628,-0.25904304,-0.25210506,-0.2471537,-0.2461757,-0.25210506,-0.25506973,-0.25210506,-0.251127,-0.25311363,-0.25904304,-0.26301628,-0.2600516,-0.2600516,-0.26399434,-0.26796764,-0.26598096,-0.258065,-0.25311363,-0.25705636,-0.26399434,-0.25607836,-0.23627305,-0.2164371,-0.2045784,-0.20555651,-0.21050781,-0.21050781,-0.2006051,-0.18177783,-0.15405649,-0.12233138,-0.100539446,-0.10252607,-0.11640197,-0.124318,-0.11838865,-0.101548016,-0.09659666,-0.12333995,-0.16988856,-0.21347249,-0.24418902,-0.2600516,-0.26598096,-0.2689457,-0.26995426,-0.26399434,-0.25705636,-0.25607836,-0.25607836,-0.25607836,-0.25311363,-0.24914032,-0.251127,-0.251127,-0.25011843,-0.2471537,-0.24516708,-0.25011843,-0.25904304,-0.26200765,-0.25506973,-0.2332778,-0.16790193,-0.012393534,0.23226929,0.5205467,0.75631535,0.82862914,0.6978469,0.37494087,-0.061906815,-0.4938032,-0.81377506,-0.9395755,-0.8682703,-0.6770634,-0.47797114,-0.3442242,-0.28379965,-0.26500297,-0.25506973,-0.24122435,-0.22933501,-0.22141898,-0.21448112,-0.2045784,-0.19464517,-0.18871588,-0.1867292,-0.18177783,-0.17285323,-0.16493726,-0.1639592,-0.16988856,-0.17483985,-0.17483985,-0.17187524,-0.16790193,-0.16493726,-0.1599859,-0.15405649,-0.14610994,-0.1441539,-0.13721591,-0.12630469,-0.11441535,-0.106499374,-0.10451263,-0.10552132,-0.09956133,-0.087672055,-0.076791406,-0.06688869,-0.057964087,-0.043110132,-0.023274243,-0.0034689307,0.013371706,0.030212283,0.056955576,0.08767223,0.11738014,0.14314544,0.16493738,0.19464529,0.23327792,0.27090192,0.3065697,0.33826435,0.37295425,0.40862215,0.43833005,0.45220602,0.45220602,0.45220602,0.44823277,0.43536544,0.41057813,0.36898088,0.31748104,0.25803447,0.19265866,0.12330949,0.05399096,-0.005455613,-0.057964087,-0.11047262,-0.1639592,-0.2164371,-0.25607836,-0.28480822,-0.31054294,-0.33533013,-0.34819746,-0.34819746,-0.3382948,-0.33037883,-0.33135688,-0.3382948,-0.33927286,-0.3343215,-0.33334345,-0.3402815,-0.35018408,-0.35314882,-0.34621084,-0.33927286,-0.33731675,-0.34125948,-0.3432461,-0.3382948,-0.33135688,-0.32441884,-0.31946754,-0.3115515,-0.30164886,-0.29471093,-0.29471093,-0.29471093,-0.29471093,-0.28777295,-0.27985692,-0.27490556,-0.27093226,-0.26102966,-0.251127,-0.24418902,-0.2461757,-0.25210506,-0.25311363,-0.24816233,-0.24122435,-0.23526442,-0.23725104,-0.23923767,-0.23627305,-0.23627305,-0.23825967,-0.24122435,-0.24021572,-0.23627305,-0.23526442,-0.24021572,-0.24418902,-0.2471537,-0.24122435,-0.23627305,-0.23627305,-0.24021572,-0.2422024,-0.23923767,-0.24021572,-0.2461757,-0.258065,-0.26102966,-0.25011843,-0.23627305,-0.22637033,-0.22637033,-0.2332778,-0.23923767,-0.24418902,-0.24816233,-0.24914032,-0.2471537,-0.23825967,-0.23229975,-0.23428637,-0.24122435,-0.24516708,-0.24122435,-0.23627305,-0.23526442,-0.23526442,-0.23229975,-0.22438371,-0.22141898,-0.22536176,-0.23132169,-0.23132169,-0.22637033,-0.2204104,-0.22637033,-0.23229975,-0.2332778,-0.22438371,-0.2114858,-0.2065345,-0.20754308,-0.2065345,-0.20356977,-0.20356977,-0.2114858,-0.22141898,-0.22438371,-0.22141898,-0.21545911,-0.21249437,-0.2164371,-0.21943241,-0.2164371,-0.21545911,-0.2164371,-0.21842378,-0.21744573,-0.20952976,-0.2015832,-0.1996271,-0.19663185,-0.18969387,-0.17979127,-0.17089713,-0.15799922,-0.1381939,-0.10946405,-0.081742704,-0.07183999,-0.07975602,-0.087672055,-0.081742704,-0.062915385,-0.05200416,-0.068844795,-0.11441535,-0.1639592,-0.2045784,-0.22933501,-0.23825967,-0.23923767,-0.23526442,-0.23229975,-0.2332778,-0.24321097,-0.251127,-0.251127,-0.24516708,-0.24021572,-0.2422024,-0.2461757,-0.24418902,-0.23725104,-0.23428637,-0.24021572,-0.24816233,-0.24816233,-0.23923767,-0.22734839,-0.19168049,-0.081742704,0.15005279,0.46409535,0.77511203,0.9455049,0.89498305,0.6265416,0.19067192,-0.2828216,-0.67409873,-0.8841023,-0.8811376,-0.71869123,-0.513639,-0.35712212,-0.27689224,-0.24816233,-0.24021572,-0.23526442,-0.2332778,-0.23725104,-0.23627305,-0.22536176,-0.2114858,-0.2006051,-0.19464517,-0.18871588,-0.17979127,-0.17187524,-0.17089713,-0.17682654,-0.17780453,-0.16988856,-0.1550346,-0.13917202,-0.12630469,-0.11640197,-0.113437355,-0.11838865,-0.12532657,-0.13125598,-0.12630469,-0.113437355,-0.10252607,-0.101548016,-0.10451263,-0.10451263,-0.094610035,-0.08369881,-0.07480472,-0.068844795,-0.056955457,-0.037150145,-0.01535821,0.0024603605,0.017314434,0.03516364,0.06588018,0.09855282,0.13024747,0.161942,0.19464529,0.24119389,0.28676438,0.325397,0.35412693,0.3788836,0.40168417,0.42148936,0.43732142,0.44624615,0.4581355,0.46409535,0.45614874,0.43139207,0.3878082,0.33728623,0.28676438,0.22731793,0.15699077,0.09063685,0.030212283,-0.019331515,-0.06688869,-0.12532657,-0.18474257,-0.2332778,-0.26598096,-0.2917462,-0.31451625,-0.33927286,-0.35116214,-0.35116214,-0.35018408,-0.34819746,-0.35116214,-0.35314882,-0.3472194,-0.3442242,-0.3491755,-0.35217077,-0.35217077,-0.35018408,-0.34819746,-0.34621084,-0.34226805,-0.33334345,-0.31946754,-0.31748092,-0.32344085,-0.32839215,-0.32640553,-0.31650287,-0.31054294,-0.31252956,-0.3184895,-0.3204761,-0.31054294,-0.29966223,-0.29272425,-0.29073763,-0.28578633,-0.27985692,-0.27490556,-0.27689224,-0.2818436,-0.28083497,-0.2689457,-0.25506973,-0.25011843,-0.25409168,-0.25409168,-0.24418902,-0.2332778,-0.22734839,-0.23229975,-0.24321097,-0.251127,-0.25705636,-0.26200765,-0.27093226,-0.27689224,-0.27689224,-0.27490556,-0.2719103,-0.26598096,-0.258065,-0.24914032,-0.2471537,-0.25607836,-0.266959,-0.272919,-0.2689457,-0.26301628,-0.26301628,-0.26995426,-0.272919,-0.266959,-0.258065,-0.25210506,-0.25409168,-0.25904304,-0.25904304,-0.26102966,-0.26102966,-0.26200765,-0.26399434,-0.258065,-0.25311363,-0.251127,-0.24816233,-0.24418902,-0.23825967,-0.23923767,-0.2461757,-0.25607836,-0.2600516,-0.25311363,-0.24321097,-0.23923767,-0.23923767,-0.24021572,-0.23627305,-0.22832644,-0.22438371,-0.22141898,-0.2164371,-0.21347249,-0.21448112,-0.21943241,-0.22438371,-0.22337514,-0.2164371,-0.21448112,-0.22337514,-0.23132169,-0.2332778,-0.22438371,-0.21347249,-0.2114858,-0.21943241,-0.22933501,-0.23132169,-0.23031306,-0.22337514,-0.21943241,-0.20952976,-0.18773776,-0.17187524,-0.16692382,-0.17584842,-0.1867292,-0.1956538,-0.19464517,-0.18474257,-0.16692382,-0.13917202,-0.112428665,-0.100539446,-0.11145067,-0.12731326,-0.12731326,-0.112428665,-0.09757471,-0.10848594,-0.15206993,-0.19861847,-0.23825967,-0.26200765,-0.272919,-0.27490556,-0.26598096,-0.25011843,-0.23526442,-0.2332778,-0.24122435,-0.25210506,-0.25904304,-0.26200765,-0.26796764,-0.272919,-0.272919,-0.2689457,-0.26598096,-0.266959,-0.27093226,-0.26598096,-0.2471537,-0.22734839,-0.1996271,-0.13027799,0.032198906,0.27090192,0.5334139,0.7196388,0.7345234,0.56315243,0.22236657,-0.2006051,-0.5968336,-0.86133224,-0.92768615,-0.82071304,-0.6255635,-0.4413252,-0.32344085,-0.26500297,-0.2422024,-0.23526442,-0.22832644,-0.2204104,-0.20952976,-0.19464517,-0.18474257,-0.18376446,-0.18474257,-0.18474257,-0.17881316,-0.17089713,-0.16692382,-0.16988856,-0.17187524,-0.16790193,-0.16096395,-0.15405649,-0.14711857,-0.13917202,-0.1332426,-0.13125598,-0.13422072,-0.1381939,-0.13522929,-0.12630469,-0.11838865,-0.11542398,-0.11542398,-0.112428665,-0.10353464,-0.09558803,-0.08965874,-0.076791406,-0.05499935,-0.026269555,0.00047385693,0.013371706,0.017314434,0.023274302,0.04109311,0.06588018,0.09063685,0.12132287,0.15897739,0.20256126,0.24119389,0.27191043,0.29468048,0.31845903,0.35015368,0.38285685,0.40960014,0.42546284,0.43634343,0.4432814,0.43930817,0.42148936,0.3878082,0.3422376,0.29767573,0.24516726,0.18373406,0.11637151,0.04705298,-0.021318138,-0.08568543,-0.14809662,-0.2045784,-0.24914032,-0.2788483,-0.30064029,-0.31946754,-0.33927286,-0.35116214,-0.3541574,-0.3561135,-0.3610648,-0.36601615,-0.36800277,-0.36406004,-0.3600868,-0.3591087,-0.3610648,-0.36305147,-0.3591087,-0.3600868,-0.36305147,-0.36305147,-0.35712212,-0.34621084,-0.33533013,-0.3343215,-0.33927286,-0.33927286,-0.33236545,-0.32839215,-0.33135688,-0.33135688,-0.32738358,-0.31748092,-0.3075782,-0.30164886,-0.2976756,-0.28777295,-0.2719103,-0.25904304,-0.25904304,-0.26598096,-0.2689457,-0.26796764,-0.266959,-0.27093226,-0.2689457,-0.25904304,-0.24021572,-0.22637033,-0.22832644,-0.24122435,-0.25011843,-0.251127,-0.25011843,-0.25607836,-0.266959,-0.27093226,-0.26500297,-0.25607836,-0.25409168,-0.25607836,-0.258065,-0.25409168,-0.25210506,-0.25904304,-0.27093226,-0.27985692,-0.2778703,-0.2719103,-0.26995426,-0.272919,-0.27689224,-0.273897,-0.266959,-0.25705636,-0.25011843,-0.2461757,-0.24418902,-0.2461757,-0.25210506,-0.25904304,-0.26301628,-0.26301628,-0.26102966,-0.26399434,-0.266959,-0.26598096,-0.26301628,-0.26102966,-0.26399434,-0.26796764,-0.26796764,-0.26301628,-0.26102966,-0.266959,-0.272919,-0.27588362,-0.27093226,-0.25409168,-0.24021572,-0.23229975,-0.22734839,-0.23031306,-0.24021572,-0.25011843,-0.258065,-0.25705636,-0.25210506,-0.251127,-0.25506973,-0.26500297,-0.26399434,-0.25311363,-0.23923767,-0.23132169,-0.22933501,-0.23031306,-0.22832644,-0.22637033,-0.22438371,-0.21050781,-0.18177783,-0.14610994,-0.124318,-0.12233138,-0.13125598,-0.12731326,-0.106499374,-0.08568543,-0.088680625,-0.12630469,-0.18079984,-0.23229975,-0.2689457,-0.29073763,-0.29868418,-0.29272425,-0.27985692,-0.26995426,-0.266959,-0.2719103,-0.28083497,-0.28379965,-0.28777295,-0.29373288,-0.29669756,-0.29272425,-0.2828216,-0.272919,-0.2719103,-0.27689224,-0.272919,-0.25904304,-0.24418902,-0.22438371,-0.1639592,-0.006433606,0.2590431,0.5700599,0.8177179,0.8870671,0.7464125,0.40663552,-0.045066178,-0.47995776,-0.7910051,-0.89996487,-0.81576174,-0.63149285,-0.45419252,-0.3442242,-0.29471093,-0.27588362,-0.26500297,-0.25409168,-0.24914032,-0.24816233,-0.24418902,-0.23923767,-0.2332778,-0.22536176,-0.21842378,-0.20952976,-0.2006051,-0.19764048,-0.1956538,-0.18969387,-0.18177783,-0.17584842,-0.18079984,-0.18773776,-0.18773776,-0.18079984,-0.16692382,-0.15900785,-0.1599859,-0.1599859,-0.1550346,-0.14711857,-0.14314532,-0.14018059,-0.1332426,-0.124318,-0.12135327,-0.113437355,-0.10451263,-0.08470744,-0.055977464,-0.03516358,-0.026269555,-0.020309508,-0.005455613,0.018323064,0.043079615,0.062885046,0.07874751,0.1035043,0.14213681,0.1877073,0.23129117,0.27090192,0.30855632,0.34422433,0.37494087,0.39275956,0.40067554,0.4056269,0.40960014,0.41158676,0.3957243,0.3699895,0.33728623,0.29865372,0.2501185,0.18474269,0.1035043,0.022265792,-0.046074748,-0.100539446,-0.15206993,-0.1996271,-0.24516708,-0.2828216,-0.3115515,-0.3343215,-0.35018408,-0.3591087,-0.36305147,-0.36702472,-0.37295413,-0.37790543,-0.38090068,-0.38090068,-0.38187873,-0.38484347,-0.38683003,-0.38187873,-0.37197608,-0.36702472,-0.3690114,-0.38090068,-0.38090068,-0.37197608,-0.35810012,-0.3472194,-0.3491755,-0.3541574,-0.3541574,-0.3491755,-0.3432461,-0.33630818,-0.32839215,-0.3204761,-0.31552482,-0.31946754,-0.32441884,-0.32344085,-0.31451625,-0.3046136,-0.29966223,-0.3026269,-0.30363554,-0.29966223,-0.29373288,-0.28975958,-0.28975958,-0.28875095,-0.28875095,-0.28777295,-0.28875095,-0.28875095,-0.28480822,-0.28083497,-0.28379965,-0.28975958,-0.28875095,-0.27588362,-0.2600516,-0.25011843,-0.258065,-0.273897,-0.27985692,-0.27588362,-0.27093226,-0.27490556,-0.2828216,-0.2917462,-0.29568893,-0.29272425,-0.28875095,-0.2867949,-0.2788483,-0.2689457,-0.26399434,-0.266959,-0.27588362,-0.28083497,-0.2788483,-0.273897,-0.2689457,-0.26598096,-0.26500297,-0.258065,-0.25011843,-0.251127,-0.25506973,-0.2600516,-0.26102966,-0.26301628,-0.26598096,-0.27093226,-0.26995426,-0.26102966,-0.25311363,-0.25210506,-0.25607836,-0.26301628,-0.2600516,-0.251127,-0.24816233,-0.25311363,-0.26102966,-0.26399434,-0.26102966,-0.25904304,-0.25506973,-0.24816233,-0.23725104,-0.22933501,-0.23229975,-0.2461757,-0.25904304,-0.25904304,-0.24816233,-0.23428637,-0.22734839,-0.22832644,-0.23132169,-0.2332778,-0.23428637,-0.23627305,-0.23825967,-0.24021572,-0.24021572,-0.23526442,-0.23229975,-0.22438371,-0.2164371,-0.21249437,-0.21448112,-0.21050781,-0.19168049,-0.15799922,-0.12233138,-0.10552132,-0.11640197,-0.13522929,-0.13917202,-0.124318,-0.10353464,-0.094610035,-0.112428665,-0.15405649,-0.19663185,-0.23627305,-0.258065,-0.258065,-0.2461757,-0.23923767,-0.24021572,-0.2461757,-0.24914032,-0.24816233,-0.25210506,-0.26200765,-0.273897,-0.27588362,-0.26796764,-0.2600516,-0.2600516,-0.26796764,-0.26995426,-0.26200765,-0.25705636,-0.25904304,-0.2689457,-0.25607836,-0.16493726,0.04705298,0.3511623,0.6701255,0.8900317,0.9068724,0.7077495,0.30757844,-0.17089713,-0.5898956,-0.841527,-0.8791509,-0.7523725,-0.56018764,-0.39871937,-0.30363554,-0.26301628,-0.24914032,-0.24321097,-0.2332778,-0.22438371,-0.22141898,-0.22438371,-0.23031306,-0.22933501,-0.22141898,-0.20852107,-0.20356977,-0.2015832,-0.1996271,-0.19070244,-0.18177783,-0.17881316,-0.18474257,-0.18474257,-0.17682654,-0.16197252,-0.14910519,-0.14513189,-0.14314532,-0.1381939,-0.13226455,-0.12829125,-0.12731326,-0.124318,-0.11640197,-0.10946405,-0.10848594,-0.10747737,-0.101548016,-0.086694,-0.07083142,-0.05894208,-0.049039483,-0.03418553,-0.006433606,0.023274302,0.048030972,0.07278764,0.09757483,0.13024747,0.167902,0.20256126,0.23822927,0.27588367,0.3154943,0.35510504,0.38582158,0.4135735,0.43930817,0.46409535,0.4789493,0.4789493,0.46507335,0.44227278,0.4135735,0.37494087,0.32142377,0.25604784,0.1877073,0.12330949,0.05793369,-0.011415482,-0.08073413,-0.13917202,-0.18177783,-0.2164371,-0.25210506,-0.28480822,-0.3075782,-0.31650287,-0.31748092,-0.32441884,-0.33630818,-0.3472194,-0.34819746,-0.3442242,-0.3491755,-0.3561135,-0.3561135,-0.3472194,-0.33334345,-0.32441884,-0.33135688,-0.3442242,-0.35018408,-0.34819746,-0.3442242,-0.3382948,-0.32839215,-0.3184895,-0.31252956,-0.31252956,-0.31946754,-0.32243228,-0.3204761,-0.31650287,-0.31552482,-0.3184895,-0.31252956,-0.2976756,-0.27985692,-0.2719103,-0.27689224,-0.27985692,-0.2828216,-0.2867949,-0.2917462,-0.29373288,-0.28379965,-0.2600516,-0.23526442,-0.22536176,-0.23428637,-0.2461757,-0.25409168,-0.25311363,-0.25409168,-0.25506973,-0.25904304,-0.26102966,-0.258065,-0.2600516,-0.26399434,-0.2600516,-0.25506973,-0.24914032,-0.25011843,-0.25904304,-0.26995426,-0.27588362,-0.2778703,-0.28379965,-0.28578633,-0.27588362,-0.2600516,-0.24418902,-0.23825967,-0.24914032,-0.26102966,-0.26598096,-0.266959,-0.266959,-0.26796764,-0.2689457,-0.26200765,-0.25506973,-0.25607836,-0.26399434,-0.2689457,-0.26995426,-0.26301628,-0.25705636,-0.25607836,-0.25607836,-0.25506973,-0.25409168,-0.258065,-0.26399434,-0.2689457,-0.27093226,-0.27689224,-0.2818436,-0.2828216,-0.27490556,-0.258065,-0.2461757,-0.24914032,-0.26102966,-0.2689457,-0.26796764,-0.26399434,-0.26301628,-0.26399434,-0.26200765,-0.25210506,-0.24321097,-0.24321097,-0.24914032,-0.25506973,-0.25311363,-0.24914032,-0.24914032,-0.25506973,-0.26301628,-0.26399434,-0.25705636,-0.24914032,-0.24021572,-0.23229975,-0.22337514,-0.2204104,-0.22141898,-0.21943241,-0.20952976,-0.19464517,-0.17979127,-0.16096395,-0.14314532,-0.12532657,-0.11047262,-0.11047262,-0.124318,-0.1332426,-0.12532657,-0.112428665,-0.113437355,-0.14314532,-0.18969387,-0.22933501,-0.24418902,-0.23725104,-0.22536176,-0.22438371,-0.22832644,-0.23132169,-0.23725104,-0.24516708,-0.25409168,-0.258065,-0.25506973,-0.25210506,-0.25705636,-0.266959,-0.2719103,-0.26200765,-0.24816233,-0.24122435,-0.24418902,-0.24816233,-0.24321097,-0.21744573,-0.13125598,0.052004218,0.31252968,0.59185183,0.7860234,0.79097474,0.5958251,0.23031318,-0.20555651,-0.5988202,-0.85537237,-0.9217568,-0.81576174,-0.6255635,-0.44526792,-0.33135688,-0.2818436,-0.26200765,-0.24122435,-0.21448112,-0.19268906,-0.1867292,-0.18871588,-0.19268906,-0.18871588,-0.18079984,-0.17187524,-0.1599859,-0.14711857,-0.13917202,-0.14115858,-0.14809662,-0.15206993,-0.15008318,-0.14513189,-0.14513189,-0.14910519,-0.15206993,-0.14809662,-0.14314532,-0.14115858,-0.14216721,-0.13422072,-0.12135327,-0.11047262,-0.10848594,-0.11640197,-0.11738008,-0.10552132,-0.07975602,-0.05301279,-0.03516358,-0.021318138,-0.005455613,0.008420348,0.019301057,0.031190395,0.048030972,0.07676089,0.1134069,0.14708805,0.17581809,0.20057464,0.22633994,0.25705647,0.2877425,0.31946766,0.35314894,0.38679957,0.41653812,0.43237007,0.43634343,0.43634343,0.43139207,0.41950274,0.39474618,0.35314894,0.30262697,0.24813187,0.18868542,0.12034488,0.044057727,-0.031220853,-0.09558803,-0.14910519,-0.19764048,-0.23725104,-0.2689457,-0.29272425,-0.3115515,-0.33135688,-0.35217077,-0.36406004,-0.36601615,-0.3650381,-0.37099802,-0.378914,-0.38187873,-0.37494075,-0.36406004,-0.3600868,-0.36406004,-0.3690114,-0.3650381,-0.3541574,-0.3491755,-0.35314882,-0.3541574,-0.35116214,-0.34523278,-0.34226805,-0.3472194,-0.35116214,-0.35018408,-0.3432461,-0.33731675,-0.33334345,-0.32640553,-0.31451625,-0.3075782,-0.31054294,-0.32145423,-0.32738358,-0.3204761,-0.3026269,-0.28975958,-0.28379965,-0.28480822,-0.28379965,-0.2818436,-0.2778703,-0.273897,-0.26598096,-0.25506973,-0.24816233,-0.25210506,-0.2600516,-0.26102966,-0.25705636,-0.25409168,-0.25904304,-0.26995426,-0.27689224,-0.2719103,-0.26301628,-0.26301628,-0.27093226,-0.28083497,-0.28480822,-0.27985692,-0.27689224,-0.2719103,-0.26796764,-0.26200765,-0.25607836,-0.25311363,-0.25409168,-0.25311363,-0.25311363,-0.25705636,-0.26399434,-0.273897,-0.27588362,-0.26796764,-0.25904304,-0.25506973,-0.2600516,-0.26399434,-0.26500297,-0.26399434,-0.26399434,-0.26598096,-0.26500297,-0.25705636,-0.24914032,-0.2471537,-0.24914032,-0.2461757,-0.23725104,-0.22933501,-0.22933501,-0.23725104,-0.2422024,-0.24122435,-0.23526442,-0.23031306,-0.23428637,-0.23923767,-0.2422024,-0.24321097,-0.24516708,-0.2461757,-0.24321097,-0.22933501,-0.21545911,-0.2114858,-0.21249437,-0.21249437,-0.20952976,-0.20259178,-0.18969387,-0.17285323,-0.1510613,-0.12731326,-0.112428665,-0.11838865,-0.12829125,-0.12630469,-0.113437355,-0.100539446,-0.10353464,-0.13620728,-0.18079984,-0.21744573,-0.24122435,-0.25311363,-0.25607836,-0.25607836,-0.25409168,-0.25705636,-0.2600516,-0.26399434,-0.26399434,-0.2600516,-0.2600516,-0.26995426,-0.28083497,-0.28379965,-0.27588362,-0.26500297,-0.25607836,-0.25506973,-0.25311363,-0.251127,-0.25506973,-0.24418902,-0.16988856,0.023274302,0.31748104,0.63843095,0.85732865,0.8731911,0.67507684,0.29171574,-0.16692382,-0.57999295,-0.8464783,-0.9058942,-0.7840671,-0.5898956,-0.42148936,-0.33037883,-0.2976756,-0.28379965,-0.26301628,-0.23627305,-0.21448112,-0.2045784,-0.20555651,-0.2065345,-0.20852107,-0.20754308,-0.2015832,-0.19070244,-0.18575114,-0.18474257,-0.18773776,-0.18969387,-0.18575114,-0.18079984,-0.18278646,-0.18474257,-0.18376446,-0.17483985,-0.16692382,-0.16197252,-0.16197252,-0.1560126,-0.14711857,-0.13917202,-0.13620728,-0.13721591,-0.13422072,-0.12135327,-0.10747737,-0.09858334,-0.08965874,-0.076791406,-0.055977464,-0.03418553,-0.017344892,-0.007442236,0.0054250956,0.026239038,0.050995708,0.07773888,0.1064688,0.14314544,0.18969393,0.23725116,0.27389705,0.30161846,0.32738364,0.36005628,0.39178157,0.41653812,0.42741883,0.43139207,0.43732142,0.43634343,0.42246747,0.39275956,0.3511623,0.29865372,0.24119389,0.17581809,0.10451281,0.036141634,-0.025260866,-0.08073413,-0.13721591,-0.19070244,-0.23132169,-0.26200765,-0.28975958,-0.31650287,-0.3442242,-0.36305147,-0.37197608,-0.3699894,-0.37197608,-0.378914,-0.378914,-0.3699894,-0.3561135,-0.3472194,-0.3472194,-0.35116214,-0.35116214,-0.3472194,-0.3432461,-0.34523278,-0.34819746,-0.35116214,-0.35217077,-0.35513544,-0.35712212,-0.35513544,-0.3472194,-0.33731675,-0.33533013,-0.33630818,-0.33630818,-0.3293702,-0.31748092,-0.3066002,-0.29868418,-0.29471093,-0.29471093,-0.29373288,-0.29568893,-0.29373288,-0.27985692,-0.26102966,-0.24816233,-0.24816233,-0.26200765,-0.27490556,-0.2788483,-0.27588362,-0.2719103,-0.272919,-0.27588362,-0.273897,-0.27093226,-0.27093226,-0.2719103,-0.26796764,-0.25904304,-0.25409168,-0.25904304,-0.2719103,-0.2818436,-0.2788483,-0.266959,-0.25607836,-0.25210506,-0.258065,-0.26200765,-0.26500297,-0.26796764,-0.272919,-0.2719103,-0.27093226,-0.27093226,-0.273897,-0.2788483,-0.2788483,-0.273897,-0.26995426,-0.2719103,-0.2788483,-0.28379965,-0.2778703,-0.26995426,-0.266959,-0.26500297,-0.26301628,-0.2600516,-0.25409168,-0.25607836,-0.26399434,-0.26500297,-0.258065,-0.25011843,-0.2471537,-0.25311363,-0.26102966,-0.26102966,-0.25409168,-0.25011843,-0.25210506,-0.25904304,-0.26200765,-0.26102966,-0.25904304,-0.25607836,-0.24914032,-0.23825967,-0.23031306,-0.23428637,-0.24021572,-0.23725104,-0.22337514,-0.2065345,-0.2015832,-0.21448112,-0.2332778,-0.24516708,-0.2422024,-0.23627305,-0.23627305,-0.23526442,-0.23428637,-0.22734839,-0.22239709,-0.21842378,-0.21545911,-0.21545911,-0.21050781,-0.1996271,-0.17483985,-0.1381939,-0.10451263,-0.09659666,-0.124318,-0.15405649,-0.1550346,-0.119366646,-0.07183999,-0.049039483,-0.07480472,-0.13027799,-0.18969387,-0.23229975,-0.25506973,-0.26301628,-0.25904304,-0.25311363,-0.25011843,-0.25409168,-0.26102966,-0.26500297,-0.26301628,-0.25904304,-0.26301628,-0.273897,-0.27588362,-0.2689457,-0.2600516,-0.25311363,-0.25607836,-0.26102966,-0.25705636,-0.25311363,-0.25210506,-0.23132169,-0.13620728,0.08269024,0.39373755,0.71273124,0.9157971,0.91084576,0.6849797,0.2699238,-0.2065345,-0.6166389,-0.85537237,-0.87618625,-0.73849654,-0.550285,-0.40168405,-0.31252956,-0.26796764,-0.2422024,-0.22438371,-0.21545911,-0.21448112,-0.21249437,-0.21050781,-0.21050781,-0.20852107,-0.20259178,-0.19268906,-0.18376446,-0.18177783,-0.18871588,-0.18871588,-0.17881316,-0.16493726,-0.15405649,-0.15304792,-0.15702122,-0.15799922,-0.1560126,-0.1560126,-0.1510613,-0.14216721,-0.12532657,-0.11047262,-0.10552132,-0.10946405,-0.11047262,-0.10252607,-0.08965874,-0.08073413,-0.07975602,-0.07480472,-0.05995077,-0.04112345,-0.024282813,-0.01636684,-0.006433606,0.013371706,0.03910637,0.067836285,0.09262347,0.11738014,0.15699077,0.20751262,0.25705647,0.29963183,0.33432162,0.35907817,0.37989223,0.3957243,0.40862215,0.42741883,0.45021927,0.46705997,0.46705997,0.44725466,0.41158676,0.3680029,0.32044566,0.26099932,0.19265866,0.12330949,0.056955576,-0.007442236,-0.07083142,-0.1292693,-0.17682654,-0.2114858,-0.23627305,-0.2600516,-0.29073763,-0.31451625,-0.32839215,-0.33533013,-0.3402815,-0.3472194,-0.3561135,-0.35810012,-0.35217077,-0.34621084,-0.34125948,-0.33731675,-0.33236545,-0.33135688,-0.33533013,-0.3432461,-0.35018408,-0.3442242,-0.33334345,-0.32441884,-0.32344085,-0.32542747,-0.32542747,-0.32542747,-0.32145423,-0.3184895,-0.31252956,-0.3026269,-0.29669756,-0.29669756,-0.3046136,-0.3066002,-0.30064029,-0.29272425,-0.29471093,-0.29966223,-0.30164886,-0.2917462,-0.2719103,-0.25607836,-0.25011843,-0.24816233,-0.25011843,-0.25506973,-0.26399434,-0.2719103,-0.273897,-0.266959,-0.25607836,-0.25210506,-0.25705636,-0.26102966,-0.258065,-0.25607836,-0.25409168,-0.258065,-0.26102966,-0.258065,-0.25210506,-0.25011843,-0.25409168,-0.25607836,-0.25409168,-0.2461757,-0.24516708,-0.24816233,-0.25311363,-0.251127,-0.24516708,-0.24122435,-0.2422024,-0.2471537,-0.25011843,-0.25409168,-0.2600516,-0.26200765,-0.26102966,-0.25311363,-0.24418902,-0.24418902,-0.2471537,-0.24816233,-0.24021572,-0.22933501,-0.22734839,-0.23132169,-0.2332778,-0.22933501,-0.21842378,-0.21249437,-0.2114858,-0.21347249,-0.2114858,-0.20754308,-0.21347249,-0.22637033,-0.23627305,-0.23428637,-0.22933501,-0.22536176,-0.22536176,-0.22337514,-0.21842378,-0.20952976,-0.20259178,-0.20555651,-0.20754308,-0.20259178,-0.2015832,-0.20259178,-0.21050781,-0.21842378,-0.21448112,-0.2065345,-0.19663185,-0.19168049,-0.18969387,-0.18575114,-0.18376446,-0.18871588,-0.19663185,-0.1956538,-0.18278646,-0.16692382,-0.1599859,-0.16295052,-0.1550346,-0.12532657,-0.08568543,-0.060928762,-0.061906815,-0.076791406,-0.087672055,-0.08568543,-0.07975602,-0.081742704,-0.09956133,-0.1292693,-0.16295052,-0.19861847,-0.22141898,-0.22637033,-0.21744573,-0.20356977,-0.19861847,-0.2065345,-0.21545911,-0.2204104,-0.22337514,-0.22438371,-0.23132169,-0.23627305,-0.23428637,-0.22637033,-0.21943241,-0.21448112,-0.21744573,-0.22337514,-0.23132169,-0.2332778,-0.22637033,-0.18177783,-0.056955457,0.15897739,0.4244542,0.6790501,0.8087934,0.75729346,0.50865734,0.10151756,-0.3402815,-0.6968993,-0.8791509,-0.8633189,-0.71175325,-0.52451974,-0.3699894,-0.273897,-0.23229975,-0.22536176,-0.23031306,-0.22832644,-0.21744573,-0.2015832,-0.19070244,-0.1867292,-0.18575114,-0.18177783,-0.18177783,-0.18079984,-0.18278646,-0.17483985,-0.1560126,-0.13721591,-0.1292693,-0.13620728,-0.14610994,-0.1510613,-0.1550346,-0.15900785,-0.1599859,-0.15206993,-0.13422072,-0.11441535,-0.10451263,-0.10747737,-0.113437355,-0.10946405,-0.09659666,-0.08369881,-0.076791406,-0.0728181,-0.06588012,-0.049039483,-0.028225541,-0.007442236,0.015358329,0.036141634,0.055946946,0.07180965,0.08865023,0.11539352,0.15500414,0.19861853,0.23725116,0.2669592,0.29272425,0.3234104,0.3581003,0.38679957,0.40960014,0.42842734,0.44624615,0.460122,0.45911348,0.44526803,0.42148936,0.3878082,0.34422433,0.29073775,0.2233752,0.15601277,0.093601584,0.031190395,-0.033207417,-0.094610035,-0.1441539,-0.18376446,-0.21943241,-0.25409168,-0.29073763,-0.31650287,-0.32640553,-0.32839215,-0.3343215,-0.3472194,-0.3600868,-0.36406004,-0.3610648,-0.35810012,-0.3610648,-0.3600868,-0.3600868,-0.3561135,-0.35018408,-0.3442242,-0.33731675,-0.32640553,-0.31748092,-0.3204761,-0.33135688,-0.33334345,-0.33037883,-0.32441884,-0.31946754,-0.32542747,-0.33037883,-0.32738358,-0.31650287,-0.30559158,-0.29966223,-0.30064029,-0.30064029,-0.29272425,-0.2828216,-0.273897,-0.26598096,-0.25607836,-0.24816233,-0.24418902,-0.24418902,-0.24418902,-0.24122435,-0.23627305,-0.23725104,-0.24418902,-0.25311363,-0.26102966,-0.26200765,-0.26102966,-0.2600516,-0.25311363,-0.2471537,-0.24516708,-0.24914032,-0.26200765,-0.26995426,-0.26598096,-0.25705636,-0.25409168,-0.25506973,-0.25705636,-0.2600516,-0.2600516,-0.26102966,-0.26500297,-0.26399434,-0.26102966,-0.25904304,-0.26399434,-0.27588362,-0.2867949,-0.28480822,-0.27490556,-0.26301628,-0.25506973,-0.251127,-0.25409168,-0.25705636,-0.26102966,-0.26598096,-0.266959,-0.26399434,-0.258065,-0.25506973,-0.25210506,-0.24816233,-0.24321097,-0.24122435,-0.2471537,-0.25409168,-0.25705636,-0.251127,-0.2422024,-0.23923767,-0.24418902,-0.24816233,-0.24816233,-0.2471537,-0.24816233,-0.25607836,-0.25705636,-0.25011843,-0.23627305,-0.22438371,-0.22141898,-0.22536176,-0.23132169,-0.23526442,-0.23725104,-0.23825967,-0.23428637,-0.22438371,-0.21943241,-0.22239709,-0.23428637,-0.24321097,-0.23923767,-0.22337514,-0.2065345,-0.19663185,-0.19464517,-0.1996271,-0.20259178,-0.19764048,-0.18177783,-0.15304792,-0.12532657,-0.112428665,-0.11640197,-0.124318,-0.11640197,-0.09363204,-0.07480472,-0.08369881,-0.1292693,-0.18177783,-0.22337514,-0.24816233,-0.25607836,-0.25506973,-0.25311363,-0.24321097,-0.23132169,-0.23031306,-0.24122435,-0.25607836,-0.26598096,-0.27490556,-0.27588362,-0.272919,-0.26399434,-0.24418902,-0.22536176,-0.21744573,-0.22141898,-0.23031306,-0.23923767,-0.24021572,-0.2164371,-0.12532657,0.081712246,0.38184822,0.70182014,0.91876173,0.93263745,0.72856355,0.32738364,-0.14910519,-0.57305497,-0.83853173,-0.8890536,-0.75732386,-0.5532497,-0.38585204,-0.28975958,-0.258065,-0.251127,-0.23627305,-0.21943241,-0.2065345,-0.19764048,-0.19464517,-0.19268906,-0.19268906,-0.19268906,-0.18969387,-0.18177783,-0.17386186,-0.17386186,-0.18177783,-0.18278646,-0.17780453,-0.16594583,-0.15900785,-0.16197252,-0.16790193,-0.16790193,-0.16493726,-0.1639592,-0.16692382,-0.16594583,-0.1550346,-0.1381939,-0.12532657,-0.11738008,-0.11441535,-0.10848594,-0.101548016,-0.09858334,-0.09558803,-0.0827207,-0.062915385,-0.04011488,-0.02229625,-0.013371646,-0.0014823079,0.018323064,0.04705298,0.07773888,0.10252619,0.13816345,0.18373406,0.23327792,0.2798264,0.31748104,0.34621096,0.37591887,0.40464878,0.42644083,0.43930817,0.44725466,0.454162,0.45517063,0.4412948,0.40960014,0.36601627,0.3145163,0.2510966,0.17979133,0.09855282,0.020309567,-0.042101443,-0.0916453,-0.13721591,-0.18079984,-0.22637033,-0.26102966,-0.2867949,-0.3066002,-0.32441884,-0.34226805,-0.3541574,-0.36207342,-0.36702472,-0.37099802,-0.37099802,-0.36601615,-0.35810012,-0.3561135,-0.3650381,-0.37594932,-0.38585204,-0.38585204,-0.3798921,-0.36601615,-0.35116214,-0.33630818,-0.32640553,-0.32839215,-0.33731675,-0.3442242,-0.34523278,-0.34125948,-0.33533013,-0.33037883,-0.32145423,-0.3066002,-0.29471093,-0.29073763,-0.29669756,-0.30363554,-0.30559158,-0.29272425,-0.28379965,-0.27689224,-0.2719103,-0.272919,-0.26796764,-0.266959,-0.266959,-0.26301628,-0.25705636,-0.25210506,-0.251127,-0.25705636,-0.2600516,-0.2600516,-0.25311363,-0.2471537,-0.24516708,-0.23923767,-0.2332778,-0.2332778,-0.23725104,-0.24516708,-0.2471537,-0.24516708,-0.2422024,-0.24816233,-0.25904304,-0.26796764,-0.26995426,-0.266959,-0.26598096,-0.2719103,-0.272919,-0.266959,-0.258065,-0.25311363,-0.25409168,-0.2600516,-0.26102966,-0.25409168,-0.24914032,-0.2471537,-0.24516708,-0.2461757,-0.2471537,-0.251127,-0.258065,-0.258065,-0.24816233,-0.24021572,-0.24122435,-0.25011843,-0.25705636,-0.25409168,-0.24321097,-0.23725104,-0.23923767,-0.24516708,-0.24516708,-0.23825967,-0.23725104,-0.24122435,-0.23923767,-0.23526442,-0.22438371,-0.21842378,-0.21943241,-0.22239709,-0.2164371,-0.21050781,-0.20952976,-0.2164371,-0.22239709,-0.22438371,-0.2204104,-0.21842378,-0.22141898,-0.22536176,-0.2204104,-0.2114858,-0.20852107,-0.21249437,-0.21744573,-0.21943241,-0.21448112,-0.21249437,-0.2204104,-0.21943241,-0.2114858,-0.1996271,-0.18871588,-0.1867292,-0.18773776,-0.18278646,-0.17584842,-0.17780453,-0.18278646,-0.17285323,-0.14216721,-0.10252607,-0.08369881,-0.09363204,-0.11145067,-0.11441535,-0.094610035,-0.07480472,-0.075782776,-0.10747737,-0.15799922,-0.20555651,-0.24021572,-0.25506973,-0.25210506,-0.2422024,-0.23132169,-0.22933501,-0.23132169,-0.23031306,-0.22734839,-0.22536176,-0.23229975,-0.24516708,-0.258065,-0.26200765,-0.26200765,-0.2600516,-0.258065,-0.25210506,-0.24122435,-0.22933501,-0.2204104,-0.2164371,-0.17682654,-0.045066178,0.17979133,0.45021927,0.6889528,0.7899966,0.70182014,0.42741883,0.015358329,-0.41259527,-0.7503859,-0.9058942,-0.8682703,-0.70185065,-0.5067011,-0.3541574,-0.26500297,-0.23031306,-0.22933501,-0.23031306,-0.22239709,-0.2065345,-0.19168049,-0.18376446,-0.18079984,-0.17780453,-0.17187524,-0.1639592,-0.1599859,-0.16197252,-0.16096395,-0.1560126,-0.1510613,-0.15304792,-0.15702122,-0.1550346,-0.14115858,-0.12233138,-0.112428665,-0.11542398,-0.12233138,-0.12532657,-0.120375276,-0.113437355,-0.11145067,-0.10946405,-0.100539446,-0.08568543,-0.07183999,-0.0638935,-0.056955457,-0.04705286,-0.03418553,-0.023274243,-0.01535821,-0.008420229,0.0064337254,0.02822566,0.05399096,0.08073425,0.11441541,0.15699077,0.204548,0.24715388,0.27884853,0.3065697,0.33630824,0.3680029,0.3957243,0.41751623,0.4343568,0.44921076,0.46308672,0.4720112,0.46705997,0.44823277,0.4145515,0.36402965,0.29767573,0.2233752,0.15601277,0.09757483,0.04604435,-0.005455613,-0.0638935,-0.12233138,-0.17584842,-0.22438371,-0.26598096,-0.2976756,-0.31552482,-0.3184895,-0.31650287,-0.3184895,-0.3293702,-0.33731675,-0.3382948,-0.3343215,-0.33533013,-0.33731675,-0.3442242,-0.3472194,-0.33630818,-0.3293702,-0.32243228,-0.31650287,-0.31552482,-0.31650287,-0.32145423,-0.3293702,-0.33037883,-0.32344085,-0.31054294,-0.30164886,-0.30164886,-0.30559158,-0.30858684,-0.30559158,-0.3026269,-0.29868418,-0.29568893,-0.28975958,-0.2818436,-0.28083497,-0.2867949,-0.28379965,-0.27588362,-0.26500297,-0.25311363,-0.25311363,-0.25311363,-0.2471537,-0.23923767,-0.23825967,-0.24914032,-0.2600516,-0.26399434,-0.258065,-0.24914032,-0.24418902,-0.23923767,-0.23526442,-0.22734839,-0.22141898,-0.22637033,-0.23428637,-0.24021572,-0.24516708,-0.24914032,-0.25409168,-0.25607836,-0.25011843,-0.23923767,-0.2332778,-0.23031306,-0.22933501,-0.22536176,-0.22337514,-0.22832644,-0.23923767,-0.24914032,-0.25011843,-0.2422024,-0.23428637,-0.22933501,-0.22536176,-0.2204104,-0.2204104,-0.22536176,-0.23627305,-0.24816233,-0.25409168,-0.25311363,-0.25011843,-0.2461757,-0.24021572,-0.23526442,-0.23526442,-0.23825967,-0.23825967,-0.23428637,-0.22337514,-0.21448112,-0.21842378,-0.23229975,-0.2422024,-0.24122435,-0.23428637,-0.2332778,-0.23229975,-0.23428637,-0.23229975,-0.22536176,-0.22536176,-0.2332778,-0.24122435,-0.24122435,-0.23825967,-0.23627305,-0.23526442,-0.22933501,-0.21050781,-0.18969387,-0.17780453,-0.18177783,-0.18773776,-0.18278646,-0.1599859,-0.13125598,-0.10946405,-0.10451263,-0.10747737,-0.10848594,-0.101548016,-0.0916453,-0.081742704,-0.08073413,-0.101548016,-0.14216721,-0.18773776,-0.22536176,-0.23923767,-0.23627305,-0.22637033,-0.22438371,-0.22832644,-0.23428637,-0.23923767,-0.2422024,-0.24321097,-0.24418902,-0.2422024,-0.24516708,-0.25506973,-0.26598096,-0.26995426,-0.26200765,-0.24516708,-0.23428637,-0.23428637,-0.24021572,-0.23428637,-0.18474257,-0.04011488,0.20653462,0.51263046,0.7860234,0.9048859,0.8068372,0.4858873,0.031190395,-0.41556,-0.7394746,-0.8682703,-0.8068371,-0.6344881,-0.45617926,-0.33236545,-0.27490556,-0.25904304,-0.24914032,-0.23229975,-0.21347249,-0.2045784,-0.20754308,-0.21050781,-0.20259178,-0.18871588,-0.17584842,-0.16988856,-0.16988856,-0.1689105,-0.16790193,-0.1689105,-0.17483985,-0.17979127,-0.17682654,-0.16988856,-0.16295052,-0.16096395,-0.16096395,-0.15799922,-0.1560126,-0.15206993,-0.14711857,-0.13721591,-0.12233138,-0.10946405,-0.10747737,-0.113437355,-0.119366646,-0.11145067,-0.09558803,-0.08073413,-0.0678668,-0.057964087,-0.046074748,-0.028225541,-0.010406911,0.0024603605,0.020309567,0.04210162,0.07676089,0.11637151,0.15601277,0.19363666,0.23327792,0.27288854,0.30360508,0.331357,0.35611355,0.38979483,0.42148936,0.44227278,0.44725466,0.43930817,0.42842734,0.4135735,0.37989223,0.326375,0.25705647,0.18275607,0.11441541,0.049039602,-0.013371646,-0.069853365,-0.120375276,-0.16790193,-0.21842378,-0.266959,-0.30559158,-0.3293702,-0.3402815,-0.3491755,-0.3610648,-0.37197608,-0.37295413,-0.36601615,-0.3610648,-0.3600868,-0.3591087,-0.35513544,-0.35018408,-0.35217077,-0.3610648,-0.36702472,-0.3650381,-0.35810012,-0.3541574,-0.3591087,-0.36601615,-0.36406004,-0.35314882,-0.34621084,-0.3472194,-0.35116214,-0.3561135,-0.35217077,-0.3442242,-0.33731675,-0.32542747,-0.31252956,-0.30559158,-0.3026269,-0.3095649,-0.31552482,-0.3135382,-0.30363554,-0.29669756,-0.2917462,-0.28875095,-0.28480822,-0.27490556,-0.266959,-0.26500297,-0.26399434,-0.26399434,-0.25705636,-0.25011843,-0.24914032,-0.24816233,-0.2471537,-0.2471537,-0.25011843,-0.258065,-0.266959,-0.27093226,-0.2719103,-0.2689457,-0.26796764,-0.26500297,-0.25705636,-0.251127,-0.2600516,-0.27093226,-0.27985692,-0.2778703,-0.26598096,-0.26102966,-0.26598096,-0.266959,-0.26301628,-0.25311363,-0.2461757,-0.25011843,-0.26102966,-0.26598096,-0.26598096,-0.26598096,-0.2689457,-0.27093226,-0.2689457,-0.26102966,-0.25506973,-0.25311363,-0.251127,-0.2471537,-0.2422024,-0.24418902,-0.251127,-0.25409168,-0.24816233,-0.23526442,-0.23031306,-0.23627305,-0.24816233,-0.25011843,-0.24418902,-0.2332778,-0.22637033,-0.22734839,-0.23132169,-0.23526442,-0.24021572,-0.24418902,-0.24021572,-0.23031306,-0.22637033,-0.22832644,-0.23923767,-0.2471537,-0.2422024,-0.23132169,-0.22438371,-0.22438371,-0.22832644,-0.22438371,-0.21448112,-0.20555651,-0.2045784,-0.2045784,-0.2045784,-0.19861847,-0.19168049,-0.17979127,-0.15702122,-0.124318,-0.101548016,-0.09659666,-0.10552132,-0.11047262,-0.100539446,-0.0827207,-0.0777694,-0.10353464,-0.15304792,-0.2015832,-0.24021572,-0.25607836,-0.258065,-0.24516708,-0.23132169,-0.22536176,-0.22933501,-0.23923767,-0.24914032,-0.24914032,-0.2461757,-0.2471537,-0.25311363,-0.25506973,-0.251127,-0.2461757,-0.24321097,-0.24321097,-0.24321097,-0.24122435,-0.23229975,-0.22637033,-0.19070244,-0.0678668,0.17383134,0.48983002,0.7899966,0.9435184,0.8801291,0.6007763,0.16295075,-0.29868418,-0.6701255,-0.857359,-0.835567,-0.6731207,-0.48390055,-0.35018408,-0.28379965,-0.25904304,-0.2461757,-0.23229975,-0.22337514,-0.22141898,-0.22141898,-0.21545911,-0.2015832,-0.1867292,-0.17187524,-0.16096395,-0.15900785,-0.16197252,-0.16594583,-0.16493726,-0.15799922,-0.1510613,-0.15206993,-0.15900785,-0.15900785,-0.14513189,-0.12630469,-0.113437355,-0.113437355,-0.124318,-0.12532657,-0.119366646,-0.10946405,-0.10252607,-0.09558803,-0.08369881,-0.06688869,-0.05399078,-0.049039483,-0.043110132,-0.030212224,-0.009428799,0.011384964,0.02822566,0.03910637,0.055946946,0.07676089,0.09855282,0.1223315,0.15402615,0.19464529,0.23920727,0.2768618,0.31054306,0.3432157,0.38087022,0.41950274,0.44921076,0.46705997,0.48289204,0.49875462,0.5076792,0.497746,0.46803808,0.43139207,0.38979483,0.3432157,0.28379977,0.20356989,0.11441541,0.032198906,-0.03617215,-0.09659666,-0.1441539,-0.17682654,-0.19861847,-0.21744573,-0.24021572,-0.272919,-0.3026269,-0.31946754,-0.32640553,-0.33135688,-0.33731675,-0.34226805,-0.34621084,-0.3432461,-0.34125948,-0.3402815,-0.3382948,-0.32839215,-0.32145423,-0.31946754,-0.32145423,-0.32441884,-0.3204761,-0.3135382,-0.30858684,-0.3095649,-0.3095649,-0.30164886,-0.29073763,-0.28379965,-0.2828216,-0.2867949,-0.28975958,-0.2867949,-0.28578633,-0.28578633,-0.28875095,-0.28975958,-0.28480822,-0.28083497,-0.2788483,-0.26995426,-0.25904304,-0.25409168,-0.25409168,-0.25506973,-0.25409168,-0.24418902,-0.2332778,-0.2332778,-0.24516708,-0.258065,-0.26301628,-0.2600516,-0.25607836,-0.25311363,-0.25011843,-0.24321097,-0.23923767,-0.24122435,-0.24816233,-0.25409168,-0.24816233,-0.23627305,-0.22734839,-0.23132169,-0.24122435,-0.2461757,-0.2471537,-0.2461757,-0.25311363,-0.25506973,-0.24914032,-0.23725104,-0.22734839,-0.22933501,-0.23923767,-0.2471537,-0.251127,-0.25311363,-0.258065,-0.26301628,-0.26301628,-0.25311363,-0.2422024,-0.23428637,-0.23031306,-0.23031306,-0.23229975,-0.23526442,-0.23725104,-0.23526442,-0.22536176,-0.21744573,-0.2164371,-0.22637033,-0.23526442,-0.23428637,-0.22734839,-0.22438371,-0.22832644,-0.23725104,-0.2422024,-0.24021572,-0.23725104,-0.23627305,-0.23923767,-0.23725104,-0.23031306,-0.22734839,-0.23428637,-0.24021572,-0.23825967,-0.23031306,-0.21943241,-0.2114858,-0.20952976,-0.21050781,-0.20754308,-0.20852107,-0.21347249,-0.21842378,-0.20852107,-0.19366717,-0.18278646,-0.17682654,-0.1689105,-0.15008318,-0.11838865,-0.09063673,-0.087672055,-0.101548016,-0.11145067,-0.10552132,-0.09063673,-0.07975602,-0.08965874,-0.12135327,-0.1599859,-0.19764048,-0.22933501,-0.24816233,-0.24816233,-0.23923767,-0.23132169,-0.23132169,-0.24021572,-0.251127,-0.26102966,-0.26500297,-0.26500297,-0.2600516,-0.25409168,-0.24914032,-0.2471537,-0.25011843,-0.25011843,-0.24122435,-0.23428637,-0.23428637,-0.23428637,-0.2164371,-0.13620728,0.04705298,0.30458307,0.57403314,0.76621795,0.79393935,0.6344576,0.28676438,-0.15304792,-0.56712556,-0.8444916,-0.9197702,-0.8177483,-0.6265415,-0.44428992,-0.31946754,-0.25607836,-0.23428637,-0.22637033,-0.21448112,-0.19464517,-0.17386186,-0.1639592,-0.1639592,-0.1639592,-0.15900785,-0.1510613,-0.14115858,-0.13422072,-0.1332426,-0.12630469,-0.120375276,-0.12135327,-0.13027799,-0.13620728,-0.13522929,-0.12829125,-0.119366646,-0.11047262,-0.101548016,-0.08470744,-0.069853365,-0.06490207,-0.07083142,-0.075782776,-0.0728181,-0.060928762,-0.050048053,-0.04806149,-0.044088185,-0.031220853,-0.012393534,0.0044471025,0.015358329,0.024252415,0.040115,0.061906934,0.08467698,0.1054908,0.12926936,0.16096401,0.19861853,0.23129117,0.26497245,0.30262697,0.35015368,0.40266216,0.44031668,0.45911348,0.46507335,0.47399795,0.48784328,0.49875462,0.49478126,0.4789493,0.44823277,0.41158676,0.36305165,0.30064046,0.23327792,0.167902,0.1035043,0.03516364,-0.03418553,-0.100539446,-0.15304792,-0.18871588,-0.22832644,-0.26200765,-0.28777295,-0.30559158,-0.3115515,-0.3184895,-0.33135688,-0.3432461,-0.34523278,-0.3382948,-0.33236545,-0.33037883,-0.3293702,-0.32542747,-0.3204761,-0.32344085,-0.33037883,-0.33533013,-0.32738358,-0.31252956,-0.29966223,-0.2976756,-0.3026269,-0.3046136,-0.3026269,-0.30363554,-0.3026269,-0.30363554,-0.29373288,-0.27689224,-0.26500297,-0.26200765,-0.26301628,-0.26500297,-0.26500297,-0.26399434,-0.26796764,-0.26598096,-0.25506973,-0.24021572,-0.23229975,-0.2332778,-0.23923767,-0.2422024,-0.23923767,-0.23627305,-0.23627305,-0.23526442,-0.22637033,-0.21347249,-0.2114858,-0.21943241,-0.2332778,-0.2461757,-0.25011843,-0.24516708,-0.23923767,-0.2332778,-0.22536176,-0.21943241,-0.2204104,-0.22832644,-0.23923767,-0.2461757,-0.24816233,-0.24914032,-0.25311363,-0.25409168,-0.25311363,-0.2471537,-0.2461757,-0.24914032,-0.25311363,-0.25311363,-0.24516708,-0.23923767,-0.2422024,-0.24816233,-0.25311363,-0.24914032,-0.24321097,-0.23825967,-0.23428637,-0.23132169,-0.23031306,-0.23526442,-0.2461757,-0.25311363,-0.25311363,-0.24816233,-0.2471537,-0.251127,-0.251127,-0.24321097,-0.22933501,-0.22239709,-0.22832644,-0.23923767,-0.24321097,-0.23923767,-0.23229975,-0.22734839,-0.22141898,-0.21448112,-0.21050781,-0.21448112,-0.22337514,-0.22832644,-0.22536176,-0.21448112,-0.21050781,-0.20952976,-0.2114858,-0.2065345,-0.19366717,-0.17483985,-0.15304792,-0.13027799,-0.11640197,-0.11640197,-0.12829125,-0.13721591,-0.13125598,-0.10946405,-0.088680625,-0.09363204,-0.1292693,-0.17584842,-0.21545911,-0.23526442,-0.2422024,-0.2422024,-0.24321097,-0.23923767,-0.23229975,-0.22637033,-0.22832644,-0.23627305,-0.24516708,-0.25210506,-0.25904304,-0.26102966,-0.25705636,-0.24418902,-0.23031306,-0.22637033,-0.23229975,-0.2422024,-0.24516708,-0.2332778,-0.1867292,-0.05399078,0.18474269,0.48885202,0.7701607,0.89498305,0.8068372,0.50865734,0.06982303,-0.37295413,-0.715696,-0.8791509,-0.84348303,-0.67510736,-0.47797114,-0.33236545,-0.258065,-0.23725104,-0.22933501,-0.21943241,-0.21050781,-0.20754308,-0.20754308,-0.20356977,-0.19268906,-0.18376446,-0.17682654,-0.17682654,-0.17682654,-0.17584842,-0.17285323,-0.17187524,-0.16790193,-0.1599859,-0.15405649,-0.1560126,-0.1639592,-0.16692382,-0.1599859,-0.14910519,-0.14314532,-0.14513189,-0.14910519,-0.14809662,-0.14018059,-0.13125598,-0.12630469,-0.12233138,-0.11145067,-0.09659666,-0.07975602,-0.068844795,-0.056955457,-0.042101443,-0.024282813,-0.012393534,0.0054250956,0.026239038,0.05992031,0.100539565,0.13519883,0.15799928,0.18474269,0.21741533,0.25705647,0.29272425,0.3234104,0.34718895,0.37591887,0.40960014,0.4343568,0.4432814,0.44624615,0.4432814,0.44031668,0.42741883,0.3977108,0.3511623,0.2966671,0.23725116,0.16591537,0.08865023,0.022265792,-0.03418553,-0.08073413,-0.12333995,-0.17285323,-0.22337514,-0.2600516,-0.28480822,-0.3046136,-0.3204761,-0.33236545,-0.33236545,-0.3293702,-0.33135688,-0.3402815,-0.3491755,-0.35116214,-0.3442242,-0.33533013,-0.33533013,-0.33236545,-0.32441884,-0.31451625,-0.3075782,-0.31054294,-0.31946754,-0.3184895,-0.30858684,-0.29966223,-0.29669756,-0.30064029,-0.3066002,-0.3115515,-0.3095649,-0.30858684,-0.30164886,-0.28480822,-0.26598096,-0.258065,-0.26102966,-0.26995426,-0.2719103,-0.26500297,-0.25506973,-0.2471537,-0.24321097,-0.23825967,-0.23526442,-0.23923767,-0.24816233,-0.2600516,-0.25904304,-0.2422024,-0.22337514,-0.20852107,-0.20356977,-0.20754308,-0.21249437,-0.2204104,-0.22734839,-0.22933501,-0.22337514,-0.21943241,-0.2204104,-0.22832644,-0.23627305,-0.24021572,-0.23627305,-0.22734839,-0.22734839,-0.22438371,-0.22239709,-0.21842378,-0.21842378,-0.22239709,-0.22734839,-0.23229975,-0.23132169,-0.22438371,-0.21943241,-0.21050781,-0.20259178,-0.1956538,-0.19663185,-0.2065345,-0.21842378,-0.22637033,-0.23031306,-0.22832644,-0.22637033,-0.22438371,-0.21842378,-0.21545911,-0.21448112,-0.21943241,-0.22141898,-0.21545911,-0.20754308,-0.2015832,-0.2045784,-0.21347249,-0.21943241,-0.22141898,-0.21943241,-0.21744573,-0.21249437,-0.2065345,-0.20555651,-0.21347249,-0.22536176,-0.23031306,-0.22637033,-0.21448112,-0.20952976,-0.21249437,-0.21842378,-0.21744573,-0.20852107,-0.20356977,-0.20555651,-0.20952976,-0.20754308,-0.19861847,-0.19070244,-0.18871588,-0.19070244,-0.18969387,-0.18474257,-0.18079984,-0.18474257,-0.18278646,-0.16197252,-0.12233138,-0.08568543,-0.068844795,-0.075782776,-0.08965874,-0.0916453,-0.08568543,-0.07874739,-0.08568543,-0.11542398,-0.1550346,-0.1956538,-0.22734839,-0.23825967,-0.23428637,-0.22438371,-0.21842378,-0.22337514,-0.23229975,-0.23923767,-0.24418902,-0.24914032,-0.251127,-0.24914032,-0.24021572,-0.23132169,-0.22734839,-0.23132169,-0.23825967,-0.23031306,-0.21448112,-0.20259178,-0.2006051,-0.18969387,-0.11640197,0.07773888,0.3699895,0.6889528,0.9147885,0.94947827,0.76719606,0.38285685,-0.09262341,-0.52155507,-0.7929612,-0.850421,-0.73058057,-0.5403824,-0.37692744,-0.2778703,-0.23627305,-0.22734839,-0.22637033,-0.21943241,-0.20555651,-0.18871588,-0.17979127,-0.17682654,-0.17584842,-0.17187524,-0.1639592,-0.15900785,-0.16295052,-0.16790193,-0.17089713,-0.17187524,-0.1639592,-0.15702122,-0.14910519,-0.13620728,-0.12731326,-0.12630469,-0.13226455,-0.13721591,-0.13522929,-0.12630469,-0.12135327,-0.120375276,-0.12135327,-0.119366646,-0.112428665,-0.10451263,-0.094610035,-0.08470744,-0.07083142,-0.05399078,-0.042101443,-0.03617215,-0.02923417,-0.009428799,0.017314434,0.045066237,0.07180965,0.100539565,0.13519883,0.17184472,0.20256126,0.23327792,0.26399446,0.30458307,0.34917557,0.38383496,0.40663552,0.4244542,0.44526803,0.46605134,0.47497606,0.4690466,0.45021927,0.42246747,0.3788836,0.32441902,0.25604784,0.18672931,0.1322341,0.07874751,0.018323064,-0.04806149,-0.11145067,-0.1599859,-0.19070244,-0.2204104,-0.258065,-0.29272425,-0.31748092,-0.32640553,-0.3293702,-0.33533013,-0.33927286,-0.3382948,-0.33630818,-0.33731675,-0.34819746,-0.3591087,-0.3591087,-0.34819746,-0.33731675,-0.3343215,-0.34226805,-0.35116214,-0.3472194,-0.33731675,-0.32344085,-0.31054294,-0.30164886,-0.29966223,-0.3066002,-0.31552482,-0.3204761,-0.31252956,-0.29868418,-0.2867949,-0.28480822,-0.2867949,-0.28777295,-0.27985692,-0.2719103,-0.2719103,-0.27689224,-0.27985692,-0.27490556,-0.266959,-0.26301628,-0.25904304,-0.258065,-0.26102966,-0.26200765,-0.26598096,-0.26500297,-0.25311363,-0.2332778,-0.22438371,-0.22933501,-0.24122435,-0.25210506,-0.25506973,-0.25311363,-0.25409168,-0.258065,-0.2600516,-0.25506973,-0.251127,-0.25011843,-0.25210506,-0.25311363,-0.25011843,-0.25011843,-0.25011843,-0.25011843,-0.2471537,-0.23526442,-0.22832644,-0.22832644,-0.23031306,-0.22832644,-0.22438371,-0.22536176,-0.23428637,-0.24816233,-0.251127,-0.24516708,-0.23825967,-0.23627305,-0.2422024,-0.2471537,-0.2471537,-0.2422024,-0.24021572,-0.2422024,-0.23923767,-0.23031306,-0.22734839,-0.23132169,-0.24321097,-0.25506973,-0.25506973,-0.251127,-0.24816233,-0.25011843,-0.25409168,-0.25506973,-0.25011843,-0.24914032,-0.2422024,-0.23229975,-0.21943241,-0.20952976,-0.20754308,-0.21448112,-0.22337514,-0.22832644,-0.22933501,-0.2332778,-0.23627305,-0.23229975,-0.22438371,-0.21842378,-0.21943241,-0.22141898,-0.21842378,-0.21050781,-0.2045784,-0.20754308,-0.21347249,-0.21347249,-0.2065345,-0.19464517,-0.18575114,-0.17285323,-0.14809662,-0.120375276,-0.10451263,-0.106499374,-0.11738008,-0.11640197,-0.09757471,-0.07874739,-0.076791406,-0.10451263,-0.14711857,-0.18969387,-0.22637033,-0.2461757,-0.251127,-0.2461757,-0.23627305,-0.2332778,-0.23725104,-0.24122435,-0.23923767,-0.23031306,-0.22933501,-0.23923767,-0.25311363,-0.25904304,-0.25904304,-0.25607836,-0.24914032,-0.2461757,-0.23428637,-0.2164371,-0.20555651,-0.19366717,-0.13917202,0.0074118376,0.23327792,0.48784328,0.6849797,0.73055005,0.60276306,0.3065697,-0.09956133,-0.5056925,-0.81178844,-0.9296728,-0.85833704,-0.68005866,-0.4878738,-0.35018408,-0.27490556,-0.24021572,-0.22637033,-0.2164371,-0.20952976,-0.2006051,-0.19663185,-0.19464517,-0.18969387,-0.17682654,-0.1550346,-0.13422072,-0.1292693,-0.14314532,-0.15799922,-0.16295052,-0.15405649,-0.14610994,-0.14513189,-0.15304792,-0.15799922,-0.1560126,-0.15405649,-0.15304792,-0.1510613,-0.14216721,-0.12829125,-0.11738008,-0.112428665,-0.11145067,-0.10451263,-0.09262341,-0.0827207,-0.08073413,-0.0777694,-0.068844795,-0.05499935,-0.03516358,-0.017344892,0.0024603605,0.02721703,0.055946946,0.07874751,0.09558809,0.11044216,0.13620734,0.17086673,0.20949924,0.24614513,0.28181314,0.32044566,0.35907817,0.38979483,0.40862215,0.4155295,0.42644083,0.43930817,0.44526803,0.43930817,0.41653812,0.37989223,0.33034837,0.27090192,0.19663191,0.11637151,0.049039602,-0.004477501,-0.04806149,-0.088680625,-0.13620728,-0.18773776,-0.23627305,-0.27588362,-0.3066002,-0.32441884,-0.3343215,-0.3402815,-0.35018408,-0.3610648,-0.37099802,-0.37197608,-0.36601615,-0.3610648,-0.3600868,-0.36207342,-0.36305147,-0.3610648,-0.36406004,-0.36406004,-0.36406004,-0.35217077,-0.33533013,-0.3293702,-0.33334345,-0.3432461,-0.34819746,-0.3382948,-0.32344085,-0.31252956,-0.3066002,-0.30164886,-0.29868418,-0.29868418,-0.29868418,-0.2976756,-0.2917462,-0.28578633,-0.28379965,-0.28480822,-0.28379965,-0.26995426,-0.25506973,-0.251127,-0.25705636,-0.27093226,-0.272919,-0.26399434,-0.25210506,-0.24816233,-0.24914032,-0.25409168,-0.25705636,-0.26102966,-0.26796764,-0.26796764,-0.26102966,-0.24914032,-0.2422024,-0.24914032,-0.2600516,-0.26598096,-0.26200765,-0.25705636,-0.2600516,-0.26500297,-0.26598096,-0.25904304,-0.25311363,-0.25506973,-0.26399434,-0.272919,-0.27689224,-0.2689457,-0.26102966,-0.25506973,-0.251127,-0.24816233,-0.25409168,-0.2600516,-0.2600516,-0.26200765,-0.26200765,-0.2600516,-0.26102966,-0.258065,-0.2461757,-0.23526442,-0.2332778,-0.24122435,-0.25607836,-0.26500297,-0.26102966,-0.25210506,-0.24321097,-0.23825967,-0.23627305,-0.23923767,-0.2471537,-0.25705636,-0.26102966,-0.25607836,-0.24816233,-0.2422024,-0.24816233,-0.25607836,-0.25904304,-0.25409168,-0.25011843,-0.24516708,-0.23725104,-0.22637033,-0.21545911,-0.2114858,-0.2164371,-0.22438371,-0.2204104,-0.19861847,-0.17386186,-0.1510613,-0.14513189,-0.1510613,-0.15206993,-0.15008318,-0.14314532,-0.1381939,-0.14216721,-0.17089713,-0.21249437,-0.25607836,-0.2917462,-0.30164886,-0.29471093,-0.2867949,-0.28480822,-0.29272425,-0.29373288,-0.29272425,-0.29373288,-0.30064029,-0.31252956,-0.32243228,-0.32344085,-0.32243228,-0.32145423,-0.31650287,-0.3095649,-0.30363554,-0.30363554,-0.3095649,-0.31451625,-0.28875095,-0.18969387,0.014349699,0.29963183,0.60178494,0.8078152,0.8256339,0.623577,0.22138858,-0.25210506,-0.6592448,-0.8969696,-0.9286948,-0.7959564,-0.60474956,-0.4413252,-0.3402815,-0.30164886,-0.29669756,-0.29868418,-0.29073763,-0.272919,-0.258065,-0.251127,-0.24816233,-0.2422024,-0.2332778,-0.22239709,-0.2164371,-0.21249437,-0.20754308,-0.20356977,-0.2015832,-0.20356977,-0.20259178,-0.19663185,-0.1867292,-0.18079984,-0.18278646,-0.18575114,-0.18079984,-0.17386186,-0.16594583,-0.1639592,-0.1599859,-0.14910519,-0.13125598,-0.11542398,-0.10946405,-0.10946405,-0.10451263,-0.094610035,-0.081742704,-0.07480472,-0.0638935,-0.046074748,-0.021318138,0.0044471025,0.024252415,0.048030972,0.07773888,0.11441541,0.14510143,0.17581809,0.20852125,0.2510966,0.30262697,0.34621096,0.37194562,0.38979483,0.40663552,0.42842734,0.4442594,0.44823277,0.43732142,0.41852474,0.39178157,0.3511623,0.29468048,0.22731793,0.16096401,0.099530816,0.03910637,-0.025260866,-0.09063673,-0.14216721,-0.17979127,-0.21050781,-0.2332778,-0.25607836,-0.27689224,-0.29272425,-0.31054294,-0.33334345,-0.35018408,-0.35513544,-0.3491755,-0.3442242,-0.34523278,-0.35314882,-0.3561135,-0.35018408,-0.3432461,-0.33927286,-0.33731675,-0.33334345,-0.32542747,-0.32344085,-0.32738358,-0.33334345,-0.33533013,-0.32542747,-0.31054294,-0.3066002,-0.3075782,-0.3095649,-0.3115515,-0.3115515,-0.3115515,-0.3115515,-0.3075782,-0.30164886,-0.30164886,-0.30858684,-0.31252956,-0.30559158,-0.28975958,-0.2719103,-0.26598096,-0.2689457,-0.2719103,-0.26995426,-0.26598096,-0.26500297,-0.26399434,-0.26102966,-0.25011843,-0.24321097,-0.23923767,-0.24321097,-0.2471537,-0.24914032,-0.25210506,-0.26200765,-0.273897,-0.28083497,-0.28083497,-0.27985692,-0.27985692,-0.2788483,-0.266959,-0.251127,-0.2422024,-0.24418902,-0.25705636,-0.2689457,-0.26995426,-0.26796764,-0.26995426,-0.26995426,-0.26200765,-0.24914032,-0.23923767,-0.24021572,-0.24914032,-0.25607836,-0.258065,-0.25607836,-0.258065,-0.2600516,-0.25506973,-0.24816233,-0.24516708,-0.251127,-0.26102966,-0.2689457,-0.26399434,-0.25607836,-0.25011843,-0.2461757,-0.24914032,-0.25506973,-0.2600516,-0.26301628,-0.26301628,-0.25607836,-0.2422024,-0.23825967,-0.2422024,-0.24914032,-0.25409168,-0.25011843,-0.2422024,-0.24122435,-0.24418902,-0.24914032,-0.24914032,-0.24516708,-0.2422024,-0.24021572,-0.23526442,-0.22832644,-0.2204104,-0.21545911,-0.20754308,-0.18278646,-0.14809662,-0.12532657,-0.12333995,-0.13422072,-0.14115858,-0.13125598,-0.11047262,-0.100539446,-0.112428665,-0.1510613,-0.19366717,-0.23627305,-0.27093226,-0.28379965,-0.2788483,-0.266959,-0.26102966,-0.26500297,-0.272919,-0.2788483,-0.272919,-0.266959,-0.26796764,-0.2719103,-0.27689224,-0.27985692,-0.2818436,-0.28480822,-0.28777295,-0.27985692,-0.26500297,-0.251127,-0.2422024,-0.22438371,-0.15008318,0.029203773,0.2956891,0.5789844,0.78305864,0.8167398,0.65527165,0.30161846,-0.15206993,-0.5810015,-0.8712349,-0.95345145,-0.84944296,-0.6542934,-0.46806848,-0.3432461,-0.27588362,-0.25311363,-0.24914032,-0.24418902,-0.23229975,-0.21842378,-0.20852107,-0.20356977,-0.2015832,-0.1956538,-0.18575114,-0.17187524,-0.16493726,-0.15799922,-0.1510613,-0.14910519,-0.15206993,-0.16295052,-0.17187524,-0.16790193,-0.15900785,-0.1510613,-0.15206993,-0.16096395,-0.1639592,-0.1599859,-0.15206993,-0.14314532,-0.13027799,-0.11542398,-0.09956133,-0.09363204,-0.09757471,-0.101548016,-0.094610035,-0.075782776,-0.049039483,-0.028225541,-0.012393534,0.0054250956,0.02128768,0.037150383,0.050995708,0.067836285,0.0965662,0.13718545,0.18076932,0.22236657,0.2590431,0.29171574,0.325397,0.3511623,0.36601627,0.37591887,0.39474618,0.41852474,0.43732142,0.44031668,0.42246747,0.38582158,0.34718895,0.29370236,0.23129117,0.16591537,0.099530816,0.032198906,-0.032198846,-0.09956133,-0.15799922,-0.2015832,-0.23132169,-0.25705636,-0.28975958,-0.3204761,-0.34226805,-0.35712212,-0.36702472,-0.38090068,-0.38979477,-0.38683003,-0.3739627,-0.36406004,-0.3650381,-0.37494075,-0.38187873,-0.37790543,-0.3699894,-0.36406004,-0.3600868,-0.34819746,-0.33731675,-0.33334345,-0.3402815,-0.35314882,-0.35810012,-0.35018408,-0.33630818,-0.33236545,-0.33236545,-0.33135688,-0.32441884,-0.31650287,-0.31552482,-0.32145423,-0.32243228,-0.31252956,-0.29868418,-0.28480822,-0.28379965,-0.28083497,-0.27490556,-0.26796764,-0.2600516,-0.25506973,-0.25011843,-0.24418902,-0.24418902,-0.24914032,-0.2600516,-0.26796764,-0.26500297,-0.25705636,-0.24914032,-0.24516708,-0.24321097,-0.2422024,-0.24816233,-0.25904304,-0.2689457,-0.27093226,-0.26796764,-0.26301628,-0.266959,-0.27093226,-0.26500297,-0.25311363,-0.23627305,-0.22637033,-0.22438371,-0.22832644,-0.2332778,-0.24321097,-0.2600516,-0.27689224,-0.2778703,-0.27093226,-0.25904304,-0.25506973,-0.25904304,-0.2600516,-0.25904304,-0.258065,-0.26102966,-0.26598096,-0.26399434,-0.25705636,-0.251127,-0.25311363,-0.26301628,-0.26102966,-0.25011843,-0.23725104,-0.23428637,-0.24418902,-0.25409168,-0.25705636,-0.25904304,-0.25904304,-0.2600516,-0.258065,-0.2471537,-0.23428637,-0.22933501,-0.23526442,-0.23627305,-0.23132169,-0.22239709,-0.2045784,-0.17682654,-0.14910519,-0.13027799,-0.13226455,-0.15304792,-0.1689105,-0.15799922,-0.12630469,-0.100539446,-0.10451263,-0.14711857,-0.19861847,-0.23725104,-0.25904304,-0.2600516,-0.25705636,-0.25409168,-0.25210506,-0.25705636,-0.266959,-0.2788483,-0.28578633,-0.28578633,-0.2818436,-0.28480822,-0.28875095,-0.28975958,-0.28083497,-0.2719103,-0.26598096,-0.26598096,-0.26102966,-0.2471537,-0.23132169,-0.1996271,-0.11441535,0.06982303,0.33432162,0.6086924,0.78700125,0.77908516,0.5789844,0.20852125,-0.22832644,-0.62061214,-0.8692483,-0.9148188,-0.78999645,-0.59386885,-0.42647123,-0.32839215,-0.2867949,-0.2689457,-0.25210506,-0.23627305,-0.21943241,-0.20356977,-0.19168049,-0.18278646,-0.18575114,-0.19764048,-0.20555651,-0.19861847,-0.1867292,-0.17285323,-0.16594583,-0.16295052,-0.15900785,-0.15702122,-0.15900785,-0.1599859,-0.15900785,-0.15405649,-0.14910519,-0.14809662,-0.14610994,-0.13522929,-0.120375276,-0.11145067,-0.10747737,-0.113437355,-0.10946405,-0.101548016,-0.09262341,-0.08369881,-0.07975602,-0.06688869,-0.049039483,-0.030212224,-0.012393534,0.0044471025,0.026239038,0.050017595,0.07083154,0.08865023,0.10845554,0.14213681,0.18868542,0.23624253,0.27090192,0.30161846,0.33432162,0.36898088,0.3986889,0.42246747,0.43536544,0.4442594,0.454162,0.45318413,0.43139207,0.3957243,0.3521403,0.29963183,0.23526454,0.16096401,0.081712246,0.012363076,-0.045066178,-0.09558803,-0.14314532,-0.18969387,-0.23031306,-0.26200765,-0.2917462,-0.31748092,-0.33630818,-0.34621084,-0.35116214,-0.35712212,-0.3690114,-0.37494075,-0.3739627,-0.3591087,-0.34226805,-0.33731675,-0.33927286,-0.34125948,-0.3402815,-0.33927286,-0.3402815,-0.3432461,-0.33927286,-0.32839215,-0.32145423,-0.31451625,-0.31552482,-0.31552482,-0.31054294,-0.3075782,-0.3115515,-0.31946754,-0.32145423,-0.31650287,-0.31054294,-0.3075782,-0.3075782,-0.3046136,-0.29669756,-0.28975958,-0.27985692,-0.27093226,-0.25705636,-0.2422024,-0.23725104,-0.24418902,-0.25607836,-0.26301628,-0.25904304,-0.25506973,-0.25607836,-0.2600516,-0.26102966,-0.2600516,-0.258065,-0.25506973,-0.25311363,-0.24418902,-0.23428637,-0.2332778,-0.24321097,-0.25607836,-0.26102966,-0.24914032,-0.23725104,-0.22933501,-0.23132169,-0.23825967,-0.2422024,-0.2461757,-0.24914032,-0.251127,-0.2471537,-0.23825967,-0.23526442,-0.23825967,-0.24418902,-0.24418902,-0.24021572,-0.23627305,-0.23725104,-0.24021572,-0.23725104,-0.23132169,-0.22832644,-0.23428637,-0.24321097,-0.2461757,-0.24418902,-0.24321097,-0.251127,-0.26200765,-0.26301628,-0.25705636,-0.25210506,-0.25506973,-0.25705636,-0.25409168,-0.2422024,-0.23031306,-0.22832644,-0.23923767,-0.24321097,-0.24122435,-0.23825967,-0.2422024,-0.24816233,-0.2471537,-0.23825967,-0.22536176,-0.2204104,-0.21744573,-0.2164371,-0.21249437,-0.20754308,-0.20952976,-0.2114858,-0.2114858,-0.20259178,-0.18278646,-0.1560126,-0.124318,-0.09558803,-0.08470744,-0.09558803,-0.10848594,-0.11047262,-0.09659666,-0.076791406,-0.0777694,-0.10848594,-0.15405649,-0.1996271,-0.22933501,-0.2461757,-0.25210506,-0.25409168,-0.25011843,-0.2422024,-0.23825967,-0.24516708,-0.25607836,-0.26500297,-0.26500297,-0.26102966,-0.25311363,-0.24418902,-0.23428637,-0.22536176,-0.22239709,-0.23031306,-0.24516708,-0.24914032,-0.2422024,-0.21347249,-0.12829125,0.060898304,0.34621096,0.66716087,0.9068724,0.953421,0.77511203,0.39178157,-0.0827207,-0.5146171,-0.7979125,-0.8682703,-0.7513639,-0.550285,-0.37692744,-0.2828216,-0.25409168,-0.25506973,-0.25607836,-0.2461757,-0.23725104,-0.22933501,-0.21249437,-0.1956538,-0.18474257,-0.1867292,-0.1956538,-0.1956538,-0.18376446,-0.16988856,-0.16790193,-0.17584842,-0.1867292,-0.18773776,-0.18474257,-0.18177783,-0.18079984,-0.17682654,-0.16493726,-0.15008318,-0.13917202,-0.1332426,-0.13226455,-0.13125598,-0.12731326,-0.120375276,-0.11047262,-0.09659666,-0.08470744,-0.076791406,-0.07480472,-0.07083142,-0.05995077,-0.04011488,-0.017344892,0.0034689903,0.022265792,0.040115,0.062885046,0.086663604,0.111420155,0.13917208,0.17979133,0.23226929,0.28379977,0.326375,0.35611355,0.38087022,0.40761352,0.43237007,0.4511974,0.46507335,0.47497606,0.48289204,0.47399795,0.43833005,0.38383496,0.3234104,0.26099932,0.19663191,0.13422084,0.068844914,0.011384964,-0.039136827,-0.09262341,-0.14809662,-0.19861847,-0.23825967,-0.26399434,-0.28578633,-0.3075782,-0.32542747,-0.33135688,-0.33135688,-0.33334345,-0.33731675,-0.33927286,-0.33037883,-0.31451625,-0.3046136,-0.3066002,-0.31946754,-0.32839215,-0.32542747,-0.31650287,-0.3135382,-0.31252956,-0.3095649,-0.3095649,-0.3066002,-0.30858684,-0.3115515,-0.30858684,-0.30164886,-0.29669756,-0.29669756,-0.2976756,-0.29471093,-0.28480822,-0.27588362,-0.2778703,-0.28480822,-0.28975958,-0.28975958,-0.28875095,-0.28578633,-0.2788483,-0.2689457,-0.25311363,-0.24816233,-0.251127,-0.258065,-0.258065,-0.251127,-0.2422024,-0.23923767,-0.23923767,-0.23627305,-0.23132169,-0.23132169,-0.24021572,-0.25311363,-0.25904304,-0.25506973,-0.25210506,-0.251127,-0.25011843,-0.2461757,-0.23825967,-0.23132169,-0.23132169,-0.23825967,-0.23725104,-0.23031306,-0.22734839,-0.23428637,-0.2422024,-0.24816233,-0.2471537,-0.24021572,-0.24122435,-0.2461757,-0.2471537,-0.24021572,-0.23428637,-0.23229975,-0.23825967,-0.2422024,-0.23825967,-0.23428637,-0.23526442,-0.24021572,-0.24021572,-0.2332778,-0.22637033,-0.22337514,-0.23229975,-0.24122435,-0.2422024,-0.23526442,-0.22933501,-0.22536176,-0.22141898,-0.2164371,-0.21545911,-0.21545911,-0.21744573,-0.21943241,-0.21545911,-0.21249437,-0.21050781,-0.20555651,-0.19764048,-0.18969387,-0.18575114,-0.18773776,-0.19366717,-0.19764048,-0.19168049,-0.17483985,-0.14809662,-0.12333995,-0.09956133,-0.09558803,-0.101548016,-0.11047262,-0.113437355,-0.10552132,-0.09363204,-0.10353464,-0.13620728,-0.17979127,-0.21744573,-0.23725104,-0.2422024,-0.24122435,-0.24321097,-0.24021572,-0.23229975,-0.22734839,-0.2332778,-0.24816233,-0.26102966,-0.26796764,-0.26500297,-0.258065,-0.25011843,-0.24021572,-0.22933501,-0.22438371,-0.22734839,-0.23526442,-0.23526442,-0.22734839,-0.19464517,-0.09956133,0.08962822,0.35015368,0.617617,0.78305864,0.7602581,0.5423386,0.16392875,-0.26796764,-0.64041746,-0.86726165,-0.8969696,-0.7701912,-0.5720769,-0.39279002,-0.2828216,-0.23725104,-0.22239709,-0.2164371,-0.20852107,-0.2006051,-0.19764048,-0.19366717,-0.18575114,-0.17881316,-0.17584842,-0.18079984,-0.18278646,-0.17682654,-0.1689105,-0.16295052,-0.16493726,-0.1639592,-0.1599859,-0.15702122,-0.1560126,-0.15799922,-0.1550346,-0.14711857,-0.13917202,-0.13522929,-0.1332426,-0.12233138,-0.10353464,-0.088680625,-0.08568543,-0.09262341,-0.09757471,-0.09363204,-0.07874739,-0.062915385,-0.051026165,-0.039136827,-0.028225541,-0.010406911,0.00939846,0.03317702,0.06487155,0.09757483,0.12826073,0.15799928,0.18672931,0.22041047,0.2590431,0.2966671,0.33034837,0.35907817,0.38679957,0.41751623,0.44823277,0.46605134,0.4710027,0.4720112,0.46705997,0.454162,0.42644083,0.3788836,0.3154943,0.2441585,0.17184472,0.10252619,0.037150383,-0.019331515,-0.07183999,-0.12630469,-0.18278646,-0.2332778,-0.27689224,-0.30164886,-0.31252956,-0.3184895,-0.32243228,-0.32344085,-0.32839215,-0.3382948,-0.3472194,-0.35217077,-0.35116214,-0.34819746,-0.34621084,-0.3472194,-0.35018408,-0.34621084,-0.33630818,-0.33533013,-0.3432461,-0.35712212,-0.36305147,-0.3541574,-0.33927286,-0.32542747,-0.31946754,-0.3184895,-0.31552482,-0.3115515,-0.31252956,-0.31252956,-0.30858684,-0.29966223,-0.29272425,-0.29272425,-0.2976756,-0.29669756,-0.2867949,-0.27588362,-0.26796764,-0.26598096,-0.26500297,-0.258065,-0.24816233,-0.2422024,-0.24122435,-0.2422024,-0.24418902,-0.24914032,-0.25311363,-0.25904304,-0.26102966,-0.25409168,-0.24321097,-0.23526442,-0.23031306,-0.22832644,-0.22536176,-0.22637033,-0.23132169,-0.23825967,-0.24321097,-0.24418902,-0.24321097,-0.2461757,-0.24914032,-0.2471537,-0.24122435,-0.23825967,-0.24418902,-0.25011843,-0.25311363,-0.24816233,-0.24321097,-0.2461757,-0.251127,-0.25409168,-0.24516708,-0.23627305,-0.23229975,-0.23526442,-0.23725104,-0.23132169,-0.22239709,-0.22141898,-0.22536176,-0.23428637,-0.24122435,-0.24122435,-0.24122435,-0.2422024,-0.2422024,-0.23229975,-0.2204104,-0.21448112,-0.2204104,-0.23031306,-0.24122435,-0.24516708,-0.23923767,-0.22832644,-0.21347249,-0.2006051,-0.19663185,-0.19861847,-0.1956538,-0.17386186,-0.13620728,-0.10946405,-0.10848594,-0.11640197,-0.11640197,-0.10252607,-0.086694,-0.087672055,-0.112428665,-0.15799922,-0.2006051,-0.23627305,-0.26301628,-0.27689224,-0.273897,-0.26301628,-0.25705636,-0.26102966,-0.273897,-0.28379965,-0.2867949,-0.28777295,-0.28777295,-0.28777295,-0.2867949,-0.2818436,-0.27588362,-0.272919,-0.273897,-0.26796764,-0.258065,-0.251127,-0.25011843,-0.24516708,-0.18871588,-0.02923417,0.22832656,0.5254979,0.7652093,0.8434832,0.7196388,0.3957243,-0.05301279,-0.4918471,-0.8038724,-0.9108455,-0.8286291,-0.64833355,-0.4739979,-0.35810012,-0.30064029,-0.28083497,-0.2778703,-0.26995426,-0.258065,-0.24122435,-0.22637033,-0.22141898,-0.2204104,-0.21448112,-0.21050781,-0.20754308,-0.2114858,-0.2164371,-0.21347249,-0.20356977,-0.19464517,-0.19268906,-0.19764048,-0.19764048,-0.18871588,-0.17979127,-0.17682654,-0.18079984,-0.18079984,-0.17187524,-0.15702122,-0.14711857,-0.14314532,-0.14115858,-0.13721591,-0.13125598,-0.13125598,-0.1332426,-0.13027799,-0.113437355,-0.08369881,-0.05399078,-0.031220853,-0.01636684,-0.0034689307,0.012363076,0.032198906,0.054968953,0.08467698,0.12132287,0.15799928,0.19562328,0.23129117,0.27090192,0.3135078,0.34917557,0.3709675,0.38679957,0.40168417,0.41852474,0.4343568,0.4333787,0.41653812,0.38285685,0.3422376,0.29171574,0.22930467,0.15897739,0.086663604,0.015358329,-0.05200416,-0.11441535,-0.17089713,-0.21347249,-0.2471537,-0.2778703,-0.31054294,-0.33927286,-0.3541574,-0.3610648,-0.36305147,-0.36601615,-0.37494075,-0.37790543,-0.37295413,-0.3690114,-0.36800277,-0.37295413,-0.37594932,-0.37099802,-0.36702472,-0.37197608,-0.3699894,-0.36207342,-0.3491755,-0.33533013,-0.33135688,-0.33533013,-0.33927286,-0.3343215,-0.3293702,-0.33135688,-0.33731675,-0.3402815,-0.3382948,-0.33630818,-0.33731675,-0.34226805,-0.34125948,-0.32839215,-0.3115515,-0.3066002,-0.3095649,-0.31054294,-0.3066002,-0.2976756,-0.29073763,-0.28578633,-0.2778703,-0.26399434,-0.25011843,-0.24816233,-0.25705636,-0.26598096,-0.26995426,-0.2689457,-0.2719103,-0.2818436,-0.28379965,-0.27985692,-0.272919,-0.26598096,-0.266959,-0.2719103,-0.27985692,-0.28578633,-0.2917462,-0.29471093,-0.29073763,-0.28083497,-0.273897,-0.273897,-0.2818436,-0.28875095,-0.28083497,-0.2719103,-0.26301628,-0.26102966,-0.26200765,-0.26399434,-0.26500297,-0.273897,-0.28379965,-0.28777295,-0.28379965,-0.27689224,-0.27093226,-0.27093226,-0.27093226,-0.266959,-0.26500297,-0.26796764,-0.273897,-0.272919,-0.266959,-0.26301628,-0.2600516,-0.26301628,-0.26102966,-0.25311363,-0.24516708,-0.24122435,-0.24516708,-0.24914032,-0.24914032,-0.24816233,-0.24914032,-0.251127,-0.2471537,-0.24021572,-0.23229975,-0.22832644,-0.22832644,-0.22637033,-0.22141898,-0.20754308,-0.18969387,-0.16790193,-0.14314532,-0.12532657,-0.124318,-0.1332426,-0.13620728,-0.12630469,-0.11047262,-0.10946405,-0.1332426,-0.17979127,-0.22239709,-0.2471537,-0.25607836,-0.2600516,-0.26500297,-0.266959,-0.2689457,-0.26995426,-0.26995426,-0.27588362,-0.2818436,-0.2828216,-0.2828216,-0.28480822,-0.28480822,-0.28083497,-0.2719103,-0.266959,-0.26796764,-0.2719103,-0.27490556,-0.27093226,-0.26598096,-0.258065,-0.21050781,-0.060928762,0.20852125,0.54035187,0.8276205,0.94153154,0.83159375,0.4997326,0.030212283,-0.43337864,-0.7721778,-0.89895624,-0.8197045,-0.6265415,-0.44230324,-0.32839215,-0.2828216,-0.26796764,-0.26301628,-0.25409168,-0.24321097,-0.23526442,-0.23031306,-0.22832644,-0.22734839,-0.22438371,-0.2164371,-0.2065345,-0.2015832,-0.2045784,-0.2045784,-0.19764048,-0.18575114,-0.17881316,-0.18278646,-0.18871588,-0.1867292,-0.17682654,-0.1689105,-0.16790193,-0.16988856,-0.16594583,-0.1550346,-0.14314532,-0.13721591,-0.14018059,-0.14018059,-0.13027799,-0.11441535,-0.100539446,-0.09063673,-0.08073413,-0.068844795,-0.057964087,-0.045066178,-0.027247548,-0.002490878,0.032198906,0.07083154,0.100539565,0.12728274,0.15897739,0.19363666,0.22930467,0.26200783,0.28875113,0.31946766,0.35412693,0.38582158,0.40663552,0.42246747,0.4412948,0.460122,0.4710027,0.4581355,0.41852474,0.36699426,0.31152117,0.2530831,0.18572068,0.10845554,0.032198906,-0.032198846,-0.087672055,-0.14115858,-0.18871588,-0.22734839,-0.2600516,-0.28777295,-0.3184895,-0.35018408,-0.36702472,-0.37197608,-0.3650381,-0.3591087,-0.36207342,-0.36207342,-0.3610648,-0.3600868,-0.3610648,-0.36702472,-0.3699894,-0.36406004,-0.35712212,-0.35513544,-0.35712212,-0.35712212,-0.35314882,-0.34523278,-0.34125948,-0.34621084,-0.35116214,-0.35314882,-0.35018408,-0.3472194,-0.3432461,-0.33630818,-0.32542747,-0.31650287,-0.31552482,-0.32344085,-0.33135688,-0.33135688,-0.32640553,-0.3184895,-0.30858684,-0.29868418,-0.28875095,-0.2828216,-0.2828216,-0.28578633,-0.29073763,-0.28379965,-0.27093226,-0.26200765,-0.258065,-0.25607836,-0.258065,-0.26200765,-0.26598096,-0.2689457,-0.266959,-0.26200765,-0.26200765,-0.26995426,-0.2867949,-0.29568893,-0.29272425,-0.2778703,-0.26301628,-0.25607836,-0.24914032,-0.24516708,-0.24418902,-0.24914032,-0.25904304,-0.26500297,-0.26500297,-0.26301628,-0.26301628,-0.26598096,-0.26598096,-0.26399434,-0.26399434,-0.26796764,-0.27093226,-0.26796764,-0.2600516,-0.25506973,-0.258065,-0.26500297,-0.27093226,-0.26598096,-0.26102966,-0.26301628,-0.26796764,-0.26796764,-0.26102966,-0.251127,-0.25011843,-0.25607836,-0.2600516,-0.2600516,-0.25607836,-0.25607836,-0.258065,-0.25409168,-0.24321097,-0.23031306,-0.22637033,-0.22637033,-0.22438371,-0.2164371,-0.20754308,-0.20555651,-0.20852107,-0.1996271,-0.16988856,-0.1381939,-0.11640197,-0.11542398,-0.12829125,-0.13027799,-0.11838865,-0.100539446,-0.09363204,-0.10353464,-0.13522929,-0.17881316,-0.22141898,-0.25506973,-0.266959,-0.2600516,-0.24914032,-0.24816233,-0.25011843,-0.25311363,-0.24914032,-0.24418902,-0.24418902,-0.251127,-0.25607836,-0.25311363,-0.24816233,-0.2461757,-0.24418902,-0.2422024,-0.23428637,-0.22438371,-0.22141898,-0.22438371,-0.22141898,-0.19366717,-0.09363204,0.1064688,0.3699895,0.63940895,0.8058286,0.78305864,0.5562146,0.15699077,-0.28875095,-0.6651741,-0.8771643,-0.89996487,-0.7701912,-0.57800627,-0.4056573,-0.29373288,-0.2471537,-0.2461757,-0.24914032,-0.23725104,-0.21050781,-0.18278646,-0.16295052,-0.15304792,-0.14910519,-0.15008318,-0.15702122,-0.16493726,-0.16790193,-0.1639592,-0.15900785,-0.15702122,-0.1560126,-0.15206993,-0.14513189,-0.13721591,-0.13917202,-0.14513189,-0.14115858,-0.12532657,-0.10552132,-0.08965874,-0.088680625,-0.09063673,-0.088680625,-0.0827207,-0.076791406,-0.076791406,-0.07480472,-0.06688869,-0.05499935,-0.044088185,-0.03418553,-0.020309508,-0.005455613,0.014349699,0.03415501,0.05298233,0.08467698,0.1223315,0.15799928,0.18868542,0.20949924,0.24516726,0.29073775,0.34422433,0.3957243,0.4343568,0.460122,0.4769627,0.4858873,0.48191392,0.4690466,0.454162,0.44031668,0.4145515,0.36601627,0.29865372,0.22236657,0.14907467,0.08269024,0.017314434,-0.04806149,-0.10451263,-0.15206993,-0.19464517,-0.23428637,-0.272919,-0.29966223,-0.3075782,-0.3075782,-0.31252956,-0.32145423,-0.33236545,-0.3382948,-0.33731675,-0.33731675,-0.34125948,-0.3432461,-0.3442242,-0.34523278,-0.34819746,-0.35513544,-0.3541574,-0.3472194,-0.33927286,-0.33630818,-0.3402815,-0.34125948,-0.33731675,-0.3343215,-0.33236545,-0.33630818,-0.32839215,-0.31054294,-0.29272425,-0.28083497,-0.27985692,-0.2828216,-0.27985692,-0.27689224,-0.28083497,-0.28975958,-0.29373288,-0.2867949,-0.2689457,-0.25705636,-0.25311363,-0.2471537,-0.24321097,-0.23132169,-0.2204104,-0.2204104,-0.22438371,-0.22933501,-0.24122435,-0.25607836,-0.2600516,-0.24914032,-0.23229975,-0.21744573,-0.21744573,-0.23229975,-0.24321097,-0.24122435,-0.23825967,-0.23725104,-0.23825967,-0.24021572,-0.24122435,-0.24021572,-0.2471537,-0.25705636,-0.258065,-0.25409168,-0.24914032,-0.25011843,-0.25904304,-0.26598096,-0.266959,-0.26200765,-0.25904304,-0.25705636,-0.25210506,-0.2461757,-0.2422024,-0.24321097,-0.24914032,-0.25506973,-0.25311363,-0.24816233,-0.24418902,-0.2461757,-0.24516708,-0.2422024,-0.24021572,-0.2422024,-0.2471537,-0.24914032,-0.24516708,-0.24021572,-0.22734839,-0.22141898,-0.21347249,-0.20259178,-0.1956538,-0.1956538,-0.19861847,-0.2006051,-0.1996271,-0.19464517,-0.19366717,-0.18871588,-0.17285323,-0.14610994,-0.12135327,-0.11441535,-0.12532657,-0.13620728,-0.13027799,-0.10946405,-0.09558803,-0.10747737,-0.14216721,-0.18969387,-0.23526442,-0.266959,-0.27588362,-0.26500297,-0.24122435,-0.22239709,-0.22438371,-0.23825967,-0.25011843,-0.25409168,-0.25409168,-0.25409168,-0.25904304,-0.258065,-0.2471537,-0.23428637,-0.23031306,-0.2332778,-0.23229975,-0.22536176,-0.21842378,-0.22141898,-0.22832644,-0.19070244,-0.05301279,0.19464529,0.49279475,0.74937737,0.8513992,0.75729346,0.4690466,0.044057727,-0.38683003,-0.71966934,-0.8662836,-0.82269967,-0.6612314,-0.4809358,-0.35116214,-0.2818436,-0.25705636,-0.24914032,-0.23923767,-0.2204104,-0.20356977,-0.19861847,-0.20852107,-0.22536176,-0.23229975,-0.22141898,-0.2015832,-0.18376446,-0.17881316,-0.18177783,-0.18575114,-0.18575114,-0.18575114,-0.18773776,-0.18177783,-0.17483985,-0.17285323,-0.17285323,-0.17386186,-0.16988856,-0.15405649,-0.14018059,-0.13721591,-0.14216721,-0.14711857,-0.14018059,-0.1292693,-0.119366646,-0.112428665,-0.106499374,-0.09757471,-0.08073413,-0.06588012,-0.049039483,-0.02923417,-0.006433606,0.013371706,0.03415501,0.056955576,0.08962822,0.1312561,0.17086673,0.20256126,0.23226929,0.26399446,0.29963183,0.331357,0.3581003,0.38184822,0.4056269,0.42940545,0.44031668,0.42741883,0.40168417,0.3680029,0.33826435,0.30161846,0.24715388,0.17483997,0.093601584,0.014349699,-0.05499935,-0.11640197,-0.1689105,-0.21050781,-0.24516708,-0.27588362,-0.3046136,-0.33135688,-0.34621084,-0.35018408,-0.35314882,-0.36305147,-0.3739627,-0.38187873,-0.37692744,-0.36601615,-0.3610648,-0.36800277,-0.37494075,-0.37692744,-0.37197608,-0.3600868,-0.35314882,-0.34523278,-0.33533013,-0.33533013,-0.34226805,-0.3491755,-0.35116214,-0.3432461,-0.33236545,-0.33037883,-0.34125948,-0.3491755,-0.34819746,-0.33731675,-0.32344085,-0.31650287,-0.30858684,-0.3026269,-0.29868418,-0.29966223,-0.30164886,-0.29966223,-0.29073763,-0.2788483,-0.27689224,-0.27689224,-0.2719103,-0.26200765,-0.25011843,-0.24914032,-0.25705636,-0.26399434,-0.26200765,-0.258065,-0.25210506,-0.25210506,-0.251127,-0.24816233,-0.2461757,-0.2461757,-0.25210506,-0.25311363,-0.24914032,-0.2461757,-0.2471537,-0.25210506,-0.258065,-0.26102966,-0.25705636,-0.25011843,-0.2471537,-0.24321097,-0.23825967,-0.2422024,-0.25011843,-0.2600516,-0.26598096,-0.26399434,-0.258065,-0.258065,-0.26301628,-0.26200765,-0.25409168,-0.2471537,-0.23825967,-0.24321097,-0.24418902,-0.24321097,-0.24122435,-0.24418902,-0.2461757,-0.24914032,-0.24122435,-0.23229975,-0.23229975,-0.23923767,-0.2461757,-0.24516708,-0.24122435,-0.23923767,-0.2471537,-0.25311363,-0.25011843,-0.2422024,-0.23229975,-0.23229975,-0.23627305,-0.23725104,-0.23627305,-0.23428637,-0.23725104,-0.24122435,-0.24321097,-0.24418902,-0.24914032,-0.25607836,-0.25607836,-0.24914032,-0.23132169,-0.21050781,-0.19663185,-0.18969387,-0.18871588,-0.19268906,-0.19168049,-0.17780453,-0.1441539,-0.10252607,-0.08073413,-0.08568543,-0.106499374,-0.119366646,-0.11145067,-0.0916453,-0.088680625,-0.113437355,-0.15702122,-0.19861847,-0.23031306,-0.2461757,-0.25011843,-0.2471537,-0.23923767,-0.23428637,-0.23725104,-0.24516708,-0.251127,-0.251127,-0.2461757,-0.24516708,-0.24816233,-0.251127,-0.251127,-0.24816233,-0.25210506,-0.25607836,-0.25607836,-0.2471537,-0.23132169,-0.22337514,-0.20356977,-0.124318,0.07083154,0.36500764,0.6869662,0.9088589,0.9356023,0.745404,0.35314894,-0.124318,-0.55126303,-0.8108104,-0.8543943,-0.72165596,-0.52849305,-0.37197608,-0.2818436,-0.23923767,-0.22141898,-0.21448112,-0.21448112,-0.21545911,-0.21347249,-0.20754308,-0.20259178,-0.2006051,-0.18969387,-0.17285323,-0.15405649,-0.14216721,-0.14314532,-0.14513189,-0.14314532,-0.14018059,-0.14711857,-0.16096395,-0.17187524,-0.16988856,-0.15405649,-0.14115858,-0.13620728,-0.1381939,-0.1381939,-0.13422072,-0.12829125,-0.12233138,-0.112428665,-0.09757471,-0.081742704,-0.075782776,-0.0777694,-0.075782776,-0.060928762,-0.037150145,-0.01535821,-0.0034689307,0.0034689903,0.013371706,0.03516364,0.061906934,0.09161496,0.1223315,0.15500414,0.18868542,0.21643734,0.24516726,0.27884853,0.31748104,0.35412693,0.38383496,0.40266216,0.41653812,0.43139207,0.43930817,0.4343568,0.41256487,0.38679957,0.35314894,0.30757844,0.25406122,0.1877073,0.1223315,0.062885046,0.0014823675,-0.062915385,-0.12829125,-0.18773776,-0.23229975,-0.26399434,-0.29073763,-0.31451625,-0.32839215,-0.33731675,-0.34125948,-0.35116214,-0.36702472,-0.37692744,-0.37494075,-0.36305147,-0.35018408,-0.34621084,-0.3491755,-0.35116214,-0.34819746,-0.34621084,-0.3472194,-0.34621084,-0.34523278,-0.34226805,-0.3402815,-0.34226805,-0.3402815,-0.33533013,-0.3293702,-0.32243228,-0.31748092,-0.31054294,-0.2976756,-0.28975958,-0.2917462,-0.29966223,-0.30363554,-0.2976756,-0.2867949,-0.28083497,-0.2828216,-0.28379965,-0.27985692,-0.2719103,-0.26399434,-0.26500297,-0.26995426,-0.2689457,-0.26102966,-0.25506973,-0.251127,-0.2471537,-0.24122435,-0.23825967,-0.23825967,-0.24321097,-0.2471537,-0.24516708,-0.23923767,-0.23825967,-0.24516708,-0.25409168,-0.25409168,-0.25011843,-0.24418902,-0.24516708,-0.24321097,-0.23526442,-0.22438371,-0.21448112,-0.21842378,-0.22734839,-0.2332778,-0.23627305,-0.24122435,-0.24914032,-0.251127,-0.24914032,-0.2422024,-0.24122435,-0.2471537,-0.25210506,-0.2461757,-0.23428637,-0.22933501,-0.23229975,-0.23627305,-0.23725104,-0.23725104,-0.24021572,-0.24321097,-0.24122435,-0.22734839,-0.2114858,-0.2065345,-0.21347249,-0.22337514,-0.22637033,-0.22536176,-0.22337514,-0.22141898,-0.2164371,-0.20952976,-0.2065345,-0.21744573,-0.2332778,-0.23725104,-0.22832644,-0.2114858,-0.20555651,-0.21545911,-0.23132169,-0.23627305,-0.22637033,-0.21347249,-0.2065345,-0.20555651,-0.20555651,-0.20356977,-0.20259178,-0.20259178,-0.2006051,-0.19070244,-0.16295052,-0.1292693,-0.106499374,-0.100539446,-0.106499374,-0.11441535,-0.112428665,-0.10451263,-0.09858334,-0.10747737,-0.13917202,-0.18278646,-0.22239709,-0.2461757,-0.24516708,-0.23627305,-0.23627305,-0.24516708,-0.25210506,-0.2461757,-0.23132169,-0.2204104,-0.22239709,-0.22933501,-0.23428637,-0.2332778,-0.23229975,-0.24122435,-0.24516708,-0.24321097,-0.2332778,-0.22141898,-0.21347249,-0.20852107,-0.18969387,-0.12630469,0.020309567,0.24021578,0.49279475,0.69983363,0.7553067,0.624555,0.30953443,-0.10747737,-0.5076791,-0.7959564,-0.90491617,-0.8395403,-0.6651741,-0.47005516,-0.32542747,-0.251127,-0.23526442,-0.24021572,-0.22141898,-0.19168049,-0.16096395,-0.14809662,-0.15206993,-0.16096395,-0.16096395,-0.15405649,-0.14513189,-0.1332426,-0.12630469,-0.12333995,-0.12630469,-0.13721591,-0.14216721,-0.1381939,-0.12731326,-0.120375276,-0.119366646,-0.120375276,-0.11838865,-0.11145067,-0.106499374,-0.10353464,-0.09956133,-0.09363204,-0.086694,-0.08470744,-0.08568543,-0.08073413,-0.0638935,-0.043110132,-0.031220853,-0.02923417,-0.032198846,-0.018322945,0.00939846,0.043079615,0.07676089,0.10747743,0.14015007,0.17285335,0.20158327,0.22236657,0.24021578,0.2689458,0.3065697,0.34621096,0.3788836,0.4056269,0.42546284,0.44526803,0.45911348,0.46803808,0.46803808,0.4581355,0.4343568,0.3887862,0.32836175,0.26298583,0.19861853,0.13816345,0.07874751,0.014349699,-0.04705286,-0.10252607,-0.15405649,-0.20555651,-0.251127,-0.28379965,-0.3026269,-0.31054294,-0.31946754,-0.33037883,-0.33927286,-0.3432461,-0.34226805,-0.3442242,-0.3491755,-0.3561135,-0.3610648,-0.36207342,-0.3650381,-0.36702472,-0.36207342,-0.34819746,-0.3382948,-0.33533013,-0.34523278,-0.3541574,-0.3541574,-0.34621084,-0.3382948,-0.33630818,-0.33630818,-0.3293702,-0.31650287,-0.3115515,-0.31252956,-0.31451625,-0.31252956,-0.30363554,-0.28975958,-0.28083497,-0.27689224,-0.272919,-0.272919,-0.272919,-0.27490556,-0.2719103,-0.26399434,-0.25607836,-0.25210506,-0.25506973,-0.258065,-0.26200765,-0.25904304,-0.2600516,-0.26500297,-0.266959,-0.26200765,-0.25506973,-0.25011843,-0.25409168,-0.2600516,-0.26200765,-0.2600516,-0.25705636,-0.258065,-0.25506973,-0.25011843,-0.2461757,-0.24914032,-0.25705636,-0.2600516,-0.25409168,-0.24021572,-0.23428637,-0.23923767,-0.2471537,-0.25210506,-0.25011843,-0.2471537,-0.24816233,-0.251127,-0.251127,-0.25210506,-0.25506973,-0.2600516,-0.26796764,-0.26796764,-0.26102966,-0.25311363,-0.24516708,-0.24122435,-0.23923767,-0.24418902,-0.25607836,-0.272919,-0.28083497,-0.273897,-0.258065,-0.24418902,-0.24122435,-0.24816233,-0.25705636,-0.26102966,-0.26399434,-0.26796764,-0.2689457,-0.2600516,-0.2461757,-0.23428637,-0.23031306,-0.23229975,-0.23627305,-0.23031306,-0.20852107,-0.17682654,-0.14216721,-0.11738008,-0.11640197,-0.13226455,-0.14513189,-0.14216721,-0.12333995,-0.10747737,-0.119366646,-0.1639592,-0.21545911,-0.251127,-0.26500297,-0.26399434,-0.26301628,-0.26598096,-0.2689457,-0.26500297,-0.26500297,-0.27093226,-0.2828216,-0.2917462,-0.29568893,-0.28875095,-0.2778703,-0.26796764,-0.25705636,-0.251127,-0.25311363,-0.26102966,-0.266959,-0.26399434,-0.258065,-0.23725104,-0.16295052,0.014349699,0.28972912,0.5987898,0.8246559,0.85931516,0.6840013,0.3224324,-0.12630469,-0.53937376,-0.8187264,-0.89599156,-0.78703177,-0.5898956,-0.41852468,-0.31650287,-0.2788483,-0.26500297,-0.24914032,-0.23526442,-0.22832644,-0.22734839,-0.22637033,-0.2204104,-0.21545911,-0.2164371,-0.2164371,-0.21050781,-0.1996271,-0.1956538,-0.19764048,-0.1996271,-0.19764048,-0.18969387,-0.18474257,-0.18376446,-0.18079984,-0.17089713,-0.1599859,-0.15702122,-0.1639592,-0.17089713,-0.16790193,-0.1560126,-0.14610994,-0.14711857,-0.14711857,-0.14216721,-0.12630469,-0.10747737,-0.0916453,-0.07975602,-0.06588012,-0.049039483,-0.038158774,-0.033207417,-0.027247548,-0.009428799,0.020309567,0.055946946,0.09063685,0.12630475,0.16591537,0.20949924,0.2510966,0.28676438,0.3164724,0.34718895,0.37591887,0.3977108,0.40862215,0.4155295,0.41852474,0.41653812,0.40168417,0.3699895,0.32836175,0.2798264,0.22633994,0.15799928,0.07874751,0.0034689903,-0.05894208,-0.106499374,-0.15206993,-0.20555651,-0.25607836,-0.29568893,-0.3184895,-0.3293702,-0.3402815,-0.3491755,-0.3541574,-0.35712212,-0.36207342,-0.37295413,-0.38585204,-0.39080334,-0.38285673,-0.37295413,-0.3650381,-0.3610648,-0.36207342,-0.3610648,-0.36207342,-0.3650381,-0.3650381,-0.35810012,-0.3472194,-0.3402815,-0.3402815,-0.3432461,-0.34125948,-0.3343215,-0.32839215,-0.33135688,-0.3343215,-0.33334345,-0.32738358,-0.32243228,-0.32542747,-0.33037883,-0.32344085,-0.30858684,-0.29272425,-0.28083497,-0.27985692,-0.2778703,-0.27588362,-0.27490556,-0.27689224,-0.28083497,-0.2788483,-0.273897,-0.2719103,-0.273897,-0.27588362,-0.27490556,-0.266959,-0.26399434,-0.2689457,-0.2719103,-0.27093226,-0.26399434,-0.25705636,-0.25705636,-0.25607836,-0.258065,-0.25904304,-0.26399434,-0.2719103,-0.27490556,-0.27093226,-0.26200765,-0.25705636,-0.25904304,-0.26102966,-0.258065,-0.25210506,-0.251127,-0.25607836,-0.26102966,-0.26200765,-0.25607836,-0.25607836,-0.26102966,-0.26301628,-0.258065,-0.24816233,-0.23825967,-0.23526442,-0.24021572,-0.24516708,-0.2461757,-0.25311363,-0.25210506,-0.24816233,-0.23627305,-0.22239709,-0.22141898,-0.23229975,-0.2461757,-0.251127,-0.24321097,-0.23526442,-0.23229975,-0.2332778,-0.23725104,-0.23725104,-0.2422024,-0.25210506,-0.258065,-0.25210506,-0.23526442,-0.22337514,-0.21943241,-0.22141898,-0.22337514,-0.21744573,-0.21545911,-0.22141898,-0.22832644,-0.22933501,-0.22239709,-0.22141898,-0.22438371,-0.21050781,-0.17979127,-0.13721591,-0.10353464,-0.10252607,-0.120375276,-0.1292693,-0.11838865,-0.09659666,-0.08470744,-0.09659666,-0.13226455,-0.17881316,-0.22536176,-0.258065,-0.26598096,-0.25409168,-0.23428637,-0.22637033,-0.23725104,-0.25409168,-0.266959,-0.2719103,-0.273897,-0.28083497,-0.2818436,-0.27093226,-0.25506973,-0.24321097,-0.24321097,-0.25210506,-0.2600516,-0.25311363,-0.24321097,-0.23428637,-0.2204104,-0.16692382,-0.025260866,0.22236657,0.52748454,0.8048506,0.93361557,0.8523773,0.5453032,0.07972562,-0.39575464,-0.74937725,-0.8930269,-0.83159375,-0.6463774,-0.45517057,-0.32839215,-0.2689457,-0.25607836,-0.26102966,-0.258065,-0.24418902,-0.23031306,-0.22239709,-0.21842378,-0.2164371,-0.2065345,-0.19168049,-0.18278646,-0.18376446,-0.19168049,-0.19764048,-0.19464517,-0.18969387,-0.18376446,-0.18079984,-0.17979127,-0.17386186,-0.16790193,-0.16197252,-0.1560126,-0.15008318,-0.14513189,-0.1441539,-0.14610994,-0.14115858,-0.12829125,-0.11145067,-0.101548016,-0.09956133,-0.09659666,