-0.8723818,-0.87648755,-0.87979066,-0.87648755,-0.86907864,-0.8682452,-0.87401795,-0.8781237,-0.87648755,-0.8682452,-0.8649729,-0.8723818,-0.88389647,-0.89213884,-0.90118384,-0.9077901,-0.8905027,-0.798262,-0.5833732,-0.2400018,0.17248833,0.56278276,0.84107935,0.9448346,0.85095775,0.5833733,0.1996851,-0.21697253,-0.5611465,-0.78014106,-0.8789572,-0.89954776,-0.8913053,-0.8905027,-0.90859276,-0.9324865,-0.953077,-0.9580163,-0.95060736,-0.93825924,-0.9300168,-0.9324865,-0.9357896,-0.9324865,-0.92507756,-0.9201383,-0.92094094,-0.92177445,-0.9168352,-0.9077901,-0.90201735,-0.90118384,-0.8979116,-0.8888357,-0.87565404,-0.8682452,-0.86744255,-0.86744255,-0.86083627,-0.8484881,-0.8386096,-0.8336703,-0.8295646,-0.8221557,-0.81227714,-0.8081405,-0.80980754,-0.8081405,-0.799929,-0.7826107,-0.7661568,-0.75544477,-0.74556625,-0.7299149,-0.70935524,-0.6928705,-0.68135583,-0.66734064,-0.6475836,-0.62041765,-0.59488785,-0.5751308,-0.551268,-0.51832926,-0.4804513,-0.44834614,-0.42608857,-0.407165,-0.38657445,-0.36351424,-0.34706038,-0.34459066,-0.35116613,-0.36271167,-0.38327134,-0.41951317,-0.47304243,-0.5323136,-0.587479,-0.6393721,-0.69040084,-0.7439301,-0.7916866,-0.8270949,-0.85095775,-0.8723818,-0.8946085,-0.9127294,-0.92177445,-0.92424405,-0.9267137,-0.9324865,-0.93742573,-0.9349561,-0.9291833,-0.9275472,-0.93165296,-0.93412256,-0.9300168,-0.92341053,-0.92094094,-0.9275472,-0.9333199,-0.93165296,-0.92341053,-0.9193048,-0.9201383,-0.9226079,-0.9193048,-0.9110624,-0.9077901,-0.90859276,-0.9102598,-0.90612316,-0.89624465,-0.8896692,-0.89213884,-0.8946085,-0.8905027,-0.88309383,-0.87979066,-0.88309383,-0.8871996,-0.88556343,-0.8781237,-0.87318444,-0.87318444,-0.8723818,-0.8657755,-0.8583666,-0.855897,-0.86003363,-0.8649729,-0.8625033,-0.8550944,-0.85095775,-0.855897,-0.86003363,-0.857564,-0.8526248,-0.8501551,-0.8567305,-0.8633059,-0.8625033,-0.8567305,-0.8550944,-0.86083627,-0.86660904,-0.86660904,-0.86003363,-0.85426086,-0.85426086,-0.8550944,-0.8534274,-0.84685194,-0.84438235,-0.84768546,-0.85095775,-0.8501551,-0.84274626,-0.8402766,-0.84274626,-0.84685194,-0.84685194,-0.84191275,-0.8402766,-0.84438235,-0.84768546,-0.8460185,-0.8402766,-0.8361399,-0.84191275,-0.84768546,-0.8460185,-0.8386096,-0.83286774,-0.83203423,-0.8312007,-0.8270949,-0.8155494,-0.80567086,-0.8023986,-0.79579234,-0.7760353,-0.74886936,-0.72664267,-0.7175668,-0.71593064,-0.71346104,-0.7085217,-0.7085217,-0.71676415,-0.7274453,-0.7332181,-0.7307484,-0.7340516,-0.75133896,-0.77850497,-0.80320126,-0.8229583,-0.84107924,-0.857564,-0.86907864,-0.8707148,-0.86413944,-0.857564,-0.8592001,-0.8616698,-0.8583666,-0.8526248,-0.8493216,-0.8534274,-0.857564,-0.855897,-0.8501551,-0.84768546,-0.8567305,-0.86907864,-0.87732106,-0.88389647,-0.88636607,-0.8592001,-0.74886936,-0.5150261,-0.15850407,0.25238085,0.6154784,0.8386096,0.86497295,0.6928705,0.36845362,-0.03746122,-0.42361885,-0.6994767,-0.84107924,-0.8781237,-0.86660904,-0.8550944,-0.8616698,-0.8781237,-0.893775,-0.90285087,-0.9053205,-0.90201735,-0.8946085,-0.8905027,-0.8913053,-0.8913053,-0.88556343,-0.8748514,-0.86744255,-0.8657755,-0.86413944,-0.8583666,-0.85095775,-0.84685194,-0.8493216,-0.85095775,-0.84354883,-0.8303672,-0.8204887,-0.81968606,-0.81968606,-0.8163829,-0.80650437,-0.8007316,-0.8015651,-0.80320126,-0.7990955,-0.7859138,-0.7752018,-0.76862645,-0.7628536,-0.75133896,-0.73568773,-0.72417307,-0.7175668,-0.7109914,-0.6953401,-0.6722799,-0.6492506,-0.63193226,-0.6146449,-0.59161556,-0.5652523,-0.54055595,-0.52243507,-0.5018445,-0.47467852,-0.4425733,-0.41293776,-0.3906802,-0.37092316,-0.34786296,-0.3248337,-0.31248552,-0.31412166,-0.32730323,-0.34539336,-0.37175667,-0.4137404,-0.47220892,-0.53641933,-0.5965548,-0.6492506,-0.70027936,-0.75217247,-0.798262,-0.8303672,-0.85095775,-0.86660904,-0.88556343,-0.90118384,-0.90859276,-0.9094263,-0.9102598,-0.91436553,-0.9168352,-0.91436553,-0.9069566,-0.9053205,-0.9110624,-0.9168352,-0.91519904,-0.9077901,-0.90285087,-0.9069566,-0.9118959,-0.9094263,-0.9003812,-0.89213884,-0.8905027,-0.893775,-0.8946085,-0.89213884,-0.8896692,-0.8946085,-0.89624465,-0.89213884,-0.8822603,-0.87401795,-0.8723818,-0.8715483,-0.8682452,-0.8616698,-0.857564,-0.8616698,-0.86413944,-0.8592001,-0.8501551,-0.84521586,-0.8493216,-0.85426086,-0.8550944,-0.8501551,-0.8484881,-0.85426086,-0.8616698,-0.8633059,-0.8583666,-0.85426086,-0.85426086,-0.8534274,-0.84768546,-0.8386096,-0.8369734,-0.84354883,-0.8501551,-0.85179126,-0.8460185,-0.84354883,-0.84685194,-0.8501551,-0.8484881,-0.84191275,-0.8402766,-0.84521586,-0.8526248,-0.85426086,-0.8484881,-0.84274626,-0.84438235,-0.8493216,-0.8501551,-0.84521586,-0.84191275,-0.84354883,-0.84685194,-0.8460185,-0.84354883,-0.8402766,-0.84274626,-0.84354883,-0.8361399,-0.81968606,-0.8048682,-0.79745936,-0.7949897,-0.7851112,-0.76862645,-0.7538086,-0.74639976,-0.7439301,-0.7430966,-0.73982435,-0.74062693,-0.7480359,-0.75544477,-0.7562783,-0.7546421,-0.7562783,-0.77109605,-0.79579234,-0.81801903,-0.83780694,-0.8567305,-0.87732106,-0.89213884,-0.89624465,-0.89213884,-0.88556343,-0.88556343,-0.8896692,-0.8905027,-0.8871996,-0.88309383,-0.88309383,-0.88389647,-0.8822603,-0.87732106,-0.87565404,-0.88309383,-0.893775,-0.90118384,-0.9053205,-0.90859276,-0.8905027,-0.80403477,-0.60066056,-0.27213794,0.12720144,0.50845075,0.78264165,0.88309383,0.7900505,0.5241021,0.14205015,-0.2655316,-0.598191,-0.8015651,-0.88556343,-0.89544195,-0.88309383,-0.8806242,-0.8946085,-0.91436553,-0.93165296,-0.9390618,-0.93412256,-0.92177445,-0.9127294,-0.9127294,-0.9168352,-0.9168352,-0.9102598,-0.90285087,-0.90201735,-0.90118384,-0.89624465,-0.88636607,-0.8789572,-0.8789572,-0.8814268,-0.8781237,-0.8682452,-0.8583666,-0.8583666,-0.86083627,-0.8592001,-0.8526248,-0.84521586,-0.84107924,-0.8386096,-0.8312007,-0.81885254,-0.808974,-0.80320126,-0.798262,-0.78674734,-0.77109605,-0.7587479,-0.7529751,-0.7472333,-0.7332181,-0.7109914,-0.6895982,-0.67394686,-0.65829563,-0.6393721,-0.61300874,-0.58831245,-0.569358,-0.54960096,-0.5257382,-0.49773872,-0.4713754,-0.45081574,-0.42939168,-0.40386188,-0.37669593,-0.35777235,-0.35363573,-0.3618781,-0.37669593,-0.39811993,-0.43433094,-0.4878602,-0.54960096,-0.60806954,-0.6566595,-0.702749,-0.74886936,-0.7916866,-0.8254279,-0.8493216,-0.86991215,-0.89213884,-0.9118959,-0.92094094,-0.9193048,-0.9160017,-0.9193048,-0.92507756,-0.9258802,-0.92341053,-0.92341053,-0.92838067,-0.9324865,-0.9300168,-0.9201383,-0.9127294,-0.91436553,-0.9201383,-0.92177445,-0.91766864,-0.9127294,-0.913532,-0.9160017,-0.91436553,-0.90859276,-0.9036535,-0.9036535,-0.9053205,-0.90201735,-0.89213884,-0.88636607,-0.88636607,-0.8871996,-0.88389647,-0.87401795,-0.86744255,-0.8707148,-0.87648755,-0.87648755,-0.8715483,-0.86907864,-0.87318444,-0.87979066,-0.8806242,-0.8748514,-0.8723818,-0.87648755,-0.88309383,-0.88556343,-0.8814268,-0.87979066,-0.88309383,-0.8871996,-0.88636607,-0.88309383,-0.88309383,-0.8896692,-0.89624465,-0.89297235,-0.8806242,-0.86907864,-0.8657755,-0.86744255,-0.86660904,-0.8633059,-0.86413944,-0.86991215,-0.8781237,-0.8814268,-0.87648755,-0.87318444,-0.87401795,-0.8748514,-0.8715483,-0.86413944,-0.86083627,-0.86413944,-0.8682452,-0.8657755,-0.857564,-0.85095775,-0.85179126,-0.855897,-0.8550944,-0.84768546,-0.84274626,-0.84685194,-0.85426086,-0.857564,-0.8526248,-0.8484881,-0.8501551,-0.855897,-0.8583666,-0.855897,-0.8550944,-0.8592001,-0.8649729,-0.8633059,-0.8534274,-0.84107924,-0.8336703,-0.8270949,-0.8163829,-0.7990955,-0.7793384,-0.7628536,-0.7480359,-0.7332181,-0.72250605,-0.72250605,-0.7340516,-0.74886936,-0.75544477,-0.75217247,-0.7480359,-0.75217247,-0.762051,-0.7752018,-0.7925201,-0.8155494,-0.84354883,-0.86907864,-0.88309383,-0.88473,-0.88556343,-0.8896692,-0.8946085,-0.89213884,-0.88389647,-0.8789572,-0.8822603,-0.8871996,-0.8880331,-0.8814268,-0.8748514,-0.87401795,-0.87979066,-0.8871996,-0.89297235,-0.90201735,-0.9168352,-0.91766864,-0.86660904,-0.7175668,-0.4491487,-0.08111197,0.32566726,0.684659,0.91436553,0.95224357,0.79168653,0.47467864,0.0753392,-0.31906086,-0.62699306,-0.81801903,-0.89871424,-0.90612316,-0.89297235,-0.8946085,-0.91766864,-0.942365,-0.953077,-0.94977385,-0.9431985,-0.9431985,-0.9448346,-0.9415315,-0.9300168,-0.9193048,-0.9193048,-0.92341053,-0.92507756,-0.9184713,-0.9102598,-0.9053205,-0.90118384,-0.8946085,-0.88309383,-0.87648755,-0.8789572,-0.88389647,-0.8806242,-0.86907864,-0.855897,-0.8484881,-0.84438235,-0.8369734,-0.8237918,-0.8139133,-0.8114436,-0.8139133,-0.8106102,-0.799929,-0.78758085,-0.7793384,-0.7727322,-0.76121753,-0.74146044,-0.7208699,-0.7076882,-0.6970071,-0.6805223,-0.6549925,-0.6286601,-0.6055999,-0.58584285,-0.5611465,-0.5298439,-0.49937487,-0.47631466,-0.455755,-0.4326948,-0.40305918,-0.37505978,-0.35693884,-0.3462268,-0.34212112,-0.34128755,-0.35363573,-0.38493836,-0.4302252,-0.4804513,-0.5298439,-0.5817062,-0.63606894,-0.69040084,-0.7373547,-0.77356565,-0.8023986,-0.8295646,-0.8526248,-0.86744255,-0.87565404,-0.88389647,-0.89544195,-0.90612316,-0.9077901,-0.90201735,-0.89954776,-0.9036535,-0.9102598,-0.9110624,-0.9053205,-0.9003812,-0.9003812,-0.90201735,-0.8979116,-0.8880331,-0.87979066,-0.8814268,-0.88473,-0.88309383,-0.87401795,-0.86744255,-0.8682452,-0.87318444,-0.87565404,-0.8715483,-0.86744255,-0.86991215,-0.8748514,-0.87401795,-0.8657755,-0.8592001,-0.8592001,-0.86413944,-0.8649729,-0.86003363,-0.855897,-0.8592001,-0.8657755,-0.8682452,-0.86413944,-0.86003363,-0.8616698,-0.86660904,-0.86744255,-0.8633059,-0.8592001,-0.8625033,-0.8682452,-0.86907864,-0.8625033,-0.8567305,-0.8592001,-0.8649729,-0.86744255,-0.86413944,-0.86083627,-0.8625033,-0.86744255,-0.86660904,-0.8583666,-0.8526248,-0.8550944,-0.8625033,-0.8682452,-0.86744255,-0.8633059,-0.86413944,-0.86413944,-0.86083627,-0.8534274,-0.84685194,-0.8484881,-0.8534274,-0.8550944,-0.85426086,-0.8550944,-0.86083627,-0.86660904,-0.8649729,-0.8567305,-0.8493216,-0.84768546,-0.8493216,-0.8493216,-0.84354883,-0.8402766,-0.84274626,-0.84685194,-0.84521586,-0.83780694,-0.83286774,-0.8336703,-0.83780694,-0.8369734,-0.8303672,-0.8254279,-0.82789755,-0.83286774,-0.83203423,-0.8229583,-0.81227714,-0.8073379,-0.8015651,-0.7916866,-0.7752018,-0.7562783,-0.74062693,-0.72911227,-0.71676415,-0.70441604,-0.6978097,-0.7035825,-0.7150972,-0.7249757,-0.7299149,-0.7348542,-0.7439301,-0.7546421,-0.76452065,-0.7768688,-0.79579234,-0.8213222,-0.8484881,-0.86660904,-0.87318444,-0.87565404,-0.8814268,-0.88636607,-0.88473,-0.8748514,-0.86744255,-0.86744255,-0.8715483,-0.87318444,-0.86907864,-0.86660904,-0.86907864,-0.87648755,-0.88473,-0.8905027,-0.89544195,-0.9077901,-0.9102598,-0.86744255,-0.73238456,-0.47961783,-0.116520286,0.2918949,0.6615988,0.904487,0.95307696,0.799929,0.491966,0.0983994,-0.29600072,-0.6097056,-0.8081405,-0.89624465,-0.90612316,-0.8888357,-0.8880331,-0.9102598,-0.9357896,-0.94647074,-0.942365,-0.9333199,-0.93165296,-0.93412256,-0.9333199,-0.9258802,-0.9184713,-0.91766864,-0.9193048,-0.9160017,-0.90612316,-0.89624465,-0.8913053,-0.8888357,-0.88556343,-0.87732106,-0.8715483,-0.8723818,-0.8748514,-0.8715483,-0.86083627,-0.8493216,-0.84274626,-0.8402766,-0.8345038,-0.8229583,-0.81227714,-0.8081405,-0.80567086,-0.79662585,-0.7834442,-0.7694599,-0.76121753,-0.7546421,-0.74146044,-0.7200364,-0.70027936,-0.6895982,-0.68215847,-0.6706438,-0.6492506,-0.6228873,-0.5990245,-0.57843393,-0.5545402,-0.5265408,-0.5002084,-0.47878432,-0.45986074,-0.43596703,-0.40633142,-0.37752938,-0.35610533,-0.34128755,-0.3305756,-0.3248337,-0.3338787,-0.36351424,-0.40963465,-0.4631639,-0.5150261,-0.57182765,-0.6335993,-0.6953401,-0.74556625,-0.7834442,-0.8155494,-0.84685194,-0.87401795,-0.8896692,-0.89297235,-0.8946085,-0.90201735,-0.913532,-0.9184713,-0.91436553,-0.9110624,-0.913532,-0.9201383,-0.9226079,-0.9160017,-0.9102598,-0.9102598,-0.91436553,-0.9160017,-0.9110624,-0.9077901,-0.9102598,-0.91436553,-0.9118959,-0.90285087,-0.89213884,-0.8896692,-0.8913053,-0.8896692,-0.8814268,-0.87648755,-0.8789572,-0.88473,-0.8871996,-0.8822603,-0.87565404,-0.87401795,-0.87648755,-0.87732106,-0.87318444,-0.8707148,-0.8748514,-0.87979066,-0.87979066,-0.87401795,-0.8715483,-0.87648755,-0.88636607,-0.8888357,-0.8822603,-0.8748514,-0.87318444,-0.87648755,-0.87648755,-0.8723818,-0.8682452,-0.86991215,-0.8748514,-0.87401795,-0.86660904,-0.8616698,-0.86413944,-0.86991215,-0.8707148,-0.8649729,-0.8616698,-0.8657755,-0.8748514,-0.87979066,-0.87565404,-0.86907864,-0.86744255,-0.8707148,-0.8715483,-0.8657755,-0.86003363,-0.86003363,-0.8633059,-0.86413944,-0.8583666,-0.8534274,-0.8534274,-0.857564,-0.86003363,-0.855897,-0.8534274,-0.857564,-0.86413944,-0.86660904,-0.8625033,-0.8567305,-0.855897,-0.857564,-0.8567305,-0.8526248,-0.8493216,-0.85095775,-0.85179126,-0.84768546,-0.8369734,-0.82789755,-0.82789755,-0.8303672,-0.8254279,-0.8106102,-0.7925201,-0.7818081,-0.7727322,-0.7562783,-0.7315819,-0.7060521,-0.69123435,-0.69123435,-0.6978097,-0.7019464,-0.7060521,-0.7118249,-0.7200364,-0.7249757,-0.72664267,-0.7315819,-0.7472333,-0.7727322,-0.79662585,-0.8155494,-0.8336703,-0.8501551,-0.86413944,-0.8723818,-0.8682452,-0.8616698,-0.86003363,-0.86083627,-0.86003363,-0.855897,-0.8526248,-0.855897,-0.86083627,-0.8592001,-0.85095775,-0.84685194,-0.8550944,-0.86991215,-0.8822603,-0.88556343,-0.8649729,-0.7908531,-0.6146449,-0.31248552,0.08768737,0.49690533,0.8131107,0.9629556,0.9176687,0.69700706,0.3454243,-0.07039994,-0.45161837,-0.71676415,-0.84768546,-0.8781237,-0.86907864,-0.86660904,-0.87979066,-0.893775,-0.90285087,-0.9077901,-0.9127294,-0.9118959,-0.904487,-0.89871424,-0.89871424,-0.9036535,-0.9036535,-0.89624465,-0.8888357,-0.8880331,-0.89297235,-0.893775,-0.8880331,-0.87979066,-0.87648755,-0.87732106,-0.8723818,-0.8616698,-0.85179126,-0.84768546,-0.8493216,-0.84685194,-0.8345038,-0.8229583,-0.8155494,-0.8139133,-0.808974,-0.7990955,-0.78758085,-0.7793384,-0.7752018,-0.7661568,-0.7497029,-0.7348542,-0.72250605,-0.71262753,-0.6986432,-0.67558306,-0.6541898,-0.6377051,-0.6253569,-0.6064334,-0.5776004,-0.5454953,-0.51832926,-0.4969052,-0.473845,-0.4458456,-0.41951317,-0.39892262,-0.38080168,-0.35940856,-0.33304518,-0.31248552,-0.3058793,-0.31659126,-0.33551478,-0.36271167,-0.40139222,-0.45655763,-0.52160156,-0.5841758,-0.6385386,-0.6854616,-0.73238456,-0.77767146,-0.8130798,-0.83780694,-0.8583666,-0.8781237,-0.89624465,-0.9077901,-0.9102598,-0.9094263,-0.9127294,-0.91766864,-0.9184713,-0.9118959,-0.9069566,-0.90859276,-0.9160017,-0.9193048,-0.9168352,-0.9102598,-0.90859276,-0.9094263,-0.9069566,-0.90118384,-0.89624465,-0.8970781,-0.90201735,-0.89954776,-0.8880331,-0.87732106,-0.87401795,-0.87648755,-0.87648755,-0.86991215,-0.8616698,-0.8592001,-0.8625033,-0.86413944,-0.86003363,-0.85426086,-0.8550944,-0.86083627,-0.8633059,-0.86003363,-0.8550944,-0.85426086,-0.8567305,-0.8550944,-0.8484881,-0.84438235,-0.84685194,-0.8534274,-0.855897,-0.8493216,-0.84354883,-0.84354883,-0.84768546,-0.8501551,-0.84438235,-0.83780694,-0.8369734,-0.84191275,-0.84768546,-0.8493216,-0.8501551,-0.8550944,-0.8616698,-0.86083627,-0.85426086,-0.8484881,-0.85095775,-0.86083627,-0.8657755,-0.8625033,-0.85426086,-0.8501551,-0.8501551,-0.8484881,-0.84521586,-0.84191275,-0.8460185,-0.8526248,-0.85179126,-0.84191275,-0.8312007,-0.8303672,-0.8361399,-0.84191275,-0.8394431,-0.8336703,-0.83203423,-0.8345038,-0.8345038,-0.8303672,-0.8270949,-0.82873106,-0.8336703,-0.8345038,-0.8270949,-0.81885254,-0.8163829,-0.81801903,-0.8155494,-0.80403477,-0.79005045,-0.78014106,-0.77192956,-0.75544477,-0.7307484,-0.70935524,-0.7019464,-0.7076882,-0.7175668,-0.71923375,-0.71840024,-0.7217034,-0.7307484,-0.74062693,-0.7447636,-0.7497029,-0.7661568,-0.7916866,-0.81801903,-0.83780694,-0.85179126,-0.8633059,-0.8715483,-0.8715483,-0.8649729,-0.8583666,-0.86083627,-0.8682452,-0.8723818,-0.86660904,-0.86003363,-0.857564,-0.8583666,-0.857564,-0.8534274,-0.8534274,-0.86413944,-0.88309383,-0.9003812,-0.904487,-0.87565404,-0.77356565,-0.5578434,-0.2177751,0.1988517,0.5924182,0.8592001,0.9300169,0.7990955,0.51255655,0.12886846,-0.27294052,-0.5965548,-0.79332274,-0.8649729,-0.86003363,-0.84354883,-0.85095775,-0.8723818,-0.8880331,-0.89297235,-0.8946085,-0.8979116,-0.89871424,-0.893775,-0.88636607,-0.88389647,-0.88309383,-0.8781237,-0.86744255,-0.855897,-0.85095775,-0.85426086,-0.855897,-0.8526248,-0.84685194,-0.84354883,-0.84354883,-0.84191275,-0.8345038,-0.8270949,-0.8246253,-0.8262614,-0.8254279,-0.81801903,-0.8073379,-0.799929,-0.79662585,-0.7916866,-0.7818081,-0.77192956,-0.7669903,-0.7653233,-0.7571118,-0.74146044,-0.72250605,-0.7109914,-0.7019464,-0.6895982,-0.666538,-0.6410082,-0.61878157,-0.60066056,-0.57923657,-0.5529041,-0.52737427,-0.5067837,-0.49032986,-0.46973926,-0.44090635,-0.41127074,-0.38574088,-0.36845356,-0.35116613,-0.33224255,-0.32153058,-0.32646984,-0.3462268,-0.37259018,-0.40469533,-0.4458456,-0.49937487,-0.56278265,-0.6245234,-0.67394686,-0.71676415,-0.7595814,-0.8007316,-0.83286774,-0.8526248,-0.8682452,-0.88636607,-0.9069566,-0.92341053,-0.9300168,-0.9324865,-0.9349561,-0.93825924,-0.9357896,-0.9267137,-0.9193048,-0.92094094,-0.9300168,-0.9349561,-0.9291833,-0.92094094,-0.9168352,-0.9184713,-0.9184713,-0.9110624,-0.90285087,-0.9003812,-0.904487,-0.9077901,-0.90285087,-0.8946085,-0.8880331,-0.8871996,-0.8871996,-0.88473,-0.87979066,-0.87979066,-0.88309383,-0.88389647,-0.8806242,-0.87318444,-0.86907864,-0.86991215,-0.86907864,-0.8625033,-0.857564,-0.8567305,-0.8583666,-0.8583666,-0.85095775,-0.84107924,-0.8369734,-0.84191275,-0.84685194,-0.8460185,-0.84521586,-0.84438235,-0.8501551,-0.8534274,-0.8526248,-0.85095775,-0.85426086,-0.8625033,-0.86660904,-0.86413944,-0.8592001,-0.8567305,-0.857564,-0.855897,-0.85179126,-0.84768546,-0.85095775,-0.86003363,-0.8633059,-0.8583666,-0.85179126,-0.8484881,-0.8534274,-0.855897,-0.8501551,-0.84438235,-0.84191275,-0.84521586,-0.84438235,-0.8386096,-0.8295646,-0.8246253,-0.8237918,-0.8155494,-0.799929,-0.7851112,-0.77356565,-0.7653233,-0.7538086,-0.7340516,-0.71676415,-0.71346104,-0.72250605,-0.7332181,-0.7389908,-0.7389908,-0.74229395,-0.75133896,-0.76121753,-0.7694599,-0.7859138,-0.8106102,-0.84191275,-0.86660904,-0.8781237,-0.87979066,-0.8814268,-0.88556343,-0.88556343,-0.8781237,-0.8715483,-0.8715483,-0.87648755,-0.8789572,-0.87318444,-0.8649729,-0.8616698,-0.86413944,-0.86413944,-0.8625033,-0.8625033,-0.86907864,-0.88556343,-0.8979116,-0.8814268,-0.8007316,-0.61711454,-0.31659126,0.06709683,0.45328534,0.73735476,0.8328676,0.7159306,0.43022525,0.05147636,-0.33551478,-0.6418417,-0.8254279,-0.8880331,-0.87401795,-0.84521586,-0.84438235,-0.87318444,-0.90118384,-0.9110624,-0.90612316,-0.90118384,-0.9003812,-0.89871424,-0.89213884,-0.88473,-0.8806242,-0.8806242,-0.8781237,-0.8682452,-0.8583666,-0.85426086,-0.85426086,-0.85179126,-0.84354883,-0.83533734,-0.8336703,-0.8361399,-0.83533734,-0.8270949,-0.8163829,-0.81227714,-0.8130798,-0.8106102,-0.80320126,-0.79332274,-0.789217,-0.789217,-0.7859138,-0.7727322,-0.7579144,-0.74886936,-0.7447636,-0.73982435,-0.7258092,-0.70935524,-0.6953401,-0.6879312,-0.6764165,-0.6574621,-0.6335993,-0.6121752,-0.5932517,-0.5685554,-0.53641933,-0.50598115,-0.48208743,-0.46726966,-0.45328534,-0.4302252,-0.40469533,-0.38246864,-0.36681736,-0.35363573,-0.34128755,-0.338818,-0.35363573,-0.38574088,-0.42855817,-0.47551203,-0.5282078,-0.5891151,-0.65252286,-0.7085217,-0.75133896,-0.78674734,-0.8204887,-0.855897,-0.8822603,-0.89624465,-0.9036535,-0.90859276,-0.91519904,-0.9184713,-0.9168352,-0.91519904,-0.9184713,-0.92507756,-0.9267137,-0.9201383,-0.9102598,-0.9069566,-0.9102598,-0.913532,-0.9102598,-0.904487,-0.9036535,-0.9077901,-0.9102598,-0.9069566,-0.89954776,-0.8979116,-0.90201735,-0.9036535,-0.89871424,-0.8896692,-0.8822603,-0.88389647,-0.8880331,-0.8880331,-0.8880331,-0.8896692,-0.893775,-0.89297235,-0.88309383,-0.87318444,-0.86991215,-0.87401795,-0.8781237,-0.87648755,-0.8707148,-0.86991215,-0.87401795,-0.87648755,-0.8715483,-0.86413944,-0.86083627,-0.8616698,-0.8616698,-0.8567305,-0.85179126,-0.8526248,-0.8592001,-0.8633059,-0.86003363,-0.8567305,-0.857564,-0.8657755,-0.8748514,-0.8781237,-0.87732106,-0.87648755,-0.8781237,-0.87565404,-0.86991215,-0.86413944,-0.86413944,-0.8707148,-0.87401795,-0.8715483,-0.8657755,-0.8649729,-0.86907864,-0.8707148,-0.86744255,-0.8616698,-0.86083627,-0.8633059,-0.8633059,-0.8534274,-0.8386096,-0.82873106,-0.8221557,-0.8081405,-0.7851112,-0.7595814,-0.7430966,-0.74229395,-0.7497029,-0.75217247,-0.7529751,-0.75544477,-0.762051,-0.76862645,-0.77109605,-0.77109605,-0.7826107,-0.8081405,-0.8369734,-0.8616698,-0.87979066,-0.89213884,-0.90285087,-0.9077901,-0.9053205,-0.89954776,-0.89871424,-0.9036535,-0.9077901,-0.9053205,-0.9003812,-0.89871424,-0.90201735,-0.90285087,-0.8979116,-0.893775,-0.90118384,-0.91436553,-0.9267137,-0.9308503,-0.9168352,-0.8583666,-0.7101579,-0.4425733,-0.07370305,0.32316673,0.6475836,0.8180499,0.7949897,0.5965549,0.26553178,-0.131338,-0.5010419,-0.762051,-0.89213884,-0.92177445,-0.90859276,-0.90285087,-0.9184713,-0.93989533,-0.95471317,-0.96295553,-0.96542513,-0.9612885,-0.95060736,-0.93825924,-0.9324865,-0.93742573,-0.942365,-0.93825924,-0.9300168,-0.92424405,-0.92424405,-0.92341053,-0.9193048,-0.9118959,-0.90859276,-0.9094263,-0.9077901,-0.9003812,-0.8905027,-0.88473,-0.88389647,-0.8822603,-0.8748514,-0.86744255,-0.8657755,-0.86744255,-0.8657755,-0.85426086,-0.83780694,-0.8246253,-0.8172164,-0.81227714,-0.8023986,-0.79005045,-0.78097457,-0.77356565,-0.76121753,-0.74229395,-0.71840024,-0.6978097,-0.68215847,-0.66323495,-0.6368716,-0.607236,-0.58007,-0.55867684,-0.5339497,-0.5010419,-0.46726966,-0.44090635,-0.42528588,-0.41293776,-0.39481682,-0.37752938,-0.37092316,-0.3799991,-0.40139222,-0.4302252,-0.4689058,-0.5199654,-0.5825397,-0.64264435,-0.693704,-0.7373547,-0.77850497,-0.81968606,-0.8526248,-0.87318444,-0.88636607,-0.89871424,-0.9160017,-0.9300168,-0.9349561,-0.93412256,-0.93412256,-0.9390618,-0.9431985,-0.942365,-0.93825924,-0.93825924,-0.942365,-0.9431985,-0.93825924,-0.9308503,-0.92838067,-0.9324865,-0.93412256,-0.9275472,-0.9168352,-0.9110624,-0.9118959,-0.9118959,-0.9077901,-0.9003812,-0.8979116,-0.90118384,-0.90285087,-0.89871424,-0.8913053,-0.8888357,-0.893775,-0.89544195,-0.8905027,-0.8806242,-0.87565404,-0.8789572,-0.8822603,-0.8806242,-0.87565404,-0.8748514,-0.87979066,-0.88389647,-0.8814268,-0.87648755,-0.87732106,-0.8822603,-0.8871996,-0.88556343,-0.8806242,-0.87979066,-0.88636607,-0.8905027,-0.8871996,-0.8814268,-0.8806242,-0.88556343,-0.8880331,-0.88473,-0.87979066,-0.87979066,-0.8896692,-0.8979116,-0.8979116,-0.8905027,-0.8871996,-0.8888357,-0.8888357,-0.88473,-0.8789572,-0.8781237,-0.8822603,-0.88389647,-0.8781237,-0.86991215,-0.86660904,-0.8715483,-0.87732106,-0.87648755,-0.86907864,-0.8657755,-0.86744255,-0.86660904,-0.8592001,-0.84438235,-0.8303672,-0.8221557,-0.8130798,-0.79745936,-0.77767146,-0.76121753,-0.75217247,-0.7480359,-0.74639976,-0.74639976,-0.7505055,-0.7595814,-0.7661568,-0.7661568,-0.76368713,-0.76779294,-0.78097457,-0.799929,-0.81801903,-0.8361399,-0.8592001,-0.8822603,-0.89624465,-0.89871424,-0.8946085,-0.89297235,-0.89954776,-0.9053205,-0.9036535,-0.89954776,-0.8979116,-0.9003812,-0.90118384,-0.89624465,-0.8871996,-0.8880331,-0.9003812,-0.9160017,-0.9258802,-0.93165296,-0.9291833,-0.89213884,-0.7694599,-0.52160156,-0.16097361,0.24660814,0.60806954,0.8443824,0.9036844,0.77356577,0.4820875,0.090990424,-0.31001592,-0.6237208,-0.8130798,-0.89624465,-0.913532,-0.9118959,-0.9168352,-0.93165296,-0.94730425,-0.9580163,-0.9588189,-0.94977385,-0.9390618,-0.9357896,-0.9390618,-0.942365,-0.93825924,-0.9300168,-0.9267137,-0.9291833,-0.9300168,-0.9258802,-0.9160017,-0.9094263,-0.9077901,-0.9069566,-0.89954776,-0.8913053,-0.88556343,-0.88556343,-0.88309383,-0.8748514,-0.8649729,-0.86083627,-0.8649729,-0.8657755,-0.857564,-0.8460185,-0.8361399,-0.8336703,-0.8312007,-0.8221557,-0.8073379,-0.79332274,-0.7851112,-0.77439916,-0.7562783,-0.73568773,-0.7150972,-0.6986432,-0.6805223,-0.6574621,-0.63193226,-0.6113726,-0.5940852,-0.57266116,-0.5421921,-0.5067837,-0.47631466,-0.455755,-0.43763405,-0.41540736,-0.39561945,-0.38327134,-0.38163525,-0.3890441,-0.40058964,-0.42281634,-0.4614969,-0.5158596,-0.5742973,-0.6261904,-0.67474955,-0.72333956,-0.7760353,-0.8213222,-0.8534274,-0.87318444,-0.8905027,-0.90859276,-0.92424405,-0.9308503,-0.9308503,-0.9333199,-0.9415315,-0.94977385,-0.95141,-0.94977385,-0.94894034,-0.95141,-0.953077,-0.94730425,-0.9365922,-0.93165296,-0.9333199,-0.9357896,-0.9324865,-0.92507756,-0.9201383,-0.92177445,-0.92177445,-0.9160017,-0.90859276,-0.9053205,-0.9094263,-0.9094263,-0.9003812,-0.8880331,-0.8806242,-0.88389647,-0.8871996,-0.88389647,-0.8748514,-0.8707148,-0.8748514,-0.8806242,-0.87979066,-0.8748514,-0.8723818,-0.87732106,-0.88389647,-0.8822603,-0.87732106,-0.8748514,-0.8781237,-0.88309383,-0.8806242,-0.8748514,-0.87318444,-0.87648755,-0.87979066,-0.87565404,-0.86660904,-0.8616698,-0.8657755,-0.8707148,-0.8715483,-0.8682452,-0.86744255,-0.8715483,-0.8748514,-0.8715483,-0.8649729,-0.8616698,-0.8657755,-0.86907864,-0.86660904,-0.8625033,-0.8625033,-0.86991215,-0.87318444,-0.8682452,-0.86003363,-0.8550944,-0.8592001,-0.8649729,-0.8649729,-0.86003363,-0.855897,-0.857564,-0.8583666,-0.8526248,-0.84521586,-0.84191275,-0.84438235,-0.84354883,-0.83203423,-0.8130798,-0.79579234,-0.78097457,-0.7628536,-0.73982435,-0.71593064,-0.70441604,-0.70935524,-0.72250605,-0.7315819,-0.7348542,-0.7373547,-0.7430966,-0.7472333,-0.7480359,-0.75133896,-0.77026254,-0.8015651,-0.8336703,-0.857564,-0.8682452,-0.8748514,-0.88309383,-0.8880331,-0.8888357,-0.88636607,-0.8871996,-0.893775,-0.8970781,-0.8913053,-0.8822603,-0.8781237,-0.8814268,-0.88473,-0.8822603,-0.87979066,-0.88389647,-0.8970781,-0.9110624,-0.91436553,-0.8814268,-0.77439916,-0.5578434,-0.22107828,0.19144273,0.58584285,0.86086714,0.9489404,0.83780706,0.5660858,0.19144273,-0.21366942,-0.5578434,-0.7834442,-0.88636607,-0.90285087,-0.893775,-0.89871424,-0.9184713,-0.9349561,-0.9390618,-0.9390618,-0.9431985,-0.9456681,-0.942365,-0.9349561,-0.9275472,-0.92341053,-0.9184713,-0.90859276,-0.8970781,-0.89297235,-0.8970781,-0.90201735,-0.90118384,-0.89544195,-0.8896692,-0.8871996,-0.88389647,-0.8748514,-0.8633059,-0.857564,-0.8583666,-0.8567305,-0.8501551,-0.83780694,-0.8295646,-0.82873106,-0.8262614,-0.81801903,-0.80403477,-0.79332274,-0.789217,-0.7842777,-0.7727322,-0.7571118,-0.7439301,-0.7373547,-0.7299149,-0.71262753,-0.6862951,-0.66323495,-0.64431137,-0.6261904,-0.6031302,-0.5751308,-0.5487983,-0.5265408,-0.50514764,-0.47878432,-0.4491487,-0.42281634,-0.40386188,-0.38574088,-0.3651812,-0.34869647,-0.34706038,-0.3659839,-0.39645296,-0.43186128,-0.47304243,-0.5257382,-0.5891151,-0.65252286,-0.7060521,-0.7480359,-0.7851112,-0.8229583,-0.8534274,-0.8723818,-0.88473,-0.8970781,-0.9118959,-0.92507756,-0.92838067,-0.9258802,-0.92507756,-0.92838067,-0.93165296,-0.9275472,-0.92094094,-0.9193048,-0.92507756,-0.9300168,-0.9267137,-0.9168352,-0.9102598,-0.9118959,-0.91436553,-0.9110624,-0.90118384,-0.893775,-0.89297235,-0.893775,-0.8913053,-0.88556343,-0.88309383,-0.88556343,-0.8871996,-0.8822603,-0.87318444,-0.86907864,-0.8723818,-0.87648755,-0.8748514,-0.86991215,-0.86744255,-0.8723818,-0.87648755,-0.87401795,-0.8657755,-0.8616698,-0.8649729,-0.8715483,-0.87401795,-0.8748514,-0.87732106,-0.8822603,-0.88309383,-0.87732106,-0.86744255,-0.8625033,-0.8657755,-0.86991215,-0.8682452,-0.8649729,-0.8649729,-0.8715483,-0.87732106,-0.87401795,-0.86660904,-0.86413944,-0.8682452,-0.87565404,-0.8781237,-0.8748514,-0.87401795,-0.8781237,-0.8814268,-0.8781237,-0.8707148,-0.8657755,-0.8682452,-0.8715483,-0.8707148,-0.86413944,-0.8592001,-0.8583666,-0.8592001,-0.8567305,-0.8534274,-0.8550944,-0.86083627,-0.86413944,-0.8592001,-0.8460185,-0.8369734,-0.8295646,-0.81885254,-0.8015651,-0.7760353,-0.7538086,-0.73982435,-0.7282788,-0.7175668,-0.7118249,-0.71346104,-0.7249757,-0.7389908,-0.74639976,-0.74886936,-0.75217247,-0.760384,-0.77026254,-0.7826107,-0.7990955,-0.8221557,-0.85179126,-0.87648755,-0.8871996,-0.8871996,-0.88473,-0.88556343,-0.88473,-0.8806242,-0.87648755,-0.87648755,-0.88309383,-0.8871996,-0.8822603,-0.87318444,-0.86991215,-0.87565404,-0.88473,-0.8913053,-0.89297235,-0.89954776,-0.913532,-0.9102598,-0.84521586,-0.6706438,-0.37175667,0.019340277,0.42939174,0.7653543,0.9448346,0.9185022,0.6978098,0.34128773,-0.07039994,-0.44504297,-0.71346104,-0.8625033,-0.9118959,-0.9069566,-0.89624465,-0.9069566,-0.93165296,-0.94813776,-0.94977385,-0.942365,-0.93825924,-0.9415315,-0.9448346,-0.9415315,-0.9300168,-0.92341053,-0.92507756,-0.9275472,-0.92424405,-0.91436553,-0.90612316,-0.9053205,-0.9053205,-0.90118384,-0.89213884,-0.88636607,-0.88556343,-0.88473,-0.87732106,-0.8649729,-0.8550944,-0.8534274,-0.8526248,-0.84521586,-0.8345038,-0.8229583,-0.8204887,-0.81885254,-0.8130798,-0.80403477,-0.79579234,-0.7908531,-0.7826107,-0.7669903,-0.74556625,-0.72664267,-0.71262753,-0.6978097,-0.67558306,-0.6484171,-0.6237208,-0.60396373,-0.5833732,-0.55620724,-0.5240712,-0.49610257,-0.47467852,-0.45492148,-0.42939168,-0.39811993,-0.37259018,-0.35777235,-0.34786296,-0.34212112,-0.34212112,-0.35940856,-0.39811993,-0.44998223,-0.5018445,-0.54960096,-0.5990245,-0.6541898,-0.7085217,-0.7546421,-0.7916866,-0.8237918,-0.8550944,-0.8781237,-0.8888357,-0.8896692,-0.8913053,-0.89954776,-0.9110624,-0.91766864,-0.91766864,-0.9184713,-0.9226079,-0.92424405,-0.9201383,-0.913532,-0.9102598,-0.91519904,-0.92094094,-0.9193048,-0.9127294,-0.9077901,-0.9069566,-0.90612316,-0.9003812,-0.8896692,-0.88473,-0.8888357,-0.89544195,-0.893775,-0.88556343,-0.8781237,-0.87648755,-0.8781237,-0.87648755,-0.86907864,-0.8657755,-0.86991215,-0.87565404,-0.8781237,-0.8748514,-0.8715483,-0.87318444,-0.87565404,-0.87565404,-0.8723818,-0.8715483,-0.87565404,-0.8789572,-0.87648755,-0.86991215,-0.8657755,-0.86744255,-0.86907864,-0.86744255,-0.8625033,-0.86083627,-0.8657755,-0.86907864,-0.8657755,-0.8592001,-0.855897,-0.86003363,-0.86413944,-0.8633059,-0.8583666,-0.8567305,-0.8633059,-0.8715483,-0.87318444,-0.8682452,-0.8625033,-0.8616698,-0.8616698,-0.8583666,-0.8526248,-0.8501551,-0.8550944,-0.8616698,-0.86413944,-0.86003363,-0.8567305,-0.8567305,-0.8583666,-0.8550944,-0.8484881,-0.84438235,-0.84685194,-0.85095775,-0.8493216,-0.84274626,-0.8394431,-0.84274626,-0.84521586,-0.84438235,-0.8369734,-0.8312007,-0.83203423,-0.8345038,-0.83286774,-0.82789755,-0.8270949,-0.8295646,-0.8295646,-0.8213222,-0.8023986,-0.7851112,-0.77356565,-0.7628536,-0.7472333,-0.7282788,-0.71262753,-0.7019464,-0.693704,-0.6895982,-0.69123435,-0.70441604,-0.7282788,-0.74886936,-0.7562783,-0.7571118,-0.7694599,-0.79662585,-0.82873106,-0.8534274,-0.8657755,-0.8707148,-0.87732106,-0.88309383,-0.8814268,-0.87648755,-0.87565404,-0.8822603,-0.8888357,-0.88636607,-0.87648755,-0.86907864,-0.8715483,-0.8781237,-0.8814268,-0.8822603,-0.88636607,-0.89624465,-0.9094263,-0.9077901,-0.8633059,-0.7332181,-0.4870267,-0.12473178,0.2918949,0.66406846,0.8905028,0.9069567,0.7250066,0.40222573,0.008659124,-0.37505978,-0.66734064,-0.8361399,-0.8888357,-0.87648755,-0.86003363,-0.8715483,-0.89954776,-0.9168352,-0.9160017,-0.9102598,-0.9102598,-0.9168352,-0.9193048,-0.91519904,-0.9118959,-0.9127294,-0.9110624,-0.90285087,-0.8888357,-0.8789572,-0.8806242,-0.88473,-0.88389647,-0.87565404,-0.8682452,-0.86660904,-0.8657755,-0.86003363,-0.84768546,-0.8386096,-0.8361399,-0.8345038,-0.82873106,-0.8204887,-0.8139133,-0.8147468,-0.8130798,-0.8048682,-0.79005045,-0.7752018,-0.76779294,-0.760384,-0.7472333,-0.72911227,-0.7150972,-0.7076882,-0.70111287,-0.6854616,-0.6599318,-0.6335993,-0.6121752,-0.5965548,-0.5751308,-0.5479649,-0.5207989,-0.49857223,-0.47878432,-0.45492148,-0.42528588,-0.39645296,-0.37339276,-0.3528331,-0.33304518,-0.31742477,-0.31575775,-0.33551478,-0.37175667,-0.4170435,-0.4648,-0.5191319,-0.57923657,-0.6393721,-0.69206786,-0.73652124,-0.7760353,-0.8155494,-0.8493216,-0.8707148,-0.88309383,-0.89297235,-0.90612316,-0.91519904,-0.9168352,-0.9110624,-0.9094263,-0.91436553,-0.92094094,-0.92177445,-0.91436553,-0.9094263,-0.9127294,-0.91519904,-0.9127294,-0.9053205,-0.8979116,-0.89624465,-0.8979116,-0.8946085,-0.8871996,-0.88556343,-0.8888357,-0.893775,-0.89213884,-0.8806242,-0.8723818,-0.86907864,-0.8682452,-0.86413944,-0.8567305,-0.8534274,-0.857564,-0.8657755,-0.8682452,-0.8625033,-0.857564,-0.86003363,-0.8657755,-0.86744255,-0.8649729,-0.86413944,-0.8657755,-0.8682452,-0.8649729,-0.8550944,-0.85095775,-0.855897,-0.8625033,-0.8625033,-0.85426086,-0.8460185,-0.84768546,-0.85179126,-0.8534274,-0.85179126,-0.85095775,-0.8550944,-0.86003363,-0.86003363,-0.85426086,-0.8493216,-0.8501551,-0.8493216,-0.8402766,-0.8254279,-0.8114436,-0.80403477,-0.7941562,-0.7760353,-0.7538086,-0.7348542,-0.7258092,-0.7274453,-0.7274453,-0.72417307,-0.7249757,-0.7340516,-0.74886936,-0.76121753,-0.77026254,-0.78097457,-0.8023986,-0.82789755,-0.8493216,-0.8633059,-0.87318444,-0.8822603,-0.8896692,-0.8905027,-0.88636607,-0.88473,-0.8905027,-0.8979116,-0.8979116,-0.8896692,-0.87979066,-0.87732106,-0.8781237,-0.87732106,-0.8715483,-0.86744255,-0.8707148,-0.8789572,-0.88636607,-0.893775,-0.904487,-0.9053205,-0.855897,-0.70111287,-0.41951317,-0.04240042,0.34789395,0.6607654,0.81474686,0.76945984,0.5372528,0.1716857,-0.2375322,-0.5833732,-0.8015651,-0.893775,-0.904487,-0.88556343,-0.8748514,-0.88473,-0.904487,-0.92177445,-0.92838067,-0.9226079,-0.9102598,-0.9036535,-0.9053205,-0.90859276,-0.9069566,-0.89954776,-0.8946085,-0.8970781,-0.90118384,-0.89871424,-0.8888357,-0.87732106,-0.87401795,-0.87401795,-0.8723818,-0.8682452,-0.8649729,-0.8649729,-0.86413944,-0.857564,-0.84438235,-0.8345038,-0.8312007,-0.82873106,-0.8204887,-0.80567086,-0.7941562,-0.7908531,-0.7908531,-0.7851112,-0.7694599,-0.7538086,-0.7439301,-0.73652124,-0.72664267,-0.7101579,-0.6928705,-0.6788862,-0.66323495,-0.6418417,-0.61300874,-0.58500934,-0.56361616,-0.5421921,-0.51749575,-0.48866284,-0.4631639,-0.44420946,-0.42775553,-0.407165,-0.38327134,-0.36351424,-0.35777235,-0.36351424,-0.37916553,-0.4055289,-0.44667912,-0.502678,-0.5660858,-0.6237208,-0.67394686,-0.7208699,-0.76862645,-0.8130798,-0.84521586,-0.8657755,-0.8822603,-0.89871424,-0.9127294,-0.92177445,-0.9226079,-0.92507756,-0.9300168,-0.93412256,-0.9308503,-0.92094094,-0.913532,-0.91436553,-0.91766864,-0.9160017,-0.9094263,-0.9036535,-0.9053205,-0.9102598,-0.90859276,-0.89954776,-0.893775,-0.89297235,-0.89544195,-0.893775,-0.88636607,-0.8806242,-0.8806242,-0.88473,-0.88556343,-0.8789572,-0.87401795,-0.87318444,-0.8748514,-0.8707148,-0.86003363,-0.8526248,-0.85095775,-0.8526248,-0.85179126,-0.8460185,-0.84191275,-0.84191275,-0.84438235,-0.84191275,-0.8345038,-0.8295646,-0.8312007,-0.8345038,-0.8336703,-0.82789755,-0.8262614,-0.8303672,-0.8369734,-0.83780694,-0.83286774,-0.8303672,-0.8336703,-0.8386096,-0.8386096,-0.8303672,-0.8246253,-0.8270949,-0.83203423,-0.8336703,-0.82873106,-0.8262614,-0.8312007,-0.8394431,-0.84521586,-0.84274626,-0.8386096,-0.8386096,-0.8386096,-0.8361399,-0.83286774,-0.83203423,-0.8369734,-0.84438235,-0.84438235,-0.8369734,-0.8312007,-0.8303672,-0.82789755,-0.8163829,-0.79745936,-0.78014106,-0.76779294,-0.7579144,-0.7430966,-0.72417307,-0.7150972,-0.71923375,-0.7299149,-0.7373547,-0.73815733,-0.73815733,-0.7439301,-0.75133896,-0.7587479,-0.76368713,-0.7793384,-0.80567086,-0.83286774,-0.8526248,-0.8625033,-0.86660904,-0.87565404,-0.88309383,-0.8822603,-0.8748514,-0.8682452,-0.86907864,-0.87565404,-0.8781237,-0.87401795,-0.8707148,-0.87318444,-0.87648755,-0.87648755,-0.87401795,-0.87648755,-0.8896692,-0.9053205,-0.91519904,-0.8913053,-0.798262,-0.5990245,-0.2836526,0.11158097,0.50104177,0.78674734,0.89297235,0.80073166,0.54055595,0.17495787,-0.22271436,-0.5611465,-0.7826107,-0.8814268,-0.8970781,-0.8880331,-0.89544195,-0.92094094,-0.9415315,-0.94647074,-0.9440011,-0.9440011,-0.9456681,-0.9431985,-0.93742573,-0.93165296,-0.9300168,-0.9291833,-0.9226079,-0.9102598,-0.9003812,-0.89871424,-0.90118384,-0.89871424,-0.8913053,-0.88556343,-0.88309383,-0.88309383,-0.8781237,-0.8682452,-0.8592001,-0.8567305,-0.857564,-0.8526248,-0.84274626,-0.8345038,-0.83203423,-0.8312007,-0.8246253,-0.80980754,-0.79662585,-0.79005045,-0.7859138,-0.7768688,-0.7595814,-0.7430966,-0.7332181,-0.7274453,-0.71676415,-0.6986432,-0.67721915,-0.6599318,-0.64264435,-0.61878157,-0.58831245,-0.560313,-0.53972244,-0.52243507,-0.5002084,-0.47220892,-0.4458456,-0.42692208,-0.41127074,-0.39481682,-0.37833208,-0.37259018,-0.38574088,-0.41787708,-0.45739114,-0.5010419,-0.5520706,-0.61300874,-0.67394686,-0.7274453,-0.7694599,-0.80650437,-0.84521586,-0.8789572,-0.90285087,-0.91519904,-0.92341053,-0.9333199,-0.942365,-0.9448346,-0.9415315,-0.93825924,-0.94072884,-0.9448346,-0.9448346,-0.93989533,-0.9349561,-0.9357896,-0.9390618,-0.9365922,-0.9308503,-0.9258802,-0.9258802,-0.9267137,-0.92341053,-0.91436553,-0.9069566,-0.9077901,-0.9118959,-0.9094263,-0.90118384,-0.8946085,-0.8946085,-0.89871424,-0.8979116,-0.8905027,-0.88309383,-0.88309383,-0.8880331,-0.8888357,-0.8814268,-0.87648755,-0.87732106,-0.8822603,-0.88389647,-0.87979066,-0.87648755,-0.8789572,-0.88309383,-0.88636607,-0.88389647,-0.8814268,-0.88636607,-0.8896692,-0.8871996,-0.8789572,-0.8715483,-0.8715483,-0.87401795,-0.87318444,-0.86660904,-0.8616698,-0.8625033,-0.86744255,-0.86744255,-0.8616698,-0.8583666,-0.86083627,-0.86744255,-0.86744255,-0.86003363,-0.855897,-0.8567305,-0.86083627,-0.8616698,-0.855897,-0.8534274,-0.857564,-0.86660904,-0.8707148,-0.8657755,-0.86083627,-0.86003363,-0.8625033,-0.8616698,-0.8550944,-0.8493216,-0.85179126,-0.857564,-0.857564,-0.85179126,-0.84521586,-0.84521586,-0.8493216,-0.8501551,-0.84521586,-0.84107924,-0.84274626,-0.84685194,-0.84521586,-0.8394431,-0.8336703,-0.83533734,-0.8402766,-0.8394431,-0.83203423,-0.8254279,-0.8262614,-0.82873106,-0.8246253,-0.8106102,-0.79579234,-0.78758085,-0.78097457,-0.7694599,-0.7497029,-0.7315819,-0.7217034,-0.7150972,-0.7101579,-0.70688564,-0.7118249,-0.72664267,-0.7430966,-0.7505055,-0.74639976,-0.7480359,-0.76862645,-0.8007316,-0.8312007,-0.85179126,-0.86660904,-0.8789572,-0.8888357,-0.8905027,-0.8814268,-0.8723818,-0.8707148,-0.8748514,-0.87565404,-0.8723818,-0.86907864,-0.8707148,-0.87318444,-0.8723818,-0.86744255,-0.86907864,-0.87979066,-0.89544195,-0.9053205,-0.8871996,-0.81227714,-0.64017475,-0.34952998,0.036658645,0.44420958,0.77439916,0.9440012,0.91519916,0.7060522,0.36681747,-0.038294613,-0.42034662,-0.6978097,-0.8493216,-0.893775,-0.8888357,-0.8871996,-0.90285087,-0.9201383,-0.92507756,-0.92507756,-0.9258802,-0.92838067,-0.92838067,-0.9201383,-0.913532,-0.9118959,-0.913532,-0.9094263,-0.8979116,-0.8871996,-0.88389647,-0.88309383,-0.8806242,-0.87401795,-0.86744255,-0.86744255,-0.8715483,-0.86991215,-0.8625033,-0.857564,-0.8567305,-0.8592001,-0.8567305,-0.8460185,-0.8369734,-0.8345038,-0.8361399,-0.83203423,-0.81968606,-0.8048682,-0.7941562,-0.78758085,-0.7768688,-0.760384,-0.7430966,-0.7332181,-0.7258092,-0.71262753,-0.69123435,-0.666538,-0.64511395,-0.6245234,-0.598191,-0.5652523,-0.5339497,-0.5100869,-0.49032986,-0.46643615,-0.43516445,-0.40386188,-0.3799991,-0.36434782,-0.34869647,-0.33140904,-0.32236403,-0.32810593,-0.35116613,-0.38327134,-0.4211493,-0.46726966,-0.52243507,-0.5833732,-0.6410082,-0.6879312,-0.7307484,-0.77439916,-0.8155494,-0.84685194,-0.86660904,-0.8814268,-0.89624465,-0.9094263,-0.9127294,-0.9077901,-0.9036535,-0.9069566,-0.9127294,-0.91519904,-0.9094263,-0.90201735,-0.9003812,-0.89954776,-0.8970781,-0.8880331,-0.88389647,-0.8871996,-0.89297235,-0.89297235,-0.88556343,-0.8781237,-0.87648755,-0.8789572,-0.87732106,-0.86907864,-0.8616698,-0.86083627,-0.8649729,-0.86660904,-0.8625033,-0.8592001,-0.8625033,-0.86991215,-0.8723818,-0.8682452,-0.8633059,-0.8633059,-0.86744255,-0.86744255,-0.8625033,-0.8583666,-0.8625033,-0.8682452,-0.8707148,-0.8649729,-0.8583666,-0.8583666,-0.8625033,-0.8633059,-0.8583666,-0.855897,-0.8583666,-0.86413944,-0.86907864,-0.86907864,-0.86744255,-0.8682452,-0.86907864,-0.8649729,-0.855897,-0.8493216,-0.8501551,-0.8550944,-0.857564,-0.8550944,-0.8526248,-0.855897,-0.8616698,-0.8625033,-0.8567305,-0.8526248,-0.85426086,-0.8592001,-0.8592001,-0.85095775,-0.84354883,-0.84354883,-0.8484881,-0.8493216,-0.84354883,-0.8394431,-0.8402766,-0.84438235,-0.84438235,-0.8369734,-0.8295646,-0.82789755,-0.8312007,-0.8312007,-0.8254279,-0.81885254,-0.8139133,-0.8048682,-0.789217,-0.7661568,-0.7447636,-0.7299149,-0.71923375,-0.70688564,-0.6928705,-0.6838255,-0.6862951,-0.6978097,-0.70935524,-0.7175668,-0.7249757,-0.7348542,-0.74556625,-0.7571118,-0.77356565,-0.79745936,-0.8303672,-0.8625033,-0.87979066,-0.8814268,-0.8781237,-0.8781237,-0.88309383,-0.88636607,-0.88309383,-0.87732106,-0.87732106,-0.8806242,-0.8806242,-0.87565404,-0.8707148,-0.8715483,-0.8781237,-0.88556343,-0.8896692,-0.8946085,-0.9069566,-0.9127294,-0.8806242,-0.7628536,-0.5282078,-0.18156415,0.22191179,0.6006607,0.86580646,0.94647074,0.8229892,0.52984405,0.1387471,-0.26719862,-0.5940852,-0.80320126,-0.8970781,-0.9094263,-0.89213884,-0.8905027,-0.9110624,-0.93742573,-0.94977385,-0.9456681,-0.9365922,-0.9324865,-0.93412256,-0.9333199,-0.9267137,-0.9184713,-0.91436553,-0.9118959,-0.9077901,-0.89871424,-0.8913053,-0.8905027,-0.893775,-0.8946085,-0.8880331,-0.8806242,-0.87732106,-0.87732106,-0.8748514,-0.86744255,-0.855897,-0.8493216,-0.84521586,-0.8402766,-0.83286774,-0.8262614,-0.8246253,-0.8229583,-0.8172164,-0.8048682,-0.7916866,-0.7842777,-0.77850497,-0.7669903,-0.7480359,-0.7307484,-0.71923375,-0.7109914,-0.6970071,-0.6731134,-0.64594746,-0.6237208,-0.6064334,-0.5817062,-0.5520706,-0.5207989,-0.49526906,-0.47714818,-0.45739114,-0.4302252,-0.40386188,-0.38327134,-0.36845356,-0.35693884,-0.34952998,-0.35610533,-0.38246864,-0.42528588,-0.47467852,-0.52243507,-0.5734947,-0.6311297,-0.69123435,-0.7439301,-0.7851112,-0.81968606,-0.85179126,-0.8789572,-0.8970781,-0.904487,-0.9118959,-0.9226079,-0.93412256,-0.93825924,-0.93412256,-0.9291833,-0.9308503,-0.9357896,-0.93742573,-0.9324865,-0.92838067,-0.9300168,-0.9357896,-0.9357896,-0.92838067,-0.9184713,-0.9160017,-0.9184713,-0.9184713,-0.913532,-0.90859276,-0.9094263,-0.913532,-0.9118959,-0.90201735,-0.89213884,-0.8896692,-0.89297235,-0.8946085,-0.8896692,-0.8822603,-0.8806242,-0.88309383,-0.8822603,-0.87732106,-0.8723818,-0.8748514,-0.87979066,-0.8814268,-0.8781237,-0.87565404,-0.8789572,-0.88556343,-0.88556343,-0.87732106,-0.86907864,-0.8682452,-0.8723818,-0.8748514,-0.86907864,-0.86413944,-0.8649729,-0.86991215,-0.87401795,-0.8715483,-0.86744255,-0.86660904,-0.8682452,-0.86744255,-0.8633059,-0.8616698,-0.86660904,-0.87318444,-0.87565404,-0.86991215,-0.8633059,-0.8616698,-0.8649729,-0.86413944,-0.855897,-0.85095775,-0.8526248,-0.8583666,-0.8583666,-0.85095775,-0.84274626,-0.84274626,-0.84768546,-0.8493216,-0.84354883,-0.83780694,-0.83780694,-0.84107924,-0.84191275,-0.8369734,-0.8295646,-0.8270949,-0.8270949,-0.8221557,-0.808974,-0.79332274,-0.7834442,-0.7752018,-0.760384,-0.7373547,-0.7150972,-0.7019464,-0.6994767,-0.6970071,-0.693704,-0.6953401,-0.70688564,-0.7249757,-0.73815733,-0.74062693,-0.7439301,-0.7628536,-0.7949897,-0.8270949,-0.8501551,-0.8657755,-0.87732106,-0.8880331,-0.8905027,-0.88309383,-0.87565404,-0.8748514,-0.8806242,-0.88473,-0.8814268,-0.87565404,-0.87318444,-0.87565404,-0.87318444,-0.86660904,-0.8633059,-0.8715483,-0.8871996,-0.89954776,-0.9036535,-0.8888357,-0.8237918,-0.66159874,-0.37012053,0.028416276,0.4458766,0.77770245,0.9448346,0.9118959,0.7002795,0.35610545,-0.055582047,-0.43843675,-0.7101579,-0.8484881,-0.88473,-0.8781237,-0.87648755,-0.893775,-0.9127294,-0.92341053,-0.9300168,-0.9333199,-0.9324865,-0.9258802,-0.9184713,-0.91766864,-0.9193048,-0.9193048,-0.9118959,-0.90201735,-0.8970781,-0.8970781,-0.89544195,-0.8871996,-0.87979066,-0.87648755,-0.87732106,-0.87565404,-0.86907864,-0.8616698,-0.857564,-0.8550944,-0.8493216,-0.8369734,-0.8262614,-0.8221557,-0.8213222,-0.8172164,-0.80403477,-0.7925201,-0.7851112,-0.78097457,-0.7727322,-0.7579144,-0.74146044,-0.73238456,-0.7258092,-0.71346104,-0.693704,-0.6698103,-0.65005326,-0.63606894,-0.61711454,-0.59161556,-0.56278265,-0.53641933,-0.51339,-0.48866284,-0.45822465,-0.43186128,-0.41046816,-0.3915137,-0.369287,-0.34128755,-0.31822747,-0.3108185,-0.32153058,-0.3396514,-0.3651812,-0.4022258,-0.455755,-0.5207989,-0.5825397,-0.6368716,-0.68462807,-0.73238456,-0.78097457,-0.81801903,-0.84107924,-0.8567305,-0.87318444,-0.8946085,-0.9102598,-0.91519904,-0.913532,-0.9102598,-0.9102598,-0.9094263,-0.9069566,-0.90612316,-0.9102598,-0.9168352,-0.91766864,-0.9102598,-0.90201735,-0.9003812,-0.9036535,-0.904487,-0.89624465,-0.88636607,-0.88309383,-0.8871996,-0.8888357,-0.88389647,-0.8781237,-0.8781237,-0.8814268,-0.87979066,-0.86991215,-0.857564,-0.8550944,-0.8649729,-0.87565404,-0.8748514,-0.86907864,-0.8657755,-0.8682452,-0.8707148,-0.8682452,-0.8625033,-0.8616698,-0.8649729,-0.8657755,-0.8616698,-0.855897,-0.8567305,-0.86083627,-0.8625033,-0.8583666,-0.85426086,-0.8567305,-0.8633059,-0.8682452,-0.8657755,-0.8633059,-0.8657755,-0.8707148,-0.8723818,-0.86660904,-0.86003363,-0.8583666,-0.86083627,-0.8592001,-0.8526248,-0.8460185,-0.8460185,-0.85095775,-0.8501551,-0.84107924,-0.82873106,-0.81968606,-0.8147468,-0.8048682,-0.7826107,-0.7562783,-0.7373547,-0.7282788,-0.7282788,-0.72911227,-0.7332181,-0.74229395,-0.7529751,-0.76121753,-0.7628536,-0.7653233,-0.7768688,-0.8015651,-0.82873106,-0.8526248,-0.87401795,-0.893775,-0.9077901,-0.913532,-0.90859276,-0.9036535,-0.904487,-0.9118959,-0.91519904,-0.90859276,-0.89871424,-0.89544195,-0.89624465,-0.8946085,-0.8880331,-0.8806242,-0.87979066,-0.8888357,-0.9003812,-0.90612316,-0.91519904,-0.9258802,-0.90859276,-0.81227714,-0.59161556,-0.24824417,0.15933764,0.53561664,0.7941563,0.86907864,0.7430967,0.45245194,0.060521483,-0.3396514,-0.65005326,-0.8345038,-0.904487,-0.9069566,-0.8871996,-0.88473,-0.90118384,-0.92424405,-0.9415315,-0.9448346,-0.93825924,-0.9324865,-0.93412256,-0.94072884,-0.9431985,-0.9365922,-0.92507756,-0.9184713,-0.9168352,-0.9127294,-0.90201735,-0.8905027,-0.88636607,-0.8871996,-0.8871996,-0.87979066,-0.86907864,-0.8616698,-0.8583666,-0.85179126,-0.83780694,-0.8237918,-0.8172164,-0.8172164,-0.8163829,-0.8081405,-0.79745936,-0.79005045,-0.7859138,-0.78097457,-0.7694599,-0.7579144,-0.7505055,-0.74556625,-0.7340516,-0.7150972,-0.6928705,-0.6764165,-0.6657045,-0.6508867,-0.6261904,-0.5990245,-0.5742973,-0.5545402,-0.5314801,-0.502678,-0.47304243,-0.44751263,-0.42939168,-0.40880114,-0.3841048,-0.360242,-0.34375727,-0.33798444,-0.338818,-0.34786296,-0.37012053,-0.40963465,-0.46643615,-0.52737427,-0.58584285,-0.64264435,-0.6986432,-0.7529751,-0.7949897,-0.8237918,-0.84521586,-0.8649729,-0.88309383,-0.893775,-0.89624465,-0.89544195,-0.90118384,-0.9110624,-0.9168352,-0.9127294,-0.9077901,-0.904487,-0.9036535,-0.90118384,-0.893775,-0.8880331,-0.8946085,-0.9069566,-0.91519904,-0.913532,-0.904487,-0.89871424,-0.90118384,-0.90201735,-0.89624465,-0.8888357,-0.8888357,-0.89544195,-0.8979116,-0.893775,-0.88556343,-0.8789572,-0.8789572,-0.87732106,-0.8723818,-0.8682452,-0.86907864,-0.87401795,-0.87318444,-0.86660904,-0.8592001,-0.8583666,-0.86660904,-0.86991215,-0.8682452,-0.8649729,-0.8649729,-0.86991215,-0.8682452,-0.86083627,-0.8526248,-0.85095775,-0.855897,-0.86003363,-0.8583666,-0.8534274,-0.855897,-0.8633059,-0.86660904,-0.86083627,-0.8526248,-0.8493216,-0.8526248,-0.8567305,-0.8534274,-0.8484881,-0.84768546,-0.85179126,-0.8534274,-0.8484881,-0.84191275,-0.8386096,-0.83780694,-0.8369734,-0.8336703,-0.8303672,-0.8336703,-0.83780694,-0.83780694,-0.8312007,-0.8229583,-0.8221557,-0.8262614,-0.8295646,-0.82789755,-0.8270949,-0.82873106,-0.8295646,-0.82789755,-0.81801903,-0.80650437,-0.8023986,-0.8015651,-0.79579234,-0.7793384,-0.760384,-0.7447636,-0.7348542,-0.72250605,-0.7076882,-0.693704,-0.6862951,-0.6887647,-0.6945375,-0.70027936,-0.7109914,-0.7258092,-0.74229395,-0.7529751,-0.76121753,-0.7768688,-0.8007316,-0.82873106,-0.8484881,-0.8550944,-0.855897,-0.857564,-0.8625033,-0.8625033,-0.8567305,-0.85095775,-0.8526248,-0.8592001,-0.8616698,-0.8583666,-0.85179126,-0.8484881,-0.85095775,-0.8534274,-0.8534274,-0.8583666,-0.8715483,-0.8880331,-0.88389647,-0.8147468,-0.64264435,-0.35693884,0.00946188,0.38493836,0.6805223,0.8073379,0.72827876,0.47387588,0.11238372,-0.26966828,-0.5825397,-0.78097457,-0.86744255,-0.87318444,-0.8484881,-0.8386096,-0.8583666,-0.8905027,-0.9094263,-0.9094263,-0.89954776,-0.8913053,-0.8871996,-0.88556343,-0.8789572,-0.8723818,-0.8723818,-0.87565404,-0.87401795,-0.8633059,-0.8501551,-0.84274626,-0.84274626,-0.84354883,-0.8386096,-0.8312007,-0.82873106,-0.8303672,-0.8303672,-0.8213222,-0.808974,-0.8023986,-0.8023986,-0.799929,-0.7916866,-0.78014106,-0.77192956,-0.77026254,-0.76862645,-0.7595814,-0.7472333,-0.7389908,-0.7348542,-0.7274453,-0.7109914,-0.69206786,-0.6764165,-0.66487104,-0.6508867,-0.6294627,-0.60476637,-0.5825397,-0.5644188,-0.5438591,-0.51666224,-0.4870267,-0.4614969,-0.44090635,-0.42034662,-0.39481682,-0.36765093,-0.34786296,-0.3338787,-0.32153058,-0.31248552,-0.31412166,-0.3347122,-0.37586242,-0.42528588,-0.47551203,-0.5282078,-0.5866455,-0.6484171,-0.702749,-0.7430966,-0.7752018,-0.8073379,-0.8402766,-0.86660904,-0.87732106,-0.87979066,-0.8822603,-0.8905027,-0.89954776,-0.90285087,-0.9053205,-0.9102598,-0.9168352,-0.9201383,-0.91519904,-0.9077901,-0.90612316,-0.913532,-0.91766864,-0.91436553,-0.9069566,-0.90285087,-0.9036535,-0.9053205,-0.90201735,-0.8970781,-0.893775,-0.89544195,-0.893775,-0.88636607,-0.87979066,-0.8781237,-0.8814268,-0.8814268,-0.8748514,-0.8682452,-0.86744255,-0.8723818,-0.87318444,-0.86744255,-0.86003363,-0.8583666,-0.8633059,-0.86660904,-0.8625033,-0.8567305,-0.857564,-0.8649729,-0.86907864,-0.8633059,-0.8550944,-0.8526248,-0.8583666,-0.86660904,-0.86991215,-0.8707148,-0.8715483,-0.87648755,-0.87648755,-0.86991215,-0.8633059,-0.86083627,-0.86413944,-0.8625033,-0.8526248,-0.8394431,-0.82873106,-0.8221557,-0.8155494,-0.8007316,-0.7834442,-0.76862645,-0.7595814,-0.75133896,-0.7430966,-0.73982435,-0.7439301,-0.7529751,-0.7587479,-0.7579144,-0.75544477,-0.76368713,-0.78014106,-0.8048682,-0.8254279,-0.8460185,-0.86907864,-0.8913053,-0.90201735,-0.89954776,-0.893775,-0.8913053,-0.89544195,-0.8979116,-0.8946085,-0.8896692,-0.8896692,-0.893775,-0.893775,-0.88556343,-0.87648755,-0.87318444,-0.8789572,-0.8871996,-0.8905027,-0.893775,-0.9036535,-0.9118959,-0.87979066,-0.7579144,-0.5158596,-0.16507941,0.23425996,0.5998272,0.8501551,0.9176687,0.78674734,0.491966,0.10003555,-0.2976368,-0.6113726,-0.80403477,-0.8905027,-0.90285087,-0.8896692,-0.8896692,-0.9077901,-0.92838067,-0.93825924,-0.9349561,-0.9291833,-0.9275472,-0.9324865,-0.9333199,-0.9258802,-0.91519904,-0.9077901,-0.90859276,-0.9069566,-0.89871424,-0.8896692,-0.88556343,-0.8871996,-0.88636607,-0.87732106,-0.86413944,-0.8583666,-0.8592001,-0.86003363,-0.8534274,-0.84521586,-0.8402766,-0.84107924,-0.84107924,-0.8336703,-0.8246253,-0.81885254,-0.8163829,-0.8081405,-0.7941562,-0.77767146,-0.7694599,-0.7694599,-0.76452065,-0.7480359,-0.72664267,-0.7101579,-0.6986432,-0.6854616,-0.66240144,-0.6311297,-0.6055999,-0.58500934,-0.5660858,-0.54055595,-0.5109204,-0.4845571,-0.4639665,-0.4425733,-0.41621,-0.3890441,-0.36845356,-0.35940856,-0.35610533,-0.35940856,-0.37505978,-0.407165,-0.45739114,-0.5125565,-0.56361616,-0.6146449,-0.66734064,-0.72250605,-0.7694599,-0.80403477,-0.83203423,-0.8583666,-0.88473,-0.90285087,-0.9110624,-0.91436553,-0.92341053,-0.93412256,-0.9415315,-0.93989533,-0.9333199,-0.9308503,-0.93412256,-0.9324865,-0.92507756,-0.913532,-0.9069566,-0.90859276,-0.9094263,-0.9053205,-0.9003812,-0.90118384,-0.9069566,-0.9102598,-0.9077901,-0.90118384,-0.8979116,-0.9003812,-0.90118384,-0.8979116,-0.89213884,-0.8913053,-0.893775,-0.8913053,-0.88309383,-0.87732106,-0.8781237,-0.88636607,-0.8905027,-0.88473,-0.87648755,-0.87401795,-0.8789572,-0.88309383,-0.8806242,-0.87648755,-0.87648755,-0.88389647,-0.88636607,-0.8814268,-0.8715483,-0.86744255,-0.8707148,-0.87401795,-0.8707148,-0.8633059,-0.86003363,-0.8625033,-0.8682452,-0.8707148,-0.86991215,-0.8715483,-0.8748514,-0.87401795,-0.86660904,-0.8592001,-0.86083627,-0.8682452,-0.87401795,-0.8707148,-0.8633059,-0.86083627,-0.86660904,-0.8682452,-0.8616698,-0.8550944,-0.8526248,-0.8592001,-0.8657755,-0.8649729,-0.86083627,-0.8592001,-0.86083627,-0.86003363,-0.85179126,-0.84685194,-0.8484881,-0.8550944,-0.8616698,-0.857564,-0.8501551,-0.84685194,-0.8493216,-0.8501551,-0.84521586,-0.8369734,-0.83203423,-0.8303672,-0.8262614,-0.8147468,-0.799929,-0.78758085,-0.7768688,-0.760384,-0.7373547,-0.7150972,-0.702749,-0.702749,-0.7035825,-0.702749,-0.7052187,-0.7175668,-0.73815733,-0.7538086,-0.7562783,-0.75217247,-0.7562783,-0.7793384,-0.808974,-0.83533734,-0.8534274,-0.8649729,-0.8715483,-0.8715483,-0.86660904,-0.8625033,-0.86413944,-0.87401795,-0.8806242,-0.8781237,-0.87318444,-0.87318444,-0.87732106,-0.8789572,-0.87318444,-0.86907864,-0.87318444,-0.88473,-0.8979116,-0.8946085,-0.8501551,-0.7258092,-0.48866284,-0.1354438,0.2770772,0.6525228,0.89707816,0.9497738,0.80980754,0.5199654,0.1387471,-0.26059234,-0.58584285,-0.78758085,-0.86907864,-0.87565404,-0.8657755,-0.8748514,-0.8970781,-0.9102598,-0.913532,-0.9160017,-0.9226079,-0.92838067,-0.9258802,-0.91766864,-0.9118959,-0.9118959,-0.9127294,-0.9077901,-0.9003812,-0.89624465,-0.8946085,-0.8880331,-0.87565404,-0.8633059,-0.8592001,-0.8625033,-0.8649729,-0.8583666,-0.84768546,-0.8402766,-0.8369734,-0.83203423,-0.8229583,-0.8130798,-0.808974,-0.80980754,-0.80650437,-0.79579234,-0.7818081,-0.77192956,-0.76862645,-0.7628536,-0.7505055,-0.73238456,-0.71593064,-0.70441604,-0.69206786,-0.67394686,-0.6533563,-0.6352354,-0.62041765,-0.60229677,-0.57843393,-0.5529041,-0.5298439,-0.5092534,-0.48372358,-0.45492148,-0.42361885,-0.40139222,-0.38574088,-0.369287,-0.34952998,-0.33304518,-0.32977295,-0.34212112,-0.3659839,-0.39561945,-0.43433094,-0.4870267,-0.5529041,-0.61794806,-0.67394686,-0.7200364,-0.76121753,-0.8023986,-0.8345038,-0.8534274,-0.8657755,-0.8789572,-0.89544195,-0.9069566,-0.9094263,-0.904487,-0.90285087,-0.9069566,-0.9102598,-0.90612316,-0.9003812,-0.9003812,-0.9053205,-0.9069566,-0.90201735,-0.893775,-0.8896692,-0.89297235,-0.89213884,-0.88309383,-0.8707148,-0.8657755,-0.8715483,-0.87648755,-0.87565404,-0.8707148,-0.86991215,-0.87565404,-0.87732106,-0.8723818,-0.8633059,-0.8583666,-0.86003363,-0.8649729,-0.86413944,-0.8583666,-0.8567305,-0.8616698,-0.8657755,-0.86413944,-0.8592001,-0.8550944,-0.8583666,-0.86083627,-0.8592001,-0.8550944,-0.85426086,-0.8583666,-0.86003363,-0.8567305,-0.85179126,-0.85095775,-0.8550944,-0.8592001,-0.857564,-0.8534274,-0.85426086,-0.8592001,-0.86003363,-0.8550944,-0.84768546,-0.84768546,-0.8526248,-0.855897,-0.8501551,-0.84107924,-0.8386096,-0.84354883,-0.8460185,-0.84274626,-0.8361399,-0.8336703,-0.8386096,-0.84438235,-0.84274626,-0.83780694,-0.8361399,-0.84107924,-0.84191275,-0.83286774,-0.81968606,-0.80650437,-0.79579234,-0.789217,-0.78097457,-0.7768688,-0.7768688,-0.77192956,-0.7472333,-0.70688564,-0.6698103,-0.66159874,-0.6854616,-0.72417307,-0.76121753,-0.7883835,-0.8155494,-0.84274626,-0.8657755,-0.8781237,-0.8806242,-0.8806242,-0.8822603,-0.8822603,-0.8781237,-0.87565404,-0.87979066,-0.8880331,-0.8913053,-0.88556343,-0.87732106,-0.8748514,-0.8789572,-0.8806242,-0.87318444,-0.8657755,-0.86991215,-0.88473,-0.90201735,-0.9094263,-0.88636607,-0.8015651,-0.61384225,-0.302607,0.09923279,0.5043142,0.8081714,0.9357897,0.86497295,0.6245544,0.26472902,-0.14532232,-0.5109204,-0.7587479,-0.87401795,-0.89544195,-0.8822603,-0.88389647,-0.9036535,-0.92341053,-0.9324865,-0.93742573,-0.9440011,-0.94647074,-0.9415315,-0.93165296,-0.9258802,-0.9267137,-0.9291833,-0.9258802,-0.91766864,-0.9094263,-0.904487,-0.90118384,-0.89544195,-0.8905027,-0.8913053,-0.89544195,-0.89624465,-0.8871996,-0.8748514,-0.86907864,-0.8707148,-0.86907864,-0.86083627,-0.8484881,-0.8386096,-0.8361399,-0.8336703,-0.8254279,-0.8130798,-0.80403477,-0.8007316,-0.7941562,-0.7793384,-0.76368713,-0.7505055,-0.7439301,-0.7348542,-0.7150972,-0.69040084,-0.66734064,-0.6492506,-0.6311297,-0.60476637,-0.57182765,-0.5421921,-0.51832926,-0.4944356,-0.46643615,-0.4368006,-0.41210425,-0.3915137,-0.37092316,-0.34786296,-0.32810593,-0.3248337,-0.3396514,-0.36765093,-0.40305918,-0.44504297,-0.4969052,-0.560313,-0.62125117,-0.6731134,-0.7175668,-0.760384,-0.8015651,-0.8336703,-0.8534274,-0.8633059,-0.87648755,-0.89297235,-0.9069566,-0.9102598,-0.9077901,-0.9069566,-0.9110624,-0.913532,-0.9110624,-0.9069566,-0.904487,-0.90859276,-0.9102598,-0.904487,-0.89624465,-0.89297235,-0.89544195,-0.89871424,-0.8970781,-0.8905027,-0.8880331,-0.8888357,-0.8888357,-0.88473,-0.8789572,-0.87979066,-0.8880331,-0.89297235,-0.8905027,-0.88309383,-0.8781237,-0.88389647,-0.8896692,-0.8896692,-0.88473,-0.8806242,-0.8806242,-0.8806242,-0.87648755,-0.8715483,-0.87318444,-0.87979066,-0.88556343,-0.88309383,-0.8781237,-0.87401795,-0.87732106,-0.8781237,-0.87318444,-0.86660904,-0.8657755,-0.8715483,-0.8748514,-0.87401795,-0.86991215,-0.8723818,-0.8814268,-0.8888357,-0.8880331,-0.8806242,-0.8748514,-0.87648755,-0.8789572,-0.8781237,-0.8748514,-0.8748514,-0.8748514,-0.87318444,-0.8657755,-0.8592001,-0.86083627,-0.8707148,-0.87648755,-0.87318444,-0.8649729,-0.86083627,-0.86413944,-0.8657755,-0.8616698,-0.85426086,-0.85179126,-0.8550944,-0.8583666,-0.8526248,-0.84438235,-0.8394431,-0.8394431,-0.8345038,-0.81968606,-0.798262,-0.7768688,-0.760384,-0.74556625,-0.7282788,-0.7118249,-0.70441604,-0.7035825,-0.7076882,-0.71346104,-0.7217034,-0.73652124,-0.75217247,-0.762051,-0.76368713,-0.7760353,-0.8015651,-0.83780694,-0.86907864,-0.88309383,-0.88473,-0.8871996,-0.8970781,-0.9036535,-0.90201735,-0.89297235,-0.88636607,-0.88636607,-0.8880331,-0.88636607,-0.8806242,-0.8781237,-0.87979066,-0.87979066,-0.8781237,-0.8789572,-0.8871996,-0.9069566,-0.92177445,-0.9053205,-0.8163829,-0.61711454,-0.29930383,0.1033386,0.5067837,0.8139132,0.9440012,0.86497295,0.61467576,0.25154746,-0.14942813,-0.5002084,-0.7430966,-0.8649729,-0.89213884,-0.8806242,-0.8814268,-0.904487,-0.9300168,-0.93825924,-0.9308503,-0.92424405,-0.9258802,-0.9291833,-0.9275472,-0.92094094,-0.9160017,-0.9184713,-0.9201383,-0.91766864,-0.9110624,-0.9069566,-0.90859276,-0.9094263,-0.90118384,-0.8888357,-0.8789572,-0.87648755,-0.8748514,-0.86991215,-0.86413944,-0.8583666,-0.8583666,-0.8550944,-0.84438235,-0.8312007,-0.8237918,-0.8237918,-0.8221557,-0.81227714,-0.7990955,-0.789217,-0.78674734,-0.7842777,-0.77439916,-0.7562783,-0.73815733,-0.71923375,-0.6994767,-0.6722799,-0.64431137,-0.6237208,-0.61053914,-0.5965548,-0.5751308,-0.54466176,-0.5150261,-0.4870267,-0.46069425,-0.4326948,-0.40633142,-0.38493836,-0.36845356,-0.35116613,-0.33224255,-0.32153058,-0.32893944,-0.35777235,-0.39728647,-0.4401037,-0.48949635,-0.54713136,-0.61053914,-0.6706438,-0.71840024,-0.7562783,-0.7925201,-0.83286774,-0.8682452,-0.8913053,-0.90285087,-0.9094263,-0.91766864,-0.92424405,-0.92507756,-0.92341053,-0.9226079,-0.9258802,-0.9275472,-0.92341053,-0.9168352,-0.91519904,-0.92341053,-0.9300168,-0.9267137,-0.91766864,-0.90859276,-0.904487,-0.90201735,-0.89624465,-0.8905027,-0.8888357,-0.8946085,-0.8979116,-0.893775,-0.88556343,-0.88309383,-0.8888357,-0.89297235,-0.8905027,-0.8822603,-0.87648755,-0.8789572,-0.8814268,-0.8789572,-0.87401795,-0.8723818,-0.8781237,-0.88309383,-0.8781237,-0.86744255,-0.8592001,-0.8567305,-0.8567305,-0.855897,-0.8526248,-0.8534274,-0.86003363,-0.8616698,-0.8567305,-0.84768546,-0.84274626,-0.8460185,-0.8501551,-0.8501551,-0.8460185,-0.84354883,-0.8460185,-0.8484881,-0.84438235,-0.8386096,-0.83533734,-0.8394431,-0.84191275,-0.83780694,-0.8312007,-0.8295646,-0.8345038,-0.8402766,-0.8402766,-0.83533734,-0.8345038,-0.8394431,-0.84191275,-0.8394431,-0.83286774,-0.82789755,-0.82789755,-0.8229583,-0.8114436,-0.7949897,-0.78014106,-0.77356565,-0.77192956,-0.7727322,-0.77109605,-0.7628536,-0.7430966,-0.7085217,-0.66900766,-0.6475836,-0.6541898,-0.6879312,-0.73238456,-0.77026254,-0.7990955,-0.8237918,-0.8460185,-0.86083627,-0.8633059,-0.857564,-0.855897,-0.8625033,-0.86991215,-0.8715483,-0.8682452,-0.8657755,-0.86991215,-0.87401795,-0.8715483,-0.8649729,-0.86083627,-0.8633059,-0.8657755,-0.86660904,-0.86991215,-0.8806242,-0.89954776,-0.9184713,-0.9127294,-0.8526248,-0.6994767,-0.42939168,-0.055582047,0.35116613,0.6937039,0.87074566,0.8312007,0.5998272,0.24250233,-0.16507941,-0.5290104,-0.77850497,-0.8979116,-0.9118959,-0.8814268,-0.8657755,-0.8822603,-0.90859276,-0.9226079,-0.92094094,-0.91766864,-0.9226079,-0.9267137,-0.92094094,-0.90859276,-0.89871424,-0.8970781,-0.89954776,-0.89954776,-0.893775,-0.8905027,-0.893775,-0.89624465,-0.89297235,-0.88473,-0.87565404,-0.86991215,-0.8649729,-0.8526248,-0.8369734,-0.8295646,-0.8312007,-0.83286774,-0.8262614,-0.8130798,-0.8048682,-0.80403477,-0.80650437,-0.80403477,-0.7925201,-0.77850497,-0.7694599,-0.76121753,-0.7505055,-0.73652124,-0.7249757,-0.71593064,-0.7035825,-0.68215847,-0.655826,-0.6302962,-0.60890305,-0.587479,-0.5594795,-0.5265408,-0.49937487,-0.47878432,-0.45822465,-0.43102783,-0.39975607,-0.37259018,-0.35693884,-0.34539336,-0.33304518,-0.32236403,-0.32400012,-0.3462268,-0.38246864,-0.42775553,-0.47961783,-0.53972244,-0.60476637,-0.666538,-0.71429455,-0.75133896,-0.7826107,-0.81885254,-0.8501551,-0.8715483,-0.88309383,-0.893775,-0.9053205,-0.91519904,-0.9201383,-0.91766864,-0.91766864,-0.92094094,-0.9226079,-0.9160017,-0.9053205,-0.90118384,-0.9053205,-0.9110624,-0.9127294,-0.9077901,-0.904487,-0.9094263,-0.913532,-0.9102598,-0.90118384,-0.893775,-0.8946085,-0.89624465,-0.89544195,-0.8896692,-0.88636607,-0.8905027,-0.8946085,-0.89213884,-0.8822603,-0.87648755,-0.8789572,-0.8814268,-0.8806242,-0.87318444,-0.86744255,-0.8682452,-0.8707148,-0.86744255,-0.8625033,-0.8616698,-0.86660904,-0.8723818,-0.8707148,-0.86413944,-0.86003363,-0.8633059,-0.86744255,-0.86660904,-0.8625033,-0.8625033,-0.86991215,-0.87648755,-0.8748514,-0.8682452,-0.86413944,-0.8657755,-0.8682452,-0.8633059,-0.85179126,-0.84107924,-0.83533734,-0.8270949,-0.8163829,-0.8023986,-0.79005045,-0.78014106,-0.77026254,-0.7546421,-0.73982435,-0.73238456,-0.7348542,-0.7373547,-0.73568773,-0.7348542,-0.73982435,-0.7529751,-0.76862645,-0.7851112,-0.80567086,-0.83203423,-0.8616698,-0.88473,-0.893775,-0.89297235,-0.8946085,-0.90118384,-0.90612316,-0.90201735,-0.8946085,-0.89213884,-0.8979116,-0.9053205,-0.9053205,-0.8979116,-0.89213884,-0.89213884,-0.89213884,-0.8896692,-0.8905027,-0.8979116,-0.91436553,-0.9333199,-0.9349561,-0.89297235,-0.76779294,-0.5323136,-0.18566996,0.21366942,0.5743282,0.7982621,0.8221557,0.6517203,0.33718193,-0.049809396,-0.42528588,-0.70688564,-0.8633059,-0.90612316,-0.8888357,-0.8707148,-0.8822603,-0.9102598,-0.9291833,-0.93165296,-0.9258802,-0.9226079,-0.9201383,-0.91519904,-0.9102598,-0.90859276,-0.91436553,-0.9168352,-0.9102598,-0.89954776,-0.89297235,-0.893775,-0.8970781,-0.893775,-0.88473,-0.8781237,-0.8781237,-0.87732106,-0.87401795,-0.8657755,-0.8592001,-0.8583666,-0.855897,-0.8484881,-0.83780694,-0.8312007,-0.8312007,-0.8312007,-0.8237918,-0.8106102,-0.799929,-0.7941562,-0.78758085,-0.77439916,-0.7579144,-0.74639976,-0.74146044,-0.73652124,-0.72250605,-0.6986432,-0.67394686,-0.6533563,-0.6335993,-0.607236,-0.57843393,-0.55373764,-0.5339497,-0.51339,-0.4845571,-0.45081574,-0.42034662,-0.40058964,-0.3882106,-0.37586242,-0.36681736,-0.37259018,-0.39728647,-0.43516445,-0.4804513,-0.5290104,-0.5841758,-0.64678097,-0.7052187,-0.75217247,-0.7883835,-0.8221557,-0.857564,-0.88636607,-0.90201735,-0.9069566,-0.9102598,-0.92094094,-0.93412256,-0.93989533,-0.93825924,-0.93742573,-0.942365,-0.94647074,-0.9456681,-0.93742573,-0.9308503,-0.9324865,-0.9349561,-0.93412256,-0.9291833,-0.9258802,-0.92838067,-0.9308503,-0.92838067,-0.92177445,-0.9168352,-0.9168352,-0.91766864,-0.91436553,-0.90612316,-0.90118384,-0.9036535,-0.9053205,-0.90285087,-0.8979116,-0.8979116,-0.90285087,-0.9077901,-0.9077901,-0.90118384,-0.8979116,-0.90201735,-0.9053205,-0.90285087,-0.89297235,-0.88636607,-0.8871996,-0.89213884,-0.8946085,-0.89213884,-0.8896692,-0.893775,-0.89871424,-0.89871424,-0.8946085,-0.8913053,-0.8946085,-0.8970781,-0.893775,-0.88636607,-0.8806242,-0.88309383,-0.8905027,-0.89213884,-0.8888357,-0.8871996,-0.8905027,-0.8946085,-0.8905027,-0.8806242,-0.87318444,-0.87318444,-0.87565404,-0.87565404,-0.87318444,-0.8748514,-0.8822603,-0.8871996,-0.88473,-0.87648755,-0.8748514,-0.88309383,-0.89297235,-0.89544195,-0.8905027,-0.88473,-0.88389647,-0.88473,-0.8822603,-0.8781237,-0.87648755,-0.8806242,-0.88473,-0.88309383,-0.87401795,-0.86991215,-0.8715483,-0.8748514,-0.87318444,-0.8633059,-0.85095775,-0.8386096,-0.8246253,-0.8023986,-0.77439916,-0.7538086,-0.74229395,-0.73652124,-0.7299149,-0.7217034,-0.72250605,-0.73652124,-0.7538086,-0.76862645,-0.77356565,-0.7752018,-0.7842777,-0.8007316,-0.8204887,-0.84107924,-0.86413944,-0.8888357,-0.9036535,-0.9069566,-0.9003812,-0.89213884,-0.89213884,-0.893775,-0.89297235,-0.8896692,-0.8880331,-0.89297235,-0.8970781,-0.8946085,-0.8880331,-0.88473,-0.89297235,-0.90285087,-0.9110624,-0.91436553,-0.9069566,-0.855897,-0.71262753,-0.44090635,-0.06299096,0.34375727,0.6838255,0.8764876,0.8789573,0.6978098,0.37092316,-0.03415805,-0.41867965,-0.6970071,-0.84685194,-0.89624465,-0.89871424,-0.8970781,-0.90859276,-0.9267137,-0.9415315,-0.95060736,-0.95141,-0.9448346,-0.9357896,-0.9324865,-0.93825924,-0.94072884,-0.9365922,-0.9258802,-0.91766864,-0.913532,-0.9127294,-0.90612316,-0.8970781,-0.89297235,-0.89544195,-0.8970781,-0.8913053,-0.8781237,-0.86907864,-0.86660904,-0.86744255,-0.8649729,-0.8567305,-0.8484881,-0.84438235,-0.8394431,-0.82873106,-0.8139133,-0.80403477,-0.8007316,-0.7990955,-0.79005045,-0.7752018,-0.7628536,-0.7562783,-0.74886936,-0.7332181,-0.7076882,-0.6805223,-0.66323495,-0.6492506,-0.6311297,-0.60396373,-0.5751308,-0.551268,-0.52737427,-0.502678,-0.47467852,-0.44834614,-0.42692208,-0.4055289,-0.38246864,-0.358575,-0.3429237,-0.3404541,-0.3462268,-0.35940856,-0.38246864,-0.42281634,-0.4804513,-0.5421921,-0.59488785,-0.64264435,-0.6895982,-0.73815733,-0.7818081,-0.81227714,-0.82873106,-0.84521586,-0.86744255,-0.88556343,-0.893775,-0.8913053,-0.88636607,-0.8888357,-0.89624465,-0.89871424,-0.89544195,-0.89213884,-0.89297235,-0.893775,-0.89213884,-0.88636607,-0.88389647,-0.8880331,-0.89297235,-0.8896692,-0.8781237,-0.86907864,-0.86660904,-0.86991215,-0.8707148,-0.8649729,-0.86083627,-0.86003363,-0.8616698,-0.86003363,-0.8550944,-0.8534274,-0.857564,-0.8633059,-0.86413944,-0.8592001,-0.855897,-0.857564,-0.86003363,-0.86003363,-0.857564,-0.857564,-0.86413944,-0.86991215,-0.86907864,-0.8633059,-0.86083627,-0.86413944,-0.8682452,-0.86744255,-0.86083627,-0.85426086,-0.8534274,-0.8550944,-0.8526248,-0.8484881,-0.8460185,-0.8501551,-0.85426086,-0.8534274,-0.84768546,-0.84521586,-0.84685194,-0.8526248,-0.8550944,-0.8526248,-0.8534274,-0.857564,-0.8625033,-0.8625033,-0.857564,-0.8550944,-0.857564,-0.86083627,-0.86003363,-0.85426086,-0.85179126,-0.8567305,-0.86083627,-0.8592001,-0.85095775,-0.84521586,-0.84685194,-0.85179126,-0.85095775,-0.84521586,-0.8402766,-0.8386096,-0.83203423,-0.8163829,-0.79332274,-0.77026254,-0.7546421,-0.7430966,-0.7282788,-0.71346104,-0.7076882,-0.7150972,-0.72911227,-0.74229395,-0.7480359,-0.75133896,-0.7579144,-0.7661568,-0.77767146,-0.7949897,-0.81968606,-0.8493216,-0.8748514,-0.88636607,-0.8871996,-0.8880331,-0.89213884,-0.8970781,-0.89544195,-0.8896692,-0.88556343,-0.8880331,-0.89297235,-0.89297235,-0.88636607,-0.8806242,-0.8814268,-0.88309383,-0.88473,-0.88556343,-0.89213884,-0.9102598,-0.92341053,-0.90201735,-0.8023986,-0.5891151,-0.2597897,0.14285278,0.5372528,0.8295646,0.94319844,0.85095775,0.58500946,0.20873022,-0.19718456,-0.5430256,-0.7760353,-0.8880331,-0.9094263,-0.89213884,-0.88556343,-0.9053205,-0.92838067,-0.93989533,-0.9357896,-0.9258802,-0.9201383,-0.91766864,-0.913532,-0.90859276,-0.9077901,-0.9118959,-0.9127294,-0.9077901,-0.8979116,-0.8896692,-0.8905027,-0.89213884,-0.8871996,-0.87565404,-0.8657755,-0.86413944,-0.86744255,-0.86660904,-0.86083627,-0.8550944,-0.8550944,-0.855897,-0.85095775,-0.8394431,-0.8295646,-0.8270949,-0.8270949,-0.8229583,-0.8106102,-0.79662585,-0.7859138,-0.7768688,-0.7661568,-0.7480359,-0.7307484,-0.71840024,-0.7076882,-0.69123435,-0.66900766,-0.6475836,-0.6294627,-0.61053914,-0.58500934,-0.5529041,-0.52160156,-0.49857223,-0.47961783,-0.45822465,-0.43186128,-0.40799844,-0.3906802,-0.37916553,-0.36845356,-0.360242,-0.3659839,-0.3915137,-0.43349743,-0.48292094,-0.5331471,-0.587479,-0.6475836,-0.7060521,-0.7546421,-0.7925201,-0.8246253,-0.8583666,-0.8871996,-0.90612316,-0.9160017,-0.9258802,-0.9390618,-0.94977385,-0.95141,-0.9456681,-0.9415315,-0.9448346,-0.9522435,-0.953077,-0.94730425,-0.9415315,-0.942365,-0.94647074,-0.9448346,-0.93742573,-0.9324865,-0.9324865,-0.93412256,-0.9308503,-0.9201383,-0.9110624,-0.90859276,-0.9094263,-0.9077901,-0.90118384,-0.89624465,-0.8979116,-0.9003812,-0.8979116,-0.88636607,-0.8789572,-0.8822603,-0.8896692,-0.893775,-0.8896692,-0.88309383,-0.87979066,-0.87979066,-0.8781237,-0.87318444,-0.8723818,-0.8781237,-0.88389647,-0.8822603,-0.8748514,-0.86991215,-0.87318444,-0.8814268,-0.88473,-0.87979066,-0.87565404,-0.87401795,-0.87565404,-0.87565404,-0.8715483,-0.86991215,-0.87401795,-0.8781237,-0.87732106,-0.86907864,-0.8633059,-0.8633059,-0.86660904,-0.8682452,-0.8657755,-0.8633059,-0.86660904,-0.8707148,-0.8707148,-0.86660904,-0.86413944,-0.8682452,-0.8723818,-0.86991215,-0.86083627,-0.85426086,-0.85426086,-0.857564,-0.85426086,-0.84354883,-0.8361399,-0.8386096,-0.8460185,-0.85095775,-0.84685194,-0.83780694,-0.8312007,-0.8237918,-0.81227714,-0.7990955,-0.7883835,-0.7818081,-0.77356565,-0.7571118,-0.73568773,-0.7217034,-0.7200364,-0.72417307,-0.7274453,-0.7307484,-0.7389908,-0.75544477,-0.77192956,-0.7793384,-0.7834442,-0.798262,-0.8254279,-0.8583666,-0.88309383,-0.89213884,-0.8946085,-0.8979116,-0.89954776,-0.89544195,-0.8880331,-0.88556343,-0.8913053,-0.8979116,-0.8970781,-0.8888357,-0.87979066,-0.87565404,-0.8748514,-0.8723818,-0.8723818,-0.8814268,-0.8970781,-0.9127294,-0.9193048,-0.8970781,-0.8163829,-0.6368716,-0.3347122,0.063824534,0.47551203,0.79579234,0.9357897,0.8682761,0.6245544,0.26389563,-0.14448887,-0.5109204,-0.7628536,-0.8880331,-0.913532,-0.90118384,-0.89954776,-0.9193048,-0.9390618,-0.9431985,-0.93989533,-0.94072884,-0.9440011,-0.9456681,-0.94072884,-0.9357896,-0.9365922,-0.93742573,-0.9333199,-0.9226079,-0.9127294,-0.9102598,-0.90859276,-0.904487,-0.89544195,-0.8905027,-0.89213884,-0.89544195,-0.89297235,-0.88309383,-0.8723818,-0.8682452,-0.86991215,-0.8682452,-0.86083627,-0.85426086,-0.8501551,-0.84438235,-0.83533734,-0.8213222,-0.808974,-0.8023986,-0.79745936,-0.78674734,-0.77192956,-0.7571118,-0.7480359,-0.74062693,-0.7249757,-0.70111287,-0.6764165,-0.6574621,-0.64264435,-0.6237208,-0.5973575,-0.5701915,-0.5463287,-0.5249047,-0.49937487,-0.4689058,-0.44173986,-0.4211493,-0.40469533,-0.38493836,-0.36271167,-0.35116613,-0.35693884,-0.38080168,-0.4170435,-0.45986074,-0.5109204,-0.57182765,-0.6335993,-0.6895982,-0.7348542,-0.77439916,-0.8130798,-0.84768546,-0.87401795,-0.8896692,-0.904487,-0.9193048,-0.9333199,-0.93989533,-0.94072884,-0.9415315,-0.94730425,-0.94977385,-0.94647074,-0.9365922,-0.9291833,-0.93165296,-0.93989533,-0.9431985,-0.93989533,-0.93825924,-0.9390618,-0.9415315,-0.93742573,-0.9275472,-0.9201383,-0.9201383,-0.92177445,-0.9193048,-0.9102598,-0.9003812,-0.89871424,-0.9003812,-0.89624465,-0.8888357,-0.88556343,-0.8896692,-0.89544195,-0.89624465,-0.8888357,-0.88309383,-0.88389647,-0.8905027,-0.8946085,-0.89544195,-0.8970781,-0.89954776,-0.90285087,-0.89871424,-0.8896692,-0.88473,-0.88636607,-0.8905027,-0.8896692,-0.88389647,-0.8806242,-0.88473,-0.8913053,-0.8913053,-0.8880331,-0.8822603,-0.88473,-0.8896692,-0.8880331,-0.8789572,-0.8723818,-0.87318444,-0.87979066,-0.8822603,-0.87565404,-0.86907864,-0.8682452,-0.87318444,-0.87565404,-0.87318444,-0.8682452,-0.8657755,-0.8649729,-0.86413944,-0.86003363,-0.8592001,-0.8657755,-0.8723818,-0.8715483,-0.8649729,-0.86003363,-0.86083627,-0.86413944,-0.8633059,-0.8550944,-0.84685194,-0.84521586,-0.84274626,-0.8270949,-0.80567086,-0.7859138,-0.7727322,-0.76368713,-0.74886936,-0.7274453,-0.7118249,-0.70688564,-0.7118249,-0.71923375,-0.7258092,-0.73568773,-0.74886936,-0.7595814,-0.76368713,-0.7694599,-0.78674734,-0.81968606,-0.85426086,-0.87979066,-0.8888357,-0.8896692,-0.89213884,-0.8970781,-0.8979116,-0.89624465,-0.8946085,-0.89544195,-0.89871424,-0.89624465,-0.8896692,-0.88473,-0.8871996,-0.89297235,-0.89544195,-0.89624465,-0.90118384,-0.913532,-0.9300168,-0.9365922,-0.9127294,-0.8262614,-0.63606894,-0.3248337,0.07864225,0.491966,0.8073379,0.9407289,0.8633368,0.6097057,0.24166894,-0.17085212,-0.5323136,-0.77850497,-0.89213884,-0.9069566,-0.88389647,-0.87648755,-0.89954776,-0.9267137,-0.9390618,-0.9440011,-0.9448346,-0.94647074,-0.9448346,-0.9357896,-0.9258802,-0.92177445,-0.9226079,-0.9184713,-0.90859276,-0.89871424,-0.8946085,-0.89213884,-0.8871996,-0.8748514,-0.8633059,-0.8592001,-0.8592001,-0.8567305,-0.8501551,-0.84521586,-0.8460185,-0.84685194,-0.84191275,-0.8295646,-0.8172164,-0.8106102,-0.8081405,-0.799929,-0.7851112,-0.77192956,-0.7653233,-0.760384,-0.7529751,-0.73982435,-0.72664267,-0.7175668,-0.7101579,-0.6953401,-0.6698103,-0.6418417,-0.62125117,-0.6055999,-0.58584285,-0.56194913,-0.5331471,-0.50761724,-0.4853906,-0.46069425,-0.43186128,-0.40305918,-0.37833208,-0.35530275,-0.3338787,-0.31412166,-0.30834883,-0.31989443,-0.34869647,-0.38327134,-0.4211493,-0.4689058,-0.5282078,-0.5940852,-0.6533563,-0.7019464,-0.7439301,-0.7842777,-0.8213222,-0.8493216,-0.86413944,-0.8715483,-0.8822603,-0.8905027,-0.8970781,-0.89624465,-0.89624465,-0.90285087,-0.9127294,-0.9168352,-0.9127294,-0.90612316,-0.9053205,-0.90859276,-0.9102598,-0.9069566,-0.90201735,-0.90118384,-0.90285087,-0.9003812,-0.89297235,-0.88473,-0.88309383,-0.88389647,-0.88309383,-0.8789572,-0.8748514,-0.87565404,-0.8789572,-0.87732106,-0.8707148,-0.8657755,-0.8682452,-0.8723818,-0.8723818,-0.86660904,-0.8592001,-0.855897,-0.857564,-0.857564,-0.8534274,-0.8526248,-0.857564,-0.8633059,-0.8625033,-0.8534274,-0.84354883,-0.84191275,-0.84354883,-0.84438235,-0.84107924,-0.8386096,-0.84107924,-0.8493216,-0.85179126,-0.84521586,-0.83780694,-0.83780694,-0.84107924,-0.84521586,-0.84521586,-0.84354883,-0.84438235,-0.8484881,-0.84685194,-0.84191275,-0.8394431,-0.84191275,-0.84768546,-0.84685194,-0.8394431,-0.83286774,-0.83203423,-0.83286774,-0.8336703,-0.8270949,-0.8229583,-0.8254279,-0.8295646,-0.8254279,-0.80980754,-0.7916866,-0.7818081,-0.7818081,-0.7826107,-0.77439916,-0.7538086,-0.72333956,-0.6887647,-0.65829563,-0.6418417,-0.6484171,-0.68215847,-0.7299149,-0.7727322,-0.799929,-0.8163829,-0.8303672,-0.84274626,-0.85095775,-0.85179126,-0.85095775,-0.8534274,-0.86083627,-0.8633059,-0.8583666,-0.8550944,-0.857564,-0.86413944,-0.8657755,-0.8592001,-0.8526248,-0.8526248,-0.8583666,-0.8633059,-0.8649729,-0.86991215,-0.88389647,-0.90285087,-0.89297235,-0.80980754,-0.6146449,-0.302607,0.08768737,0.47387588,0.76041496,0.8583976,0.7398244,0.44667912,0.055582166,-0.3371818,-0.6410082,-0.8221557,-0.88636607,-0.87732106,-0.84768546,-0.8394431,-0.86413944,-0.8979116,-0.9168352,-0.9184713,-0.9110624,-0.9053205,-0.90612316,-0.9069566,-0.90285087,-0.8979116,-0.8970781,-0.89871424,-0.89871424,-0.89297235,-0.8871996,-0.8871996,-0.8888357,-0.88473,-0.8748514,-0.8657755,-0.8649729,-0.8715483,-0.8723818,-0.8625033,-0.8493216,-0.84191275,-0.8394431,-0.8361399,-0.8270949,-0.8147468,-0.8081405,-0.8048682,-0.79745936,-0.7834442,-0.76779294,-0.7571118,-0.75133896,-0.7439301,-0.7307484,-0.71593064,-0.702749,-0.6879312,-0.666538,-0.6393721,-0.61384225,-0.59488785,-0.5776004,-0.5545402,-0.5232686,-0.49032986,-0.4648,-0.4458456,-0.42281634,-0.39481682,-0.36681736,-0.34706038,-0.3347122,-0.32730323,-0.32730323,-0.3396514,-0.37175667,-0.4211493,-0.47304243,-0.5199654,-0.5701915,-0.62699306,-0.6862951,-0.73815733,-0.7760353,-0.80567086,-0.8345038,-0.8616698,-0.87979066,-0.8871996,-0.8905027,-0.89871424,-0.9110624,-0.9193048,-0.9184713,-0.91519904,-0.91436553,-0.9168352,-0.91436553,-0.9077901,-0.9036535,-0.9036535,-0.90859276,-0.9118959,-0.904487,-0.89954776,-0.89954776,-0.90285087,-0.90201735,-0.89297235,-0.88389647,-0.8806242,-0.8822603,-0.87979066,-0.86991215,-0.86083627,-0.8583666,-0.86003363,-0.857564,-0.8493216,-0.84107924,-0.84354883,-0.8526248,-0.86003363,-0.8592001,-0.8550944,-0.85179126,-0.85095775,-0.84685194,-0.8386096,-0.8312007,-0.8312007,-0.8369734,-0.84107924,-0.8402766,-0.8394431,-0.84354883,-0.8493216,-0.8501551,-0.84191275,-0.8345038,-0.83203423,-0.8345038,-0.83533734,-0.83203423,-0.8270949,-0.82873106,-0.83203423,-0.82873106,-0.8172164,-0.8073379,-0.8048682,-0.81227714,-0.81885254,-0.8204887,-0.8204887,-0.8213222,-0.8246253,-0.8270949,-0.8221557,-0.81885254,-0.81968606,-0.8254279,-0.82873106,-0.8229583,-0.8147468,-0.8073379,-0.8023986,-0.7916866,-0.7752018,-0.760384,-0.7571118,-0.7661568,-0.77356565,-0.76452065,-0.7389908,-0.7035825,-0.6722799,-0.6549925,-0.6533563,-0.67558306,-0.71262753,-0.7571118,-0.7949897,-0.8163829,-0.8312007,-0.84438235,-0.85426086,-0.86003363,-0.86003363,-0.8592001,-0.8625033,-0.86660904,-0.8657755,-0.857564,-0.8493216,-0.8484881,-0.85179126,-0.85426086,-0.8493216,-0.84354883,-0.84521586,-0.8526248,-0.8649729,-0.87318444,-0.88389647,-0.89544195,-0.8871996,-0.81227714,-0.62699306,-0.32563627,0.050642967,0.42528605,0.7159306,0.8493217,0.7842778,0.5372528,0.16674638,-0.23589605,-0.5685554,-0.77850497,-0.87401795,-0.8913053,-0.8789572,-0.87318444,-0.88636607,-0.9102598,-0.93165296,-0.93825924,-0.9308503,-0.9201383,-0.9160017,-0.9168352,-0.9168352,-0.913532,-0.90859276,-0.9069566,-0.90859276,-0.90612316,-0.8970781,-0.8880331,-0.88556343,-0.8871996,-0.88556343,-0.8789572,-0.8715483,-0.86907864,-0.8707148,-0.86744255,-0.8550944,-0.84107924,-0.8345038,-0.8345038,-0.8312007,-0.8229583,-0.8130798,-0.808974,-0.808974,-0.8048682,-0.7949897,-0.78097457,-0.77192956,-0.76452065,-0.75133896,-0.7315819,-0.7118249,-0.6986432,-0.68712854,-0.6714773,-0.6484171,-0.6228873,-0.6031302,-0.5866455,-0.5660858,-0.53972244,-0.5125565,-0.48949635,-0.46973926,-0.44667912,-0.41951317,-0.3939833,-0.38080168,-0.37669593,-0.37505978,-0.37752938,-0.3915137,-0.42608857,-0.47798163,-0.53561664,-0.58831245,-0.63606894,-0.68462807,-0.7332181,-0.7752018,-0.80650437,-0.8303672,-0.8550944,-0.8789572,-0.8970781,-0.90285087,-0.904487,-0.9069566,-0.9127294,-0.91766864,-0.9168352,-0.91519904,-0.9168352,-0.9201383,-0.9201383,-0.91436553,-0.9077901,-0.9053205,-0.9077901,-0.90612316,-0.8970781,-0.8871996,-0.88389647,-0.8896692,-0.89297235,-0.893775,-0.8913053,-0.8905027,-0.8913053,-0.8880331,-0.8781237,-0.86991215,-0.86991215,-0.87565404,-0.8789572,-0.87318444,-0.8649729,-0.86083627,-0.8625033,-0.8625033,-0.8592001,-0.85426086,-0.85426086,-0.8592001,-0.86083627,-0.855897,-0.85179126,-0.8526248,-0.8583666,-0.8633059,-0.8625033,-0.8625033,-0.86660904,-0.87318444,-0.87318444,-0.8649729,-0.857564,-0.857564,-0.8616698,-0.8625033,-0.8567305,-0.85095775,-0.85179126,-0.8592001,-0.8625033,-0.8583666,-0.8534274,-0.85426086,-0.8592001,-0.8625033,-0.8592001,-0.85426086,-0.8534274,-0.8592001,-0.8616698,-0.8567305,-0.85179126,-0.85095775,-0.85426086,-0.8550944,-0.85095775,-0.8460185,-0.84768546,-0.8526248,-0.8526248,-0.84274626,-0.82789755,-0.8172164,-0.80980754,-0.8007316,-0.79005045,-0.7851112,-0.7883835,-0.78674734,-0.76452065,-0.7208699,-0.67721915,-0.6599318,-0.67474955,-0.7060521,-0.7373547,-0.76368713,-0.7908531,-0.8204887,-0.84438235,-0.8567305,-0.86083627,-0.8657755,-0.87318444,-0.8789572,-0.8781237,-0.8748514,-0.8789572,-0.8871996,-0.89213884,-0.8880331,-0.87979066,-0.8748514,-0.87648755,-0.87648755,-0.8707148,-0.8657755,-0.8715483,-0.88556343,-0.8970781,-0.90285087,-0.8905027,-0.82873106,-0.6698103,-0.38493836,0.0028864145,0.41127086,0.7381574,0.9053205,0.8814268,0.6797198,0.34459078,-0.061354876,-0.44337595,-0.71346104,-0.85426086,-0.893775,-0.89297235,-0.8979116,-0.91766864,-0.93825924,-0.94813776,-0.95141,-0.9538796,-0.95060736,-0.942365,-0.93412256,-0.9308503,-0.9333199,-0.9324865,-0.92424405,-0.91519904,-0.9127294,-0.91436553,-0.9127294,-0.9036535,-0.89297235,-0.8896692,-0.89213884,-0.89213884,-0.8822603,-0.86991215,-0.86413944,-0.8649729,-0.8633059,-0.855897,-0.84768546,-0.84354883,-0.84521586,-0.84274626,-0.8303672,-0.8163829,-0.8081405,-0.8081405,-0.8073379,-0.79745936,-0.7818081,-0.7661568,-0.7529751,-0.7373547,-0.71676415,-0.6953401,-0.67805266,-0.66487104,-0.6475836,-0.6228873,-0.5940852,-0.5685554,-0.54713136,-0.5232686,-0.4936021,-0.4631639,-0.4392702,-0.42198277,-0.40469533,-0.38493836,-0.36765093,-0.36104465,-0.369287,-0.38574088,-0.40880114,-0.44420946,-0.4944356,-0.55620724,-0.61794806,-0.6714773,-0.71840024,-0.76368713,-0.8073379,-0.8402766,-0.86003363,-0.8715483,-0.8814268,-0.89544195,-0.90859276,-0.91436553,-0.9193048,-0.9267137,-0.9349561,-0.93742573,-0.93165296,-0.9226079,-0.91766864,-0.9184713,-0.9168352,-0.9110624,-0.9069566,-0.9077901,-0.9184713,-0.9267137,-0.92424405,-0.91766864,-0.9118959,-0.9094263,-0.90612316,-0.89954776,-0.89297235,-0.8913053,-0.89624465,-0.89871424,-0.89544195,-0.8896692,-0.8880331,-0.89213884,-0.89297235,-0.8871996,-0.8806242,-0.87732106,-0.8789572,-0.8822603,-0.87979066,-0.87732106,-0.8822603,-0.8888357,-0.8913053,-0.88636607,-0.87732106,-0.8748514,-0.8789572,-0.8814268,-0.8781237,-0.87401795,-0.87401795,-0.8806242,-0.88473,-0.8806242,-0.87318444,-0.87318444,-0.8781237,-0.8814268,-0.87565404,-0.8657755,-0.8625033,-0.8682452,-0.87401795,-0.8707148,-0.86083627,-0.85426086,-0.85426086,-0.85426086,-0.85179126,-0.8484881,-0.85095775,-0.8592001,-0.86413944,-0.86083627,-0.8534274,-0.85179126,-0.857564,-0.86083627,-0.8592001,-0.855897,-0.8567305,-0.86413944,-0.86991215,-0.86907864,-0.8633059,-0.86003363,-0.86003363,-0.8567305,-0.84438235,-0.82789755,-0.8139133,-0.80320126,-0.7883835,-0.7669903,-0.7439301,-0.7282788,-0.72417307,-0.72417307,-0.72417307,-0.7249757,-0.73238456,-0.74886936,-0.760384,-0.76368713,-0.7653233,-0.7768688,-0.80567086,-0.83533734,-0.8583666,-0.86991215,-0.87648755,-0.88389647,-0.8888357,-0.8871996,-0.88309383,-0.8822603,-0.88556343,-0.88636607,-0.8806242,-0.8715483,-0.86907864,-0.87318444,-0.87732106,-0.87648755,-0.8748514,-0.8814268,-0.8946085,-0.90612316,-0.913532,-0.90612316,-0.8567305,-0.71593064,-0.4458456,-0.061354876,0.36024213,0.7118249,0.9102597,0.9135629,0.73568773,0.41704345,0.0160681,-0.37752938,-0.67394686,-0.8386096,-0.89213884,-0.8905027,-0.8871996,-0.8970781,-0.913532,-0.92424405,-0.93165296,-0.9365922,-0.93825924,-0.93412256,-0.9258802,-0.92507756,-0.9300168,-0.9333199,-0.9291833,-0.9201383,-0.91519904,-0.9160017,-0.91519904,-0.90859276,-0.89871424,-0.89297235,-0.893775,-0.89544195,-0.8905027,-0.8822603,-0.87732106,-0.87648755,-0.87401795,-0.8649729,-0.8526248,-0.84438235,-0.84354883,-0.8386096,-0.82789755,-0.8139133,-0.80650437,-0.80567086,-0.8048682,-0.79662585,-0.78097457,-0.76452065,-0.7505055,-0.73652124,-0.71840024,-0.6986432,-0.68215847,-0.66487104,-0.64264435,-0.6113726,-0.57843393,-0.5520706,-0.53067744,-0.50761724,-0.4804513,-0.44998223,-0.42692208,-0.40963465,-0.3906802,-0.37012053,-0.3503635,-0.34128755,-0.34869647,-0.36434782,-0.38657445,-0.41951317,-0.46643615,-0.5257382,-0.587479,-0.64264435,-0.69206786,-0.74062693,-0.789217,-0.82789755,-0.85179126,-0.86907864,-0.88636607,-0.9077901,-0.92094094,-0.92341053,-0.9184713,-0.91766864,-0.9258802,-0.93165296,-0.9300168,-0.9226079,-0.9193048,-0.9226079,-0.92507756,-0.92094094,-0.9127294,-0.90612316,-0.9053205,-0.90285087,-0.89624465,-0.8888357,-0.8871996,-0.89213884,-0.89544195,-0.8913053,-0.88389647,-0.8822603,-0.88473,-0.88636607,-0.8822603,-0.87401795,-0.8682452,-0.86991215,-0.86991215,-0.8657755,-0.86003363,-0.8592001,-0.86660904,-0.8723818,-0.8715483,-0.86744255,-0.8657755,-0.8682452,-0.86991215,-0.86744255,-0.86413944,-0.86413944,-0.86991215,-0.8748514,-0.8723818,-0.86991215,-0.86991215,-0.87318444,-0.8723818,-0.8633059,-0.855897,-0.8550944,-0.8633059,-0.86991215,-0.86907864,-0.8633059,-0.86083627,-0.86413944,-0.8682452,-0.86660904,-0.8633059,-0.86413944,-0.86991215,-0.8723818,-0.8682452,-0.86083627,-0.8592001,-0.8649729,-0.86907864,-0.8649729,-0.8550944,-0.8501551,-0.85426086,-0.8616698,-0.86413944,-0.8592001,-0.85426086,-0.8526248,-0.85179126,-0.84768546,-0.84191275,-0.8402766,-0.84274626,-0.8402766,-0.82873106,-0.8106102,-0.7925201,-0.7834442,-0.77192956,-0.7538086,-0.7315819,-0.7150972,-0.7060521,-0.70111287,-0.6986432,-0.70027936,-0.7109914,-0.7307484,-0.7480359,-0.75544477,-0.7587479,-0.7694599,-0.7925201,-0.81968606,-0.84274626,-0.8583666,-0.8723818,-0.8871996,-0.89624465,-0.8970781,-0.8913053,-0.88636607,-0.8871996,-0.8871996,-0.88309383,-0.8789572,-0.8789572,-0.88309383,-0.88389647,-0.87732106,-0.8707148,-0.87401795,-0.8880331,-0.90285087,-0.9127294,-0.9118959,-0.8781237,-0.77192956,-0.5463287,-0.19638199,0.21860874,0.5990244,0.85179126,0.9217745,0.7982621,0.5174959,0.13217151,-0.2795468,-0.61384225,-0.81801903,-0.89871424,-0.9069566,-0.89954776,-0.9102598,-0.9308503,-0.94730425,-0.953077,-0.953077,-0.94894034,-0.942365,-0.9357896,-0.9357896,-0.9415315,-0.9431985,-0.93825924,-0.9267137,-0.9184713,-0.9160017,-0.91436553,-0.9069566,-0.8970781,-0.8905027,-0.8896692,-0.8880331,-0.88389647,-0.87565404,-0.87401795,-0.8789572,-0.87979066,-0.8715483,-0.8550944,-0.8460185,-0.84768546,-0.85095775,-0.8501551,-0.84107924,-0.8303672,-0.8237918,-0.8147468,-0.8015651,-0.7834442,-0.7669903,-0.7562783,-0.7439301,-0.7258092,-0.7035825,-0.68462807,-0.66900766,-0.65005326,-0.6237208,-0.5932517,-0.5652523,-0.5430256,-0.5199654,-0.49113244,-0.4614969,-0.43763405,-0.41867965,-0.39892262,-0.37259018,-0.34706038,-0.33551478,-0.3404541,-0.35777235,-0.38080168,-0.41127074,-0.45655763,-0.5150261,-0.57676697,-0.63276577,-0.6838255,-0.7348542,-0.7851112,-0.8270949,-0.8526248,-0.86744255,-0.87979066,-0.8979116,-0.91436553,-0.92341053,-0.9267137,-0.9300168,-0.9365922,-0.93825924,-0.9308503,-0.92094094,-0.91519904,-0.9184713,-0.9226079,-0.92094094,-0.9127294,-0.9077901,-0.9077901,-0.90612316,-0.90201735,-0.89624465,-0.89544195,-0.90201735,-0.9069566,-0.90285087,-0.89213884,-0.8871996,-0.8896692,-0.8946085,-0.8946085,-0.8880331,-0.88473,-0.8880331,-0.89213884,-0.8888357,-0.8806242,-0.87565404,-0.87732106,-0.8806242,-0.87979066,-0.87401795,-0.86991215,-0.87401795,-0.8781237,-0.87648755,-0.8715483,-0.86907864,-0.8715483,-0.8748514,-0.8723818,-0.8657755,-0.8625033,-0.86744255,-0.8715483,-0.8707148,-0.86907864,-0.8715483,-0.87979066,-0.88473,-0.8806242,-0.86660904,-0.8567305,-0.8567305,-0.8625033,-0.86660904,-0.86660904,-0.86744255,-0.8723818,-0.8748514,-0.8715483,-0.86413944,-0.8583666,-0.86003363,-0.86413944,-0.8633059,-0.8567305,-0.8550944,-0.8592001,-0.8633059,-0.86083627,-0.8567305,-0.855897,-0.86083627,-0.86413944,-0.86003363,-0.8501551,-0.84521586,-0.84685194,-0.84685194,-0.83780694,-0.8204887,-0.80320126,-0.7925201,-0.78014106,-0.7587479,-0.7332181,-0.71346104,-0.70441604,-0.7019464,-0.6994767,-0.6994767,-0.70688564,-0.72333956,-0.73815733,-0.7447636,-0.7447636,-0.75217247,-0.77850497,-0.81227714,-0.84191275,-0.8616698,-0.87318444,-0.88309383,-0.8888357,-0.8880331,-0.8822603,-0.87979066,-0.88309383,-0.88556343,-0.8814268,-0.87401795,-0.87318444,-0.8814268,-0.8896692,-0.8905027,-0.8822603,-0.87565404,-0.8806242,-0.89297235,-0.904487,-0.913532,-0.90285087,-0.8369734,-0.66159874,-0.35530275,0.047339797,0.4590273,0.7760354,0.9267137,0.8806243,0.6566595,0.30260706,-0.11405057,-0.4878602,-0.7430966,-0.86660904,-0.89544195,-0.8880331,-0.88636607,-0.90285087,-0.92177445,-0.93165296,-0.93825924,-0.93989533,-0.9365922,-0.93165296,-0.9291833,-0.9291833,-0.9258802,-0.91766864,-0.9077901,-0.90285087,-0.9053205,-0.90612316,-0.89954776,-0.8905027,-0.88473,-0.88389647,-0.88309383,-0.87732106,-0.86660904,-0.86083627,-0.8616698,-0.86083627,-0.8526248,-0.84274626,-0.83780694,-0.8386096,-0.8369734,-0.82789755,-0.8130798,-0.8015651,-0.798262,-0.79332274,-0.7826107,-0.7653233,-0.75133896,-0.74229395,-0.73238456,-0.7150972,-0.69206786,-0.6731134,-0.66159874,-0.6492506,-0.6286601,-0.60066056,-0.57266116,-0.551268,-0.5298439,-0.502678,-0.46973926,-0.43843675,-0.41621,-0.39561945,-0.37422627,-0.35116613,-0.33798444,-0.33798444,-0.34786296,-0.3659839,-0.3906802,-0.43433094,-0.4936021,-0.5553737,-0.61053914,-0.65829563,-0.7052187,-0.7587479,-0.8073379,-0.84274626,-0.8649729,-0.8814268,-0.9003812,-0.9168352,-0.9275472,-0.9324865,-0.9365922,-0.9440011,-0.94813776,-0.9456681,-0.93825924,-0.93412256,-0.9390618,-0.9440011,-0.9431985,-0.93742573,-0.9333199,-0.93412256,-0.9357896,-0.93165296,-0.92341053,-0.91766864,-0.9201383,-0.92507756,-0.92177445,-0.9118959,-0.904487,-0.90285087,-0.9036535,-0.90201735,-0.8970781,-0.89544195,-0.89954776,-0.90118384,-0.8979116,-0.8880331,-0.8822603,-0.88636607,-0.8913053,-0.89213884,-0.8871996,-0.88473,-0.88636607,-0.8880331,-0.88473,-0.8781237,-0.87565404,-0.8814268,-0.8896692,-0.89213884,-0.8896692,-0.8880331,-0.8888357,-0.89213884,-0.8888357,-0.8814268,-0.8781237,-0.8806242,-0.88556343,-0.88473,-0.8781237,-0.87401795,-0.87648755,-0.8806242,-0.8789572,-0.8707148,-0.86413944,-0.8657755,-0.8715483,-0.8748514,-0.87318444,-0.8715483,-0.8715483,-0.86991215,-0.8649729,-0.8567305,-0.85426086,-0.857564,-0.86003363,-0.8567305,-0.84768546,-0.83780694,-0.83203423,-0.8246253,-0.808974,-0.79005045,-0.77850497,-0.78097457,-0.79005045,-0.79005045,-0.77109605,-0.7373547,-0.70111287,-0.6714773,-0.65912914,-0.66900766,-0.70111287,-0.7497029,-0.79745936,-0.8312007,-0.8493216,-0.8616698,-0.8723818,-0.8789572,-0.8814268,-0.87565404,-0.8715483,-0.87401795,-0.87732106,-0.8781237,-0.87401795,-0.87401795,-0.8781237,-0.8822603,-0.8822603,-0.87648755,-0.8723818,-0.87318444,-0.87648755,-0.87732106,-0.87648755,-0.88389647,-0.8970781,-0.8871996,-0.80403477,-0.60396373,-0.2852887,0.107444406,0.48869383,0.7678238,0.86497295,0.75050545,0.46149695,0.07450569,-0.31989443,-0.6261904,-0.80980754,-0.8822603,-0.8814268,-0.857564,-0.8501551,-0.86907864,-0.89954776,-0.9201383,-0.92094094,-0.9102598,-0.9003812,-0.8979116,-0.89871424,-0.8979116,-0.893775,-0.8913053,-0.8913053,-0.8888357,-0.8781237,-0.8657755,-0.86003363,-0.86083627,-0.86413944,-0.8625033,-0.8534274,-0.84768546,-0.8484881,-0.8501551,-0.84438235,-0.83286774,-0.8229583,-0.81968606,-0.8172164,-0.8114436,-0.8015651,-0.7925201,-0.79005045,-0.78758085,-0.78014106,-0.7661568,-0.7529751,-0.74639976,-0.74062693,-0.7282788,-0.70688564,-0.6854616,-0.66487104,-0.6492506,-0.6311297,-0.60890305,-0.58584285,-0.5644188,-0.5413586,-0.5109204,-0.47798163,-0.4491487,-0.42775553,-0.4055289,-0.37916553,-0.34869647,-0.32563627,-0.31575775,-0.31412166,-0.31328815,-0.31742477,-0.33798444,-0.3799991,-0.43763405,-0.49610257,-0.5479649,-0.60066056,-0.65829563,-0.71429455,-0.76121753,-0.79579234,-0.8221557,-0.84768546,-0.86660904,-0.87401795,-0.87318444,-0.87732106,-0.8880331,-0.89871424,-0.90201735,-0.89544195,-0.8905027,-0.893775,-0.8979116,-0.89624465,-0.8888357,-0.88473,-0.8888357,-0.89213884,-0.8905027,-0.8822603,-0.87732106,-0.8806242,-0.88473,-0.88309383,-0.8723818,-0.8625033,-0.86003363,-0.86083627,-0.86003363,-0.85426086,-0.85095775,-0.8526248,-0.8534274,-0.8493216,-0.8402766,-0.8336703,-0.8336703,-0.83533734,-0.83203423,-0.8254279,-0.8229583,-0.8303672,-0.84107924,-0.84438235,-0.83780694,-0.8336703,-0.8345038,-0.8386096,-0.8386096,-0.8336703,-0.8295646,-0.83286774,-0.8386096,-0.8394431,-0.8345038,-0.8295646,-0.8303672,-0.8303672,-0.82789755,-0.8254279,-0.8262614,-0.8361399,-0.8460185,-0.84685194,-0.8394431,-0.83286774,-0.83286774,-0.8336703,-0.83203423,-0.8270949,-0.8246253,-0.8262614,-0.82873106,-0.8262614,-0.81968606,-0.81801903,-0.8237918,-0.82789755,-0.8237918,-0.8114436,-0.7990955,-0.7925201,-0.78674734,-0.78014106,-0.77439916,-0.7752018,-0.7826107,-0.7834442,-0.762051,-0.7217034,-0.6805223,-0.6599318,-0.6640684,-0.6854616,-0.7175668,-0.7562783,-0.79579234,-0.82789755,-0.84521586,-0.8493216,-0.8526248,-0.86003363,-0.86907864,-0.87318444,-0.86907864,-0.8657755,-0.86991215,-0.8748514,-0.87732106,-0.87401795,-0.8723818,-0.8748514,-0.8781237,-0.87648755,-0.8707148,-0.8715483,-0.8822603,-0.8970781,-0.9077901,-0.9102598,-0.89871424,-0.84191275,-0.6887647,-0.41293776,-0.03746122,0.35283315,0.66490185,0.8163829,0.7760354,0.56278276,0.22024488,-0.17826104,-0.5314801,-0.7669903,-0.8723818,-0.8888357,-0.87401795,-0.86991215,-0.88309383,-0.89954776,-0.9118959,-0.9201383,-0.92424405,-0.92341053,-0.91766864,-0.913532,-0.9127294,-0.91519904,-0.9118959,-0.904487,-0.89954776,-0.8979116,-0.89624465,-0.8871996,-0.8748514,-0.86744255,-0.86907864,-0.87318444,-0.8707148,-0.86083627,-0.85179126,-0.8484881,-0.84685194,-0.84354883,-0.8345038,-0.82789755,-0.8270949,-0.8246253,-0.8139133,-0.79745936,-0.7826107,-0.77439916,-0.77439916,-0.77026254,-0.7595814,-0.7480359,-0.7389908,-0.7282788,-0.7118249,-0.6895982,-0.66900766,-0.65252286,-0.6368716,-0.6146449,-0.587479,-0.5611465,-0.54055595,-0.5207989,-0.49610257,-0.4648,-0.43763405,-0.42034662,-0.4055289,-0.3874079,-0.3651812,-0.34952998,-0.34869647,-0.3618781,-0.3841048,-0.41293776,-0.45655763,-0.51339,-0.5759643,-0.63276577,-0.6796888,-0.72333956,-0.76779294,-0.8081405,-0.8386096,-0.8567305,-0.8707148,-0.8896692,-0.9077901,-0.9184713,-0.9201383,-0.9201383,-0.92341053,-0.9275472,-0.9267137,-0.9184713,-0.9118959,-0.9118959,-0.9160017,-0.9184713,-0.913532,-0.9110624,-0.9127294,-0.91436553,-0.9110624,-0.90118384,-0.893775,-0.89297235,-0.893775,-0.89213884,-0.88636607,-0.88473,-0.8888357,-0.89213884,-0.8888357,-0.87979066,-0.8707148,-0.8723818,-0.8748514,-0.8723818,-0.86660904,-0.8625033,-0.86744255,-0.87565404,-0.8781237,-0.87565404,-0.87318444,-0.87648755,-0.8781237,-0.87648755,-0.86907864,-0.8649729,-0.8707148,-0.8781237,-0.87979066,-0.87318444,-0.86907864,-0.86991215,-0.87401795,-0.8723818,-0.86413944,-0.8583666,-0.8592001,-0.8625033,-0.8625033,-0.857564,-0.85095775,-0.8526248,-0.855897,-0.85426086,-0.84685194,-0.84521586,-0.8501551,-0.86083627,-0.86991215,-0.86744255,-0.86413944,-0.8633059,-0.86413944,-0.86003363,-0.8534274,-0.8484881,-0.85426086,-0.8625033,-0.86744255,-0.86660904,-0.86413944,-0.86907864,-0.87648755,-0.87732106,-0.86991215,-0.86083627,-0.857564,-0.8592001,-0.86003363,-0.8567305,-0.85179126,-0.8460185,-0.83780694,-0.8237918,-0.8023986,-0.7834442,-0.76779294,-0.7529751,-0.7348542,-0.71676415,-0.70688564,-0.7101579,-0.7217034,-0.73238456,-0.73652124,-0.7430966,-0.7538086,-0.76452065,-0.77439916,-0.79005045,-0.8130798,-0.84354883,-0.8707148,-0.88389647,-0.88389647,-0.88556343,-0.89213884,-0.89871424,-0.89544195,-0.88556343,-0.87979066,-0.87979066,-0.88556343,-0.8822603,-0.87318444,-0.8682452,-0.8723818,-0.88389647,-0.89624465,-0.90201735,-0.90612316,-0.9160017,-0.9193048,-0.8806242,-0.7571118,-0.51749575,-0.17001867,0.23262393,0.6031302,0.8583976,0.92507756,0.79085314,0.49610257,0.109914064,-0.28201646,-0.5973575,-0.799929,-0.89213884,-0.9094263,-0.89871424,-0.9036535,-0.9291833,-0.953077,-0.9596524,-0.94813776,-0.9333199,-0.9275472,-0.93165296,-0.9357896,-0.9324865,-0.9258802,-0.92424405,-0.92507756,-0.92177445,-0.91519904,-0.9077901,-0.90612316,-0.9069566,-0.9036535,-0.89624465,-0.8888357,-0.8871996,-0.8871996,-0.88309383,-0.8723818,-0.86413944,-0.8625033,-0.86413944,-0.86003363,-0.8484881,-0.83780694,-0.8303672,-0.8246253,-0.8172164,-0.80403477,-0.7916866,-0.7883835,-0.7859138,-0.77356565,-0.7546421,-0.73652124,-0.7258092,-0.7175668,-0.7035825,-0.6796888,-0.6541898,-0.63193226,-0.6097056,-0.5841758,-0.5529041,-0.52160156,-0.49773872,-0.47467852,-0.44751263,-0.4170435,-0.39234722,-0.37833208,-0.37092316,-0.36351424,-0.35530275,-0.360242,-0.38246864,-0.41951317,-0.4639665,-0.50845075,-0.5611465,-0.62041765,-0.6805223,-0.7315819,-0.7694599,-0.8015651,-0.8345038,-0.8649729,-0.88556343,-0.89544195,-0.90201735,-0.9110624,-0.9201383,-0.92341053,-0.9193048,-0.91436553,-0.91519904,-0.92094094,-0.92094094,-0.9184713,-0.91519904,-0.9168352,-0.9193048,-0.9160017,-0.9069566,-0.90285087,-0.90612316,-0.9118959,-0.9102598,-0.9003812,-0.8905027,-0.8905027,-0.89544195,-0.8970781,-0.89297235,-0.8871996,-0.8871996,-0.8896692,-0.8888357,-0.88309383,-0.8789572,-0.8814268,-0.88556343,-0.88636607,-0.8806242,-0.8789572,-0.88473,-0.8946085,-0.8979116,-0.89213884,-0.88389647,-0.8822603,-0.88473,-0.88389647,-0.8781237,-0.8723818,-0.87401795,-0.8806242,-0.8822603,-0.8781237,-0.8748514,-0.87565404,-0.8789572,-0.8781237,-0.8723818,-0.86907864,-0.86907864,-0.87401795,-0.87401795,-0.86744255,-0.8625033,-0.8657755,-0.8707148,-0.8715483,-0.86744255,-0.8649729,-0.8633059,-0.8649729,-0.8616698,-0.85426086,-0.8526248,-0.86083627,-0.87318444,-0.87565404,-0.8649729,-0.8534274,-0.85095775,-0.8526248,-0.8501551,-0.84274626,-0.83780694,-0.8402766,-0.85095775,-0.855897,-0.8484881,-0.8394431,-0.8361399,-0.8369734,-0.8303672,-0.8106102,-0.78674734,-0.76779294,-0.7529751,-0.73815733,-0.7217034,-0.70935524,-0.70688564,-0.71593064,-0.7249757,-0.7332181,-0.7439301,-0.7579144,-0.77109605,-0.78014106,-0.78758085,-0.8023986,-0.8270949,-0.8567305,-0.87732106,-0.8871996,-0.8913053,-0.8970781,-0.9053205,-0.9094263,-0.9053205,-0.89954776,-0.8970781,-0.893775,-0.8871996,-0.8781237,-0.87401795,-0.8789572,-0.88636607,-0.8888357,-0.8871996,-0.8896692,-0.90118384,-0.9193048,-0.9258802,-0.8913053,-0.78014106,-0.560313,-0.22354794,0.1807307,0.569389,0.8394432,0.9185022,0.79085314,0.5018445,0.12062609,-0.2795468,-0.6055999,-0.8114436,-0.8979116,-0.9036535,-0.8896692,-0.8946085,-0.9160017,-0.9333199,-0.9357896,-0.9333199,-0.93825924,-0.9456681,-0.94730425,-0.93989533,-0.9324865,-0.9324865,-0.9365922,-0.93742573,-0.92838067,-0.9160017,-0.9127294,-0.9127294,-0.9110624,-0.90285087,-0.8970781,-0.89544195,-0.89871424,-0.89213884,-0.87401795,-0.8583666,-0.8534274,-0.857564,-0.86083627,-0.8550944,-0.84274626,-0.83286774,-0.82873106,-0.8221557,-0.8130798,-0.80567086,-0.8023986,-0.799929,-0.7916866,-0.7760353,-0.762051,-0.7538086,-0.7480359,-0.73652124,-0.71346104,-0.6862951,-0.66240144,-0.6418417,-0.61958414,-0.59161556,-0.5644188,-0.54055595,-0.5207989,-0.49526906,-0.4639665,-0.43349743,-0.40880114,-0.3874079,-0.36765093,-0.3503635,-0.34459066,-0.36104465,-0.39481682,-0.43433094,-0.47551203,-0.5232686,-0.57923657,-0.6385386,-0.69123435,-0.73568773,-0.7760353,-0.8163829,-0.8550944,-0.8806242,-0.8946085,-0.9036535,-0.9168352,-0.93165296,-0.94072884,-0.9390618,-0.9333199,-0.9324865,-0.93825924,-0.9415315,-0.93825924,-0.93165296,-0.9308503,-0.9333199,-0.9333199,-0.9275472,-0.92177445,-0.9201383,-0.92094094,-0.9168352,-0.90859276,-0.90285087,-0.9053205,-0.9118959,-0.913532,-0.9053205,-0.89544195,-0.8913053,-0.89297235,-0.89213884,-0.88473,-0.8781237,-0.8806242,-0.88556343,-0.8871996,-0.8806242,-0.87401795,-0.87401795,-0.87979066,-0.88309383,-0.8781237,-0.87318444,-0.8748514,-0.8789572,-0.8806242,-0.8781237,-0.87318444,-0.8748514,-0.8789572,-0.87732106,-0.8682452,-0.86083627,-0.8616698,-0.86744255,-0.86991215,-0.8649729,-0.86003363,-0.86003363,-0.8657755,-0.86660904,-0.8616698,-0.855897,-0.8550944,-0.86083627,-0.86413944,-0.8616698,-0.8592001,-0.8633059,-0.86907864,-0.86907864,-0.8625033,-0.8550944,-0.85426086,-0.8592001,-0.86083627,-0.8550944,-0.8484881,-0.84685194,-0.8484881,-0.8493216,-0.84438235,-0.8402766,-0.84274626,-0.8493216,-0.8526248,-0.8484881,-0.84274626,-0.8386096,-0.8336703,-0.8204887,-0.8007316,-0.7793384,-0.76452065,-0.7546421,-0.74146044,-0.72417307,-0.7109914,-0.7085217,-0.7175668,-0.7274453,-0.7332181,-0.7389908,-0.7480359,-0.760384,-0.76862645,-0.78097457,-0.8007316,-0.8303672,-0.8649729,-0.8880331,-0.89544195,-0.8946085,-0.89544195,-0.89871424,-0.89954776,-0.89544195,-0.89213884,-0.8946085,-0.9003812,-0.90285087,-0.8979116,-0.89213884,-0.8913053,-0.89213884,-0.89213884,-0.8913053,-0.89544195,-0.90612316,-0.9193048,-0.91519904,-0.8567305,-0.702749,-0.43349743,-0.060521424,0.35199964,0.7118249,0.9267137,0.9407289,0.75958145,0.43599796,0.036658645,-0.35199964,-0.6508867,-0.82873106,-0.893775,-0.8888357,-0.87401795,-0.88309383,-0.90859276,-0.9275472,-0.9308503,-0.9267137,-0.92507756,-0.9275472,-0.9258802,-0.91766864,-0.90859276,-0.90612316,-0.90859276,-0.9077901,-0.90118384,-0.89213884,-0.8888357,-0.8896692,-0.88636607,-0.8781237,-0.8715483,-0.8715483,-0.87318444,-0.86991215,-0.857564,-0.84685194,-0.84354883,-0.8460185,-0.84438235,-0.83533734,-0.8229583,-0.8155494,-0.81227714,-0.8073379,-0.79745936,-0.7883835,-0.7842777,-0.7826107,-0.77439916,-0.7571118,-0.7373547,-0.7249757,-0.71676415,-0.70441604,-0.682992,-0.6574621,-0.6352354,-0.61711454,-0.59488785,-0.5652523,-0.5339497,-0.5092534,-0.48866284,-0.4656335,-0.43516445,-0.40633142,-0.3841048,-0.37012053,-0.35693884,-0.3429237,-0.3371818,-0.34952998,-0.38163525,-0.42608857,-0.47467852,-0.5282078,-0.58831245,-0.6517202,-0.70688564,-0.75133896,-0.7883835,-0.8246253,-0.8592001,-0.88473,-0.8970781,-0.904487,-0.91436553,-0.9267137,-0.9357896,-0.9357896,-0.9333199,-0.9324865,-0.93412256,-0.9324865,-0.92507756,-0.91766864,-0.91766864,-0.9226079,-0.92507756,-0.9201383,-0.9127294,-0.9094263,-0.90859276,-0.904487,-0.89544195,-0.8871996,-0.88556343,-0.8888357,-0.8896692,-0.88389647,-0.87648755,-0.8748514,-0.8781237,-0.87732106,-0.8682452,-0.86003363,-0.8592001,-0.86413944,-0.86744255,-0.86413944,-0.86083627,-0.86413944,-0.8707148,-0.87401795,-0.86907864,-0.8616698,-0.86083627,-0.86660904,-0.86991215,-0.86744255,-0.8657755,-0.86907864,-0.87648755,-0.8781237,-0.8723818,-0.8657755,-0.86660904,-0.87401795,-0.8789572,-0.87648755,-0.8707148,-0.8682452,-0.8707148,-0.8707148,-0.8649729,-0.86003363,-0.8625033,-0.8707148,-0.87565404,-0.87318444,-0.86991215,-0.86991215,-0.8748514,-0.87648755,-0.8723818,-0.8682452,-0.86907864,-0.87318444,-0.87318444,-0.8657755,-0.86003363,-0.86083627,-0.86660904,-0.86907864,-0.86413944,-0.857564,-0.8534274,-0.855897,-0.8550944,-0.8460185,-0.8336703,-0.8229583,-0.8139133,-0.8007316,-0.78014106,-0.7571118,-0.7373547,-0.72333956,-0.7101579,-0.6970071,-0.6879312,-0.69123435,-0.7052187,-0.72250605,-0.7332181,-0.73815733,-0.7439301,-0.75217247,-0.7661568,-0.7842777,-0.8073379,-0.8345038,-0.8583666,-0.8715483,-0.8723818,-0.8682452,-0.86907864,-0.87318444,-0.87401795,-0.8682452,-0.86083627,-0.8592001,-0.8625033,-0.86413944,-0.86003363,-0.8550944,-0.85426086,-0.8592001,-0.86660904,-0.8707148,-0.87565404,-0.8871996,-0.8880331,-0.83286774,-0.6706438,-0.37916553,0.014401078,0.4326948,0.78264165,0.9810765,0.9736676,0.7661568,0.41127086,-0.010295272,-0.39892262,-0.67721915,-0.83286774,-0.8871996,-0.88389647,-0.8707148,-0.87648755,-0.89871424,-0.92177445,-0.93165296,-0.92507756,-0.913532,-0.9053205,-0.9036535,-0.90118384,-0.893775,-0.88556343,-0.88309383,-0.88473,-0.8822603,-0.8715483,-0.8583666,-0.85179126,-0.85179126,-0.85179126,-0.84438235,-0.83533734,-0.8295646,-0.8295646,-0.8270949,-0.81885254,-0.8081405,-0.8023986,-0.8007316,-0.7941562,-0.78097457,-0.7653233,-0.7546421,-0.74886936,-0.7439301,-0.7332181,-0.72250605,-0.71593064,-0.71262753,-0.7035825,-0.68712854,-0.66817415,-0.6517202,-0.6385386,-0.62125117,-0.5965548,-0.5701915,-0.5479649,-0.5290104,-0.50598115,-0.47304243,-0.4368006,-0.40799844,-0.38657445,-0.3651812,-0.338818,-0.31248552,-0.29189497,-0.2811829,-0.27460754,-0.27294052,-0.28612214,-0.31822747,-0.369287,-0.42608857,-0.48125392,-0.5347832,-0.5924182,-0.6492506,-0.6994767,-0.73652124,-0.7653233,-0.7949897,-0.8246253,-0.84685194,-0.857564,-0.8649729,-0.87401795,-0.8871996,-0.89624465,-0.8946085,-0.8880331,-0.88473,-0.88636607,-0.88556343,-0.8814268,-0.87648755,-0.8781237,-0.88389647,-0.88556343,-0.8789572,-0.8682452,-0.8625033,-0.8625033,-0.8625033,-0.857564,-0.8501551,-0.84685194,-0.8460185,-0.84191275,-0.83286774,-0.8229583,-0.8213222,-0.8262614,-0.8295646,-0.8246253,-0.8155494,-0.8114436,-0.8139133,-0.8139133,-0.8081405,-0.799929,-0.7990955,-0.8073379,-0.8147468,-0.8139133,-0.80980754,-0.808974,-0.8139133,-0.81885254,-0.8163829,-0.81227714,-0.80980754,-0.81227714,-0.8139133,-0.8081405,-0.8015651,-0.8007316,-0.80403477,-0.8073379,-0.8048682,-0.80320126,-0.8073379,-0.8155494,-0.8204887,-0.8155494,-0.8081405,-0.80567086,-0.8073379,-0.80650437,-0.8015651,-0.7925201,-0.7916866,-0.79662585,-0.798262,-0.79005045,-0.7752018,-0.762051,-0.75217247,-0.74062693,-0.7282788,-0.7249757,-0.73238456,-0.74146044,-0.73568773,-0.70688564,-0.6657045,-0.63606894,-0.6286601,-0.6418417,-0.66734064,-0.70111287,-0.7430966,-0.7834442,-0.8106102,-0.8204887,-0.81801903,-0.8172164,-0.8229583,-0.82789755,-0.82789755,-0.8254279,-0.82789755,-0.83203423,-0.8336703,-0.8262614,-0.8172164,-0.8155494,-0.8213222,-0.8246253,-0.81801903,-0.8081405,-0.80650437,-0.8155494,-0.82789755,-0.8394431,-0.84685194,-0.8369734,-0.7669903,-0.5841758,-0.27460754,0.116520286,0.49526918,0.7620511,0.84685194,0.73568773,0.4590273,0.080278516,-0.31328815,-0.62041765,-0.7949897,-0.85179126,-0.84274626,-0.8246253,-0.8254279,-0.84274626,-0.86083627,-0.8723818,-0.87979066,-0.8822603,-0.87732106,-0.8707148,-0.86660904,-0.8682452,-0.8682452,-0.8616698,-0.8526248,-0.84438235,-0.8394431,-0.8345038,-0.8246253,-0.8147468,-0.81227714,-0.81885254,-0.8221557,-0.81801903,-0.808974,-0.8015651,-0.7990955,-0.79662585,-0.78758085,-0.7768688,-0.77109605,-0.77109605,-0.77109605,-0.76368713,-0.7529751,-0.74639976,-0.7447636,-0.7389908,-0.7258092,-0.70935524,-0.6961736,-0.6895982,-0.68135583,-0.6657045,-0.64594746,-0.6278266,-0.6121752,-0.5932517,-0.56688845,-0.53725284,-0.5125565,-0.49196595,-0.47057277,-0.44173986,-0.41293776,-0.38987756,-0.37175667,-0.3528331,-0.3305756,-0.3108185,-0.30424315,-0.31412166,-0.3338787,-0.35940856,-0.39234722,-0.43843675,-0.49610257,-0.55620724,-0.61300874,-0.6640684,-0.71429455,-0.762051,-0.799929,-0.8229583,-0.8369734,-0.85095775,-0.8649729,-0.87565404,-0.8814268,-0.8822603,-0.88636607,-0.893775,-0.8979116,-0.89544195,-0.8913053,-0.8913053,-0.89871424,-0.90118384,-0.89544195,-0.88389647,-0.8781237,-0.8789572,-0.8806242,-0.87732106,-0.8723818,-0.86991215,-0.8723818,-0.87318444,-0.86660904,-0.855897,-0.85095775,-0.85179126,-0.85179126,-0.8460185,-0.8394431,-0.8386096,-0.84438235,-0.8484881,-0.8460185,-0.8402766,-0.8394431,-0.84521586,-0.8493216,-0.84768546,-0.84107924,-0.83780694,-0.8394431,-0.84107924,-0.83780694,-0.8336703,-0.8336703,-0.8386096,-0.84107924,-0.8386096,-0.83286774,-0.83203423,-0.8386096,-0.84354883,-0.84107924,-0.8361399,-0.8345038,-0.8369734,-0.8402766,-0.8386096,-0.8345038,-0.8361399,-0.84354883,-0.84685194,-0.84354883,-0.8361399,-0.83286774,-0.8361399,-0.8402766,-0.8386096,-0.8345038,-0.8345038,-0.8394431,-0.84191275,-0.8369734,-0.8303672,-0.82873106,-0.8336703,-0.8361399,-0.8303672,-0.8204887,-0.8147468,-0.8130798,-0.8081405,-0.79662585,-0.7851112,-0.7826107,-0.7925201,-0.798262,-0.7826107,-0.74556625,-0.702749,-0.6722799,-0.66240144,-0.6706438,-0.6961736,-0.7340516,-0.7768688,-0.8139133,-0.8361399,-0.84768546,-0.8583666,-0.8707148,-0.87979066,-0.8806242,-0.8748514,-0.8707148,-0.87401795,-0.87732106,-0.8748514,-0.86991215,-0.86907864,-0.87318444,-0.87648755,-0.87318444,-0.86660904,-0.86413944,-0.8723818,-0.88473,-0.89297235,-0.90201735,-0.90612316,-0.87979066,-0.77109605,-0.5421921,-0.19801807,0.19638205,0.5545403,0.7949897,0.86086714,0.73568773,0.44914877,0.061354995,-0.3305756,-0.6311297,-0.80403477,-0.86907864,-0.87565404,-0.86744255,-0.8723818,-0.8880331,-0.90612316,-0.92094094,-0.92507756,-0.92094094,-0.913532,-0.9110624,-0.91519904,-0.91766864,-0.913532,-0.904487,-0.89954776,-0.90118384,-0.90285087,-0.8970781,-0.8871996,-0.8789572,-0.8781237,-0.87732106,-0.87318444,-0.8657755,-0.8625033,-0.86413944,-0.8633059,-0.8567305,-0.84685194,-0.84107924,-0.84107924,-0.8394431,-0.8295646,-0.8163829,-0.80650437,-0.80320126,-0.799929,-0.7916866,-0.7793384,-0.76862645,-0.7628536,-0.7529751,-0.73568773,-0.71429455,-0.6970071,-0.6862951,-0.67394686,-0.6541898,-0.6302962,-0.60890305,-0.59161556,-0.571025,-0.5413586,-0.50845075,-0.48125392,-0.4631639,-0.44504297,-0.4211493,-0.39481682,-0.37586242,-0.36845356,-0.37092316,-0.37833208,-0.39481682,-0.42855817,-0.47961783,-0.5380863,-0.5940852,-0.64594746,-0.6961736,-0.7472333,-0.7916866,-0.8237918,-0.84768546,-0.8682452,-0.8888357,-0.90285087,-0.9069566,-0.9077901,-0.9127294,-0.92507756,-0.9357896,-0.93825924,-0.93412256,-0.93165296,-0.93412256,-0.9357896,-0.9308503,-0.92341053,-0.92177445,-0.9275472,-0.93412256,-0.9324865,-0.92507756,-0.9184713,-0.9184713,-0.9184713,-0.91436553,-0.90859276,-0.9077901,-0.9127294,-0.91519904,-0.9118959,-0.90612316,-0.9036535,-0.9069566,-0.9102598,-0.9069566,-0.9003812,-0.8970781,-0.9003812,-0.904487,-0.90118384,-0.89297235,-0.8888357,-0.8896692,-0.8913053,-0.8880331,-0.8814268,-0.8806242,-0.8880331,-0.8970781,-0.89954776,-0.89624465,-0.8946085,-0.8970781,-0.89954776,-0.89544195,-0.8880331,-0.88473,-0.8871996,-0.8888357,-0.88389647,-0.87565404,-0.8707148,-0.87401795,-0.8781237,-0.8781237,-0.87318444,-0.8707148,-0.87318444,-0.8748514,-0.8723818,-0.86744255,-0.86744255,-0.8748514,-0.87979066,-0.8781237,-0.8707148,-0.86660904,-0.86991215,-0.87401795,-0.8715483,-0.8633059,-0.8567305,-0.8567305,-0.8592001,-0.8592001,-0.857564,-0.857564,-0.8625033,-0.8657755,-0.86413944,-0.8592001,-0.8567305,-0.857564,-0.85426086,-0.84191275,-0.8229583,-0.80567086,-0.79579234,-0.7851112,-0.76779294,-0.7480359,-0.7332181,-0.72911227,-0.7299149,-0.7274453,-0.7249757,-0.7299149,-0.7430966,-0.7562783,-0.7595814,-0.7571118,-0.760384,-0.77850497,-0.80650437,-0.83203423,-0.8526248,-0.86744255,-0.88389647,-0.89624465,-0.89871424,-0.89544195,-0.89213884,-0.89297235,-0.8946085,-0.89297235,-0.8888357,-0.88636607,-0.8888357,-0.8888357,-0.8822603,-0.87318444,-0.8715483,-0.88309383,-0.8970781,-0.90612316,-0.9094263,-0.89624465,-0.83286774,-0.6698103,-0.37752938,0.016870618,0.42692208,0.75544477,0.9283807,0.9086236,0.7060522,0.3635143,-0.051445484,-0.4392702,-0.7150972,-0.8625033,-0.9110624,-0.9127294,-0.9118959,-0.9201383,-0.9324865,-0.9431985,-0.95060736,-0.953077,-0.94813776,-0.9415315,-0.9390618,-0.9431985,-0.94813776,-0.94647074,-0.94072884,-0.9365922,-0.93825924,-0.9390618,-0.9333199,-0.92177445,-0.9127294,-0.9094263,-0.90612316,-0.9003812,-0.89213884,-0.8896692,-0.89213884,-0.89213884,-0.88309383,-0.86907864,-0.8583666,-0.8550944,-0.85426086,-0.8484881,-0.8394431,-0.83286774,-0.83286774,-0.8303672,-0.81885254,-0.799929,-0.7842777,-0.77439916,-0.7661568,-0.7538086,-0.7348542,-0.71593064,-0.6994767,-0.68135583,-0.655826,-0.6261904,-0.5998271,-0.57923657,-0.5578434,-0.5298439,-0.49857223,-0.46973926,-0.44834614,-0.42939168,-0.40633142,-0.38163525,-0.3651812,-0.360242,-0.36434782,-0.37422627,-0.3939833,-0.43102783,-0.4845571,-0.5454953,-0.60229677,-0.6541898,-0.7052187,-0.75544477,-0.798262,-0.8295646,-0.85179126,-0.8723818,-0.8946085,-0.9110624,-0.9184713,-0.9193048,-0.92177445,-0.93165296,-0.93989533,-0.9415315,-0.9365922,-0.9324865,-0.9333199,-0.9333199,-0.92838067,-0.9201383,-0.91519904,-0.91766864,-0.9184713,-0.9127294,-0.90118384,-0.89297235,-0.89544195,-0.90118384,-0.90285087,-0.89954776,-0.89954776,-0.90201735,-0.904487,-0.90201735,-0.8946085,-0.8913053,-0.893775,-0.8979116,-0.89624465,-0.8896692,-0.8871996,-0.8913053,-0.89297235,-0.8896692,-0.88309383,-0.8806242,-0.8880331,-0.89544195,-0.89624465,-0.8905027,-0.88556343,-0.8880331,-0.8905027,-0.8888357,-0.88389647,-0.8822603,-0.88636607,-0.8913053,-0.8905027,-0.88389647,-0.87979066,-0.8822603,-0.88473,-0.88309383,-0.87732106,-0.8748514,-0.8789572,-0.8814268,-0.8789572,-0.87318444,-0.8707148,-0.87565404,-0.8806242,-0.8789572,-0.86991215,-0.8633059,-0.8649729,-0.8682452,-0.86744255,-0.86413944,-0.86413944,-0.86907864,-0.87401795,-0.8715483,-0.8633059,-0.8567305,-0.857564,-0.86083627,-0.86083627,-0.8567305,-0.8550944,-0.8583666,-0.86083627,-0.857564,-0.8501551,-0.84521586,-0.8460185,-0.8501551,-0.8493216,-0.8460185,-0.84354883,-0.84768546,-0.8493216,-0.84191275,-0.8270949,-0.8139133,-0.8048682,-0.798262,-0.7834442,-0.762051,-0.74146044,-0.72911227,-0.7217034,-0.71676415,-0.71346104,-0.71840024,-0.7332181,-0.74886936,-0.7562783,-0.75544477,-0.75544477,-0.76862645,-0.7941562,-0.81885254,-0.84107924,-0.86083627,-0.8789572,-0.8905027,-0.8946085,-0.8896692,-0.88636607,-0.8880331,-0.8896692,-0.8880331,-0.88473,-0.88389647,-0.8896692,-0.8946085,-0.89213884,-0.88309383,-0.8789572,-0.88636607,-0.9003812,-0.9102598,-0.9160017,-0.91766864,-0.89544195,-0.799929,-0.58500934,-0.24247152,0.1716857,0.5644188,0.8501551,0.9629556,0.87815464,0.6171454,0.23425996,-0.18650341,-0.53888893,-0.76862645,-0.8789572,-0.9077901,-0.90285087,-0.90118384,-0.9127294,-0.9300168,-0.94647074,-0.9538796,-0.95141,-0.9431985,-0.9390618,-0.942365,-0.9448346,-0.93989533,-0.9267137,-0.91519904,-0.9118959,-0.9127294,-0.9118959,-0.90612316,-0.9003812,-0.89954776,-0.89871424,-0.89297235,-0.88309383,-0.87732106,-0.87979066,-0.88309383,-0.8781237,-0.8649729,-0.8526248,-0.84685194,-0.84438235,-0.83780694,-0.8254279,-0.8130798,-0.80650437,-0.80320126,-0.7949897,-0.7842777,-0.7752018,-0.76862645,-0.7628536,-0.74886936,-0.7274453,-0.7060521,-0.6879312,-0.666538,-0.6410082,-0.61384225,-0.59078205,-0.5751308,-0.55867684,-0.5347832,-0.5035115,-0.47551203,-0.45408797,-0.43186128,-0.40469533,-0.37339276,-0.3503635,-0.34128755,-0.3404541,-0.34459066,-0.35446924,-0.38080168,-0.42528588,-0.47961783,-0.5331471,-0.58584285,-0.64264435,-0.702749,-0.7579144,-0.798262,-0.8237918,-0.84438235,-0.86907864,-0.89213884,-0.9069566,-0.9127294,-0.9168352,-0.92424405,-0.9300168,-0.9300168,-0.92424405,-0.92177445,-0.9267137,-0.9324865,-0.9333199,-0.9275472,-0.92177445,-0.9201383,-0.9193048,-0.9127294,-0.9036535,-0.89871424,-0.90201735,-0.9069566,-0.9069566,-0.89871424,-0.893775,-0.8946085,-0.89544195,-0.8913053,-0.8806242,-0.87318444,-0.8723818,-0.8748514,-0.87318444,-0.86744255,-0.8649729,-0.86991215,-0.87565404,-0.8748514,-0.86991215,-0.86907864,-0.8748514,-0.8814268,-0.87979066,-0.8707148,-0.8625033,-0.86003363,-0.8616698,-0.86083627,-0.855897,-0.8550944,-0.86003363,-0.86413944,-0.8625033,-0.8567305,-0.855897,-0.8616698,-0.8682452,-0.86907864,-0.8633059,-0.86003363,-0.8633059,-0.86660904,-0.8657755,-0.8592001,-0.8550944,-0.8583666,-0.8633059,-0.8633059,-0.8583666,-0.8550944,-0.8583666,-0.8625033,-0.86083627,-0.85426086,-0.84768546,-0.8501551,-0.8550944,-0.857564,-0.855897,-0.8567305,-0.8625033,-0.8682452,-0.86907864,-0.8649729,-0.8633059,-0.86744255,-0.8715483,-0.86907864,-0.8625033,-0.855897,-0.8550944,-0.8567305,-0.85426086,-0.8484881,-0.8460185,-0.8493216,-0.85095775,-0.84521586,-0.8303672,-0.8130798,-0.8007316,-0.789217,-0.7727322,-0.7546421,-0.7389908,-0.7299149,-0.72333956,-0.71429455,-0.70441604,-0.7035825,-0.71593064,-0.73568773,-0.7480359,-0.7505055,-0.7505055,-0.762051,-0.7851112,-0.81227714,-0.8361399,-0.857564,-0.87565404,-0.88556343,-0.88636607,-0.8781237,-0.87648755,-0.8806242,-0.8871996,-0.8880331,-0.8814268,-0.87648755,-0.87732106,-0.8806242,-0.8781237,-0.86991215,-0.8657755,-0.8723818,-0.88636607,-0.8970781,-0.9036535,-0.9069566,-0.88636607,-0.79332274,-0.5776004,-0.23342645,0.18567002,0.58173716,0.86580646,0.9720005,0.8814268,0.6171454,0.2317903,-0.18897307,-0.5413586,-0.76862645,-0.87401795,-0.89871424,-0.893775,-0.89213884,-0.904487,-0.9226079,-0.93825924,-0.9448346,-0.94072884,-0.9291833,-0.9193048,-0.91766864,-0.9184713,-0.9160017,-0.9094263,-0.9036535,-0.90285087,-0.90201735,-0.89624465,-0.88636607,-0.87979066,-0.8814268,-0.88389647,-0.8806242,-0.8707148,-0.8625033,-0.86083627,-0.86083627,-0.855897,-0.84685194,-0.8402766,-0.8402766,-0.8394431,-0.83286774,-0.81885254,-0.8073379,-0.80403477,-0.8023986,-0.7949897,-0.78014106,-0.7669903,-0.7587479,-0.7505055,-0.7340516,-0.7085217,-0.6838255,-0.666538,-0.6517202,-0.6344019,-0.6121752,-0.587479,-0.5677219,-0.5463287,-0.5191319,-0.48619324,-0.45655763,-0.43349743,-0.4145739,-0.38987756,-0.36104465,-0.33798444,-0.32810593,-0.32730323,-0.33224255,-0.34375727,-0.37012053,-0.4145739,-0.47057277,-0.5265408,-0.58007,-0.6368716,-0.6978097,-0.7546421,-0.79745936,-0.8270949,-0.85179126,-0.8781237,-0.90201735,-0.9160017,-0.9193048,-0.92177445,-0.9308503,-0.94072884,-0.9456681,-0.9431985,-0.94072884,-0.9431985,-0.94647074,-0.9440011,-0.9357896,-0.9300168,-0.9308503,-0.9349561,-0.93412256,-0.9267137,-0.92094094,-0.9201383,-0.9201383,-0.91519904,-0.9069566,-0.90201735,-0.90612316,-0.9118959,-0.9110624,-0.90201735,-0.8946085,-0.89213884,-0.893775,-0.89213884,-0.8871996,-0.88556343,-0.8896692,-0.8946085,-0.893775,-0.88473,-0.8789572,-0.87979066,-0.88309383,-0.8822603,-0.87732106,-0.87318444,-0.87732106,-0.8822603,-0.8806242,-0.87318444,-0.86907864,-0.87318444,-0.87979066,-0.8789572,-0.86991215,-0.86083627,-0.8616698,-0.86660904,-0.8682452,-0.8649729,-0.8616698,-0.8649729,-0.8707148,-0.8723818,-0.8682452,-0.86413944,-0.8657755,-0.86907864,-0.8707148,-0.86744255,-0.8657755,-0.8682452,-0.86991215,-0.8649729,-0.8550944,-0.8493216,-0.8534274,-0.86083627,-0.86413944,-0.86003363,-0.8567305,-0.8592001,-0.86413944,-0.8633059,-0.8567305,-0.8526248,-0.855897,-0.86083627,-0.8616698,-0.85426086,-0.8501551,-0.85426086,-0.8583666,-0.8534274,-0.8402766,-0.8246253,-0.8139133,-0.8081405,-0.79745936,-0.77850497,-0.7587479,-0.7439301,-0.73238456,-0.72250605,-0.7118249,-0.70935524,-0.7200364,-0.7348542,-0.74886936,-0.7546421,-0.7595814,-0.76862645,-0.7851112,-0.80650437,-0.8270949,-0.85095775,-0.87318444,-0.8888357,-0.8905027,-0.8806242,-0.87401795,-0.8748514,-0.8789572,-0.8822603,-0.8781237,-0.87401795,-0.8748514,-0.87732106,-0.87565404,-0.86744255,-0.8625033,-0.86744255,-0.8806242,-0.8913053,-0.8979116,-0.9053205,-0.90612316,-0.86413944,-0.72417307,-0.45492148,-0.07286948,0.34622693,0.71018887,0.9365922,0.97036445,0.80567086,0.4820875,0.07123351,-0.32977295,-0.63276577,-0.8130798,-0.88556343,-0.893775,-0.88473,-0.88556343,-0.90118384,-0.9226079,-0.9349561,-0.9349561,-0.9275472,-0.9201383,-0.92177445,-0.9275472,-0.92838067,-0.9226079,-0.9160017,-0.9127294,-0.9110624,-0.9053205,-0.89297235,-0.88389647,-0.8814268,-0.88309383,-0.8806242,-0.8723818,-0.86413944,-0.8625033,-0.8625033,-0.857564,-0.84521586,-0.8336703,-0.8295646,-0.82873106,-0.8246253,-0.8155494,-0.8073379,-0.8048682,-0.80320126,-0.79332274,-0.7760353,-0.7587479,-0.7472333,-0.74146044,-0.7307484,-0.7150972,-0.6994767,-0.6862951,-0.6698103,-0.64594746,-0.6146449,-0.58584285,-0.5652523,-0.5487983,-0.5265408,-0.4969052,-0.46726966,-0.4425733,-0.4211493,-0.39892262,-0.37092316,-0.34706038,-0.33224255,-0.32236403,-0.31575775,-0.31412166,-0.32977295,-0.36845356,-0.42281634,-0.48208743,-0.53641933,-0.5924182,-0.6541898,-0.7150972,-0.7669903,-0.80650437,-0.8361399,-0.8633059,-0.88636607,-0.9003812,-0.90612316,-0.913532,-0.92507756,-0.93412256,-0.9349561,-0.92838067,-0.92507756,-0.92838067,-0.9349561,-0.9365922,-0.9324865,-0.92838067,-0.9300168,-0.9333199,-0.9300168,-0.92177445,-0.9168352,-0.92094094,-0.9258802,-0.92341053,-0.91519904,-0.9077901,-0.90859276,-0.9110624,-0.90859276,-0.89954776,-0.89297235,-0.8946085,-0.89954776,-0.89871424,-0.89297235,-0.8888357,-0.89213884,-0.89624465,-0.8946085,-0.8880331,-0.88389647,-0.8880331,-0.89544195,-0.89624465,-0.8896692,-0.88309383,-0.8822603,-0.88389647,-0.88389647,-0.8781237,-0.8748514,-0.87732106,-0.87979066,-0.87565404,-0.8649729,-0.8583666,-0.8583666,-0.86413944,-0.86660904,-0.8625033,-0.86083627,-0.8633059,-0.86744255,-0.86744255,-0.8616698,-0.8592001,-0.8633059,-0.8682452,-0.8682452,-0.8625033,-0.8583666,-0.8616698,-0.8682452,-0.86907864,-0.8633059,-0.855897,-0.8583666,-0.86413944,-0.86660904,-0.8625033,-0.8583666,-0.8583666,-0.86083627,-0.8583666,-0.85179126,-0.8484881,-0.85426086,-0.8616698,-0.86083627,-0.85095775,-0.84191275,-0.8402766,-0.84191275,-0.83533734,-0.81801903,-0.7990955,-0.7842777,-0.77192956,-0.7546421,-0.7332181,-0.71593064,-0.7109914,-0.7150972,-0.7200364,-0.72417307,-0.73238456,-0.7480359,-0.76368713,-0.77192956,-0.77439916,-0.78758085,-0.8147468,-0.84685194,-0.8715483,-0.8814268,-0.88556343,-0.89213884,-0.89954776,-0.9003812,-0.8946085,-0.8905027,-0.89297235,-0.8970781,-0.89624465,-0.8880331,-0.8789572,-0.8781237,-0.8789572,-0.87565404,-0.87318444,-0.8781237,-0.8913053,-0.9102598,-0.9193048,-0.90118384,-0.8229583,-0.64431137,-0.34212112,0.060521483,0.47634554,0.80073166,0.94319844,0.8723818,0.6245544,0.26059246,-0.15273124,-0.51832926,-0.76779294,-0.88473,-0.8970781,-0.8715483,-0.8633059,-0.8806242,-0.904487,-0.9160017,-0.9184713,-0.92094094,-0.9258802,-0.92424405,-0.9168352,-0.9118959,-0.9127294,-0.91436553,-0.9127294,-0.90285087,-0.8913053,-0.88636607,-0.88309383,-0.87732106,-0.86991215,-0.86660904,-0.86907864,-0.8723818,-0.8682452,-0.855897,-0.84354883,-0.8369734,-0.83533734,-0.8336703,-0.82873106,-0.8254279,-0.8270949,-0.82789755,-0.81968606,-0.8048682,-0.7908531,-0.7834442,-0.7818081,-0.77439916,-0.760384,-0.74639976,-0.7348542,-0.72333956,-0.70688564,-0.68135583,-0.6566595,-0.6377051,-0.61958414,-0.59488785,-0.5644188,-0.53641933,-0.51419264,-0.4944356,-0.47057277,-0.4392702,-0.40799844,-0.38246864,-0.360242,-0.33551478,-0.311652,-0.30010647,-0.3067127,