-0.901471,-0.8991419,-0.895403,-0.89307386,-0.88979465,-0.889335,-0.889335,-0.8888446,-0.8855961,-0.8813975,-0.8776586,-0.87483907,-0.8729696,-0.87250996,-0.87250996,-0.8729696,-0.8706405,-0.86690164,-0.8650322,-0.8655225,-0.86923075,-0.8729696,-0.87483907,-0.87346,-0.87018085,-0.86457247,-0.8622433,-0.8599142,-0.85896415,-0.8599142,-0.8612933,-0.86316276,-0.86457247,-0.8678517,-0.87159055,-0.87346,-0.8743794,-0.8729696,-0.8743794,-0.8781183,-0.87952805,-0.8776586,-0.87159055,-0.8622433,-0.8575851,-0.85896415,-0.8622433,-0.86316276,-0.8622433,-0.8617836,-0.862703,-0.8655225,-0.8650322,-0.862703,-0.8599142,-0.8612933,-0.8650322,-0.8650322,-0.8612933,-0.85335577,-0.85102665,-0.85430586,-0.8599142,-0.86690164,-0.8664419,-0.8612933,-0.8557156,-0.8524364,-0.8496169,-0.850567,-0.8528961,-0.85335577,-0.8524364,-0.8514863,-0.85335577,-0.8557156,-0.85804474,-0.85522527,-0.8477781,-0.8384309,-0.8290837,-0.8197364,-0.80806005,-0.79687405,-0.7870671,-0.78424764,-0.78191847,-0.7744407,-0.76043516,-0.7450199,-0.7338339,-0.73150474,-0.7342936,-0.7375728,-0.74036163,-0.7441005,-0.75157833,-0.7566963,-0.75951576,-0.7693227,-0.790806,-0.82442534,-0.8599142,-0.8855961,-0.8912044,-0.8851057,-0.8739197,-0.8655225,-0.8599142,-0.85896415,-0.86316276,-0.8678517,-0.8687711,-0.8687711,-0.86457247,-0.8585044,-0.86037385,-0.8729696,-0.8916641,-0.90101135,-0.87483907,-0.7875268,-0.62221885,-0.39387065,-0.106711626,0.22111559,0.53677607,0.762795,0.80855036,0.6269078,0.26221275,-0.17441005,-0.5517009,-0.8006129,-0.9205945,-0.9523751,-0.9467668,-0.93276125,-0.9229543,-0.9182654,-0.9182654,-0.92013484,-0.9196751,-0.9205945,-0.92013484,-0.91875577,-0.91639596,-0.91219735,-0.9038002,-0.8958627,-0.88979465,-0.884646,-0.88277656,-0.87952805,-0.87578917,-0.87018085,-0.86598223,-0.8612933,-0.8557156,-0.8514863,-0.84590864,-0.8384309,-0.8314128,-0.8253448,-0.8211462,-0.82068646,-0.8220656,-0.8211462,-0.81599754,-0.8090101,-0.80386144,-0.8010726,-0.7987435,-0.7945449,-0.7861171,-0.77539074,-0.7646338,-0.7557769,-0.7487588,-0.7422311,-0.73570335,-0.7277658,-0.7160895,-0.7030034,-0.68945754,-0.6787312,-0.66892433,-0.6572479,-0.6437021,-0.6301563,-0.6142813,-0.6011952,-0.5862703,-0.57272446,-0.5587189,-0.54796195,-0.5372356,-0.5227704,-0.50876486,-0.49800795,-0.49334967,-0.5003371,-0.51155376,-0.526019,-0.5442537,-0.5685259,-0.6011952,-0.64091325,-0.6819798,-0.7226172,-0.7618449,-0.79779345,-0.8267545,-0.8491572,-0.86365306,-0.87670857,-0.88838494,-0.89865154,-0.9056696,-0.90894884,-0.91127795,-0.9131474,-0.9140668,-0.9108183,-0.90658903,-0.9023904,-0.900521,-0.89773214,-0.8958627,-0.8944529,-0.8935336,-0.8944529,-0.8925835,-0.8879252,-0.88185716,-0.87670857,-0.87483907,-0.8743794,-0.87346,-0.8711002,-0.86831135,-0.8650322,-0.8617836,-0.8594238,-0.8599142,-0.8617836,-0.8617836,-0.86037385,-0.8570947,-0.85522527,-0.8575851,-0.8612933,-0.8594238,-0.85522527,-0.85010725,-0.8482378,-0.8514863,-0.8561753,-0.8575851,-0.8594238,-0.8617836,-0.8641128,-0.86457247,-0.86598223,-0.86690164,-0.86831135,-0.8711002,-0.87018085,-0.8655225,-0.8599142,-0.85804474,-0.8599142,-0.8608336,-0.86037385,-0.85804474,-0.8561753,-0.8561753,-0.85476553,-0.85430586,-0.85384613,-0.85522527,-0.8594238,-0.8608336,-0.8617836,-0.8617836,-0.8585044,-0.85335577,-0.84682804,-0.84167945,-0.83981,-0.8440392,-0.8496169,-0.85102665,-0.8472878,-0.84449893,-0.8403003,-0.83981,-0.84167945,-0.84308916,-0.8449586,-0.84682804,-0.8482378,-0.8472878,-0.8435489,-0.8403003,-0.8384309,-0.83889055,-0.8412197,-0.8440392,-0.84262943,-0.8370211,-0.82954335,-0.81507814,-0.7982531,-0.78191847,-0.7697824,-0.7637144,-0.76276433,-0.7651241,-0.7613852,-0.75062823,-0.7366227,-0.72356725,-0.71654916,-0.7160895,-0.71887827,-0.7216978,-0.7226172,-0.7221575,-0.72356725,-0.7282256,-0.73895186,-0.7618449,-0.79687405,-0.8361017,-0.87018085,-0.88697517,-0.8865155,-0.87624884,-0.8655225,-0.8612933,-0.8612933,-0.8622433,-0.8608336,-0.8585044,-0.856635,-0.8557156,-0.85522527,-0.8585044,-0.87532943,-0.89727247,-0.9136071,-0.895403,-0.818817,-0.66705483,-0.4466442,-0.1604045,0.18329775,0.5321177,0.8071407,0.91642666,0.7996628,0.48213315,0.05859649,-0.34811515,-0.653509,-0.83423233,-0.9140668,-0.933221,-0.93040144,-0.92856264,-0.93135154,-0.9355501,-0.9411584,-0.9444376,-0.9411584,-0.9350904,-0.92856264,-0.9238737,-0.9205945,-0.9182654,-0.91593623,-0.9103279,-0.9047196,-0.89865154,-0.89307386,-0.88746554,-0.8813975,-0.87624884,-0.8706405,-0.8650322,-0.8599142,-0.85384613,-0.850567,-0.8482378,-0.84682804,-0.84308916,-0.8379712,-0.8318725,-0.8276739,-0.8253448,-0.8225559,-0.8155378,-0.8061906,-0.79687405,-0.79218507,-0.7917254,-0.7879865,-0.7828685,-0.773981,-0.7669935,-0.76043516,-0.75482684,-0.7464297,-0.73475325,-0.72356725,-0.71094084,-0.69506586,-0.6791909,-0.6623659,-0.64931047,-0.6390438,-0.6301563,-0.61707014,-0.6002758,-0.58207166,-0.56432724,-0.5465829,-0.5316273,-0.5190315,-0.5073552,-0.5017468,-0.49659818,-0.49426907,-0.50266623,-0.5185412,-0.542844,-0.57318413,-0.6044744,-0.63717437,-0.6726632,-0.7118909,-0.7510879,-0.78657675,-0.8169476,-0.84262943,-0.8622433,-0.87483907,-0.88277656,-0.8888446,-0.8944529,-0.901471,-0.90707934,-0.90986824,-0.9084585,-0.9052099,-0.900521,-0.89632237,-0.895403,-0.8935336,-0.89307386,-0.8916641,-0.8855961,-0.8837266,-0.8841863,-0.8855961,-0.8855961,-0.88185716,-0.87670857,-0.87159055,-0.86831135,-0.86831135,-0.86690164,-0.86690164,-0.86831135,-0.8711002,-0.87159055,-0.8687711,-0.8650322,-0.8617836,-0.8608336,-0.8622433,-0.86316276,-0.86316276,-0.86316276,-0.86457247,-0.8664419,-0.8673613,-0.8641128,-0.862703,-0.8612933,-0.8622433,-0.86457247,-0.86365306,-0.8622433,-0.86037385,-0.85896415,-0.8599142,-0.8617836,-0.86316276,-0.8650322,-0.8641128,-0.86037385,-0.8561753,-0.85476553,-0.85804474,-0.8622433,-0.8617836,-0.8585044,-0.8561753,-0.8524364,-0.8514863,-0.85010725,-0.8477781,-0.8482378,-0.8519767,-0.85430586,-0.8528961,-0.8491572,-0.8449586,-0.84541833,-0.84869754,-0.85102665,-0.850567,-0.8491572,-0.8472878,-0.84590864,-0.8435489,-0.83981,-0.8370211,-0.83748084,-0.8403003,-0.8440392,-0.8435489,-0.83981,-0.8318725,-0.82862395,-0.8281643,-0.8314128,-0.8361017,-0.8403003,-0.84216976,-0.83981,-0.8370211,-0.83328223,-0.8281643,-0.8262948,-0.8225559,-0.8169476,-0.80806005,-0.7954643,-0.78332824,-0.773981,-0.76604354,-0.7618449,-0.7613852,-0.7585657,-0.75062823,-0.7370824,-0.7216978,-0.71002144,-0.7058228,-0.7076616,-0.71094084,-0.71326995,-0.7174686,-0.72028804,-0.7216978,-0.72635615,-0.74131167,-0.7749311,-0.81835735,-0.8570947,-0.878578,-0.878578,-0.8687711,-0.8594238,-0.85430586,-0.85384613,-0.85476553,-0.8570947,-0.8594238,-0.8612933,-0.8622433,-0.862703,-0.86457247,-0.87532943,-0.8935336,-0.9117377,-0.91127795,-0.86690164,-0.7543671,-0.5619981,-0.30140972,0.0273062,0.39062226,0.71700895,0.921085,0.9145572,0.67594254,0.27060997,-0.1809377,-0.55730915,-0.8006129,-0.91688627,-0.9490959,-0.94489735,-0.9346307,-0.92856264,-0.92715293,-0.93135154,-0.9355501,-0.939289,-0.939289,-0.9355501,-0.92856264,-0.9238737,-0.917346,-0.9126571,-0.91127795,-0.9108183,-0.90707934,-0.89865154,-0.889335,-0.8813975,-0.8790377,-0.8781183,-0.87532943,-0.8687711,-0.8622433,-0.8570947,-0.85522527,-0.85102665,-0.8435489,-0.83748084,-0.83282256,-0.82954335,-0.82301563,-0.8141281,-0.80432117,-0.7987435,-0.79920316,-0.7996629,-0.7954643,-0.7870671,-0.7795893,-0.773981,-0.7697824,-0.7646338,-0.75295734,-0.7384922,-0.72307694,-0.7086117,-0.6946062,-0.6875881,-0.6819798,-0.675452,-0.6647257,-0.6483604,-0.6292369,-0.6114925,-0.59794664,-0.5862703,-0.57318413,-0.5601287,-0.5475023,-0.53349674,-0.5199509,-0.5073552,-0.49754828,-0.4961385,-0.50266623,-0.5143426,-0.5311676,-0.55124116,-0.57413423,-0.60355496,-0.6395035,-0.6819798,-0.72589636,-0.76604354,-0.79920316,-0.8211462,-0.8379712,-0.85430586,-0.8739197,-0.8921238,-0.90707934,-0.9136071,-0.91501683,-0.91547656,-0.91593623,-0.91639596,-0.9140668,-0.91219735,-0.9103279,-0.9094085,-0.9052099,-0.900521,-0.89491266,-0.89399326,-0.89727247,-0.8981918,-0.89491266,-0.8902544,-0.88746554,-0.88746554,-0.8855961,-0.88044745,-0.87250996,-0.8655225,-0.8655225,-0.86690164,-0.8678517,-0.87018085,-0.8697211,-0.8729696,-0.8743794,-0.87624884,-0.87670857,-0.87532943,-0.8729696,-0.8687711,-0.8655225,-0.8655225,-0.86923075,-0.8739197,-0.8739197,-0.87018085,-0.8678517,-0.8673613,-0.8706405,-0.87346,-0.8743794,-0.8743794,-0.87532943,-0.87624884,-0.8739197,-0.86923075,-0.8650322,-0.8664419,-0.87018085,-0.87346,-0.87159055,-0.8664419,-0.86365306,-0.8650322,-0.86690164,-0.8697211,-0.8697211,-0.8697211,-0.8711002,-0.86923075,-0.8664419,-0.862703,-0.8594238,-0.8608336,-0.8612933,-0.8622433,-0.8594238,-0.85476553,-0.8519767,-0.8491572,-0.8514863,-0.8528961,-0.8561753,-0.8594238,-0.8599142,-0.8585044,-0.8557156,-0.8524364,-0.8477781,-0.8435489,-0.8412197,-0.8393503,-0.8393503,-0.84167945,-0.8440392,-0.84449893,-0.8435489,-0.8393503,-0.8314128,-0.8164879,-0.80294204,-0.790806,-0.78191847,-0.7791296,-0.77631015,-0.7735213,-0.7655838,-0.75390744,-0.74456024,-0.7366227,-0.73570335,-0.735213,-0.735213,-0.7342936,-0.73242414,-0.73475325,-0.73895186,-0.7510879,-0.7772602,-0.812749,-0.8496169,-0.87716824,-0.8879252,-0.884646,-0.8776586,-0.8706405,-0.86598223,-0.8641128,-0.8608336,-0.86037385,-0.8612933,-0.8617836,-0.86316276,-0.86365306,-0.86598223,-0.87483907,-0.89071405,-0.9052099,-0.8925835,-0.8281643,-0.6955256,-0.49659818,-0.24397796,0.05672705,0.37520695,0.6460314,0.78145885,0.7030034,0.415354,0.00070488453,-0.40695673,-0.7086117,-0.87716824,-0.9411584,-0.94722646,-0.9350904,-0.9215446,-0.9103279,-0.90658903,-0.90707934,-0.9108183,-0.91501683,-0.91875577,-0.9182654,-0.9108183,-0.90101135,-0.8902544,-0.88277656,-0.88185716,-0.8823169,-0.88044745,-0.87483907,-0.86831135,-0.862703,-0.85522527,-0.8477781,-0.84167945,-0.83889055,-0.8379712,-0.8384309,-0.83656144,-0.8309531,-0.8258045,-0.8220656,-0.81740725,-0.8108795,-0.8061906,-0.8006129,-0.79687405,-0.79267544,-0.78657675,-0.7805087,-0.7772602,-0.7735213,-0.767913,-0.7585657,-0.7478394,-0.74036163,-0.736163,-0.730095,-0.7221575,-0.71002144,-0.69785476,-0.685259,-0.6707938,-0.65678823,-0.64183265,-0.6324854,-0.62454796,-0.6138216,-0.60073555,-0.5834508,-0.5657064,-0.55032176,-0.5353662,-0.5222801,-0.5096843,-0.5017468,-0.4970885,-0.49239957,-0.49285936,-0.49846762,-0.5134232,-0.5391051,-0.5718051,-0.6096231,-0.6516396,-0.6941465,-0.73570335,-0.77119213,-0.8001226,-0.8225559,-0.84216976,-0.8599142,-0.87532943,-0.88838494,-0.8967821,-0.900521,-0.901471,-0.8996016,-0.89773214,-0.8991419,-0.90101135,-0.9023904,-0.8981918,-0.89399326,-0.8888446,-0.884646,-0.88277656,-0.8799877,-0.87624884,-0.8743794,-0.8743794,-0.8743794,-0.87483907,-0.87624884,-0.8743794,-0.87250996,-0.86923075,-0.8617836,-0.85430586,-0.8496169,-0.8496169,-0.85430586,-0.85804474,-0.86037385,-0.85896415,-0.85476553,-0.8519767,-0.85102665,-0.8514863,-0.85335577,-0.85430586,-0.85335577,-0.8514863,-0.85010725,-0.8514863,-0.8557156,-0.8585044,-0.85804474,-0.85476553,-0.8528961,-0.85102665,-0.85010725,-0.8472878,-0.8449586,-0.8440392,-0.84449893,-0.84869754,-0.8514863,-0.8514863,-0.85010725,-0.8496169,-0.8472878,-0.8463684,-0.8449586,-0.8440392,-0.84682804,-0.8514863,-0.85335577,-0.8524364,-0.84869754,-0.8449586,-0.84262943,-0.8412197,-0.8393503,-0.83889055,-0.8403003,-0.8440392,-0.84541833,-0.8440392,-0.83889055,-0.8351517,-0.834692,-0.83328223,-0.82954335,-0.8267545,-0.82393503,-0.8248851,-0.82721424,-0.82862395,-0.8276739,-0.8262948,-0.8258045,-0.8262948,-0.8267545,-0.8267545,-0.8253448,-0.8234753,-0.8211462,-0.818817,-0.8164879,-0.8141281,-0.806681,-0.7940545,-0.780049,-0.7688323,-0.76325464,-0.7623046,-0.75951576,-0.74970883,-0.7328838,-0.71887827,-0.71002144,-0.7090714,-0.71513945,-0.71982837,-0.72307694,-0.72307694,-0.72028804,-0.7179589,-0.7179589,-0.7305547,-0.75531715,-0.7917254,-0.8304934,-0.8585044,-0.8720503,-0.8697211,-0.8608336,-0.8514863,-0.8472878,-0.8491572,-0.8519767,-0.85335577,-0.8528961,-0.85102665,-0.8491572,-0.85102665,-0.8585044,-0.8739197,-0.89491266,-0.9038002,-0.87250996,-0.7791296,-0.6114925,-0.38127488,-0.09221566,0.24305856,0.5727246,0.82068646,0.895403,0.74505067,0.4032179,-0.026386738,-0.42050254,-0.6997242,-0.8524364,-0.9117377,-0.922464,-0.9220043,-0.92341405,-0.92807233,-0.9341403,-0.9388293,-0.9402084,-0.9397487,-0.93741953,-0.9322709,-0.92341405,-0.9145265,-0.9056696,-0.8981918,-0.89399326,-0.8902544,-0.88605577,-0.88185716,-0.8809071,-0.8799877,-0.87578917,-0.8697211,-0.86316276,-0.85804474,-0.85430586,-0.85010725,-0.84262943,-0.834692,-0.82954335,-0.8258045,-0.8234753,-0.8197364,-0.81461847,-0.8099295,-0.80573094,-0.79779345,-0.78985596,-0.7828685,-0.7795893,-0.77771986,-0.7744407,-0.76745325,-0.758106,-0.7487588,-0.7422311,-0.73334354,-0.7226172,-0.7123506,-0.69834507,-0.6866687,-0.6749923,-0.6614465,-0.6479007,-0.636684,-0.62595767,-0.61241186,-0.59561753,-0.57738274,-0.5624578,-0.55032176,-0.5400245,-0.52883846,-0.5143426,-0.5007968,-0.49334967,-0.4919399,-0.49800795,-0.51155376,-0.53395647,-0.5615078,-0.59420776,-0.63061595,-0.6698437,-0.7114005,-0.75016856,-0.7814588,-0.806681,-0.8276739,-0.8463684,-0.8641128,-0.87716824,-0.8879252,-0.895403,-0.9038002,-0.91219735,-0.91639596,-0.917346,-0.9126571,-0.90799874,-0.90285015,-0.8967821,-0.89399326,-0.8921238,-0.8888446,-0.88697517,-0.8809071,-0.8743794,-0.87018085,-0.86923075,-0.87250996,-0.87483907,-0.87346,-0.8697211,-0.8655225,-0.86365306,-0.8650322,-0.8678517,-0.8697211,-0.8687711,-0.86457247,-0.8585044,-0.85522527,-0.85430586,-0.85804474,-0.8608336,-0.8594238,-0.8561753,-0.8524364,-0.8524364,-0.85522527,-0.8575851,-0.85896415,-0.8575851,-0.8557156,-0.85522527,-0.85522527,-0.85476553,-0.85384613,-0.8575851,-0.86037385,-0.86316276,-0.8622433,-0.8594238,-0.856635,-0.856635,-0.85896415,-0.8599142,-0.86037385,-0.8608336,-0.862703,-0.8622433,-0.8599142,-0.8575851,-0.85476553,-0.8519767,-0.850567,-0.8491572,-0.85010725,-0.85384613,-0.8575851,-0.85896415,-0.8561753,-0.85102665,-0.8472878,-0.84541833,-0.8435489,-0.84216976,-0.84076,-0.8435489,-0.8482378,-0.8519767,-0.85335577,-0.85102665,-0.84682804,-0.84308916,-0.8403003,-0.83889055,-0.83981,-0.84216976,-0.84590864,-0.8472878,-0.84590864,-0.8435489,-0.8435489,-0.84541833,-0.8449586,-0.84590864,-0.84541833,-0.84262943,-0.84167945,-0.84076,-0.83981,-0.8384309,-0.83748084,-0.8370211,-0.83423233,-0.8318725,-0.8300337,-0.82301563,-0.8164879,-0.80481154,-0.79313517,-0.78332824,-0.77631015,-0.7730616,-0.7693227,-0.76325464,-0.7524977,-0.7375728,-0.72589636,-0.7170088,-0.71513945,-0.71654916,-0.71933806,-0.72074777,-0.72356725,-0.7240269,-0.72540605,-0.7310144,-0.74596995,-0.77631015,-0.8169476,-0.85476553,-0.88044745,-0.88838494,-0.88185716,-0.87159055,-0.86457247,-0.86037385,-0.8612933,-0.86316276,-0.86457247,-0.86457247,-0.86365306,-0.8612933,-0.8599142,-0.8673613,-0.8851057,-0.90658903,-0.9131474,-0.87578917,-0.77119213,-0.58859944,-0.33830827,-0.019368649,0.33971822,0.674073,0.8981918,0.92623353,0.7291757,0.3588723,-0.078210235,-0.46484828,-0.7366227,-0.8837266,-0.93695986,-0.9420778,-0.9350904,-0.9341403,-0.93741953,-0.9425682,-0.94581676,-0.9467668,-0.94489735,-0.939289,-0.9322709,-0.9238737,-0.91875577,-0.917346,-0.9178057,-0.9131474,-0.9047196,-0.89399326,-0.88746554,-0.884646,-0.8809071,-0.87578917,-0.87018085,-0.8650322,-0.86037385,-0.85896415,-0.8561753,-0.85335577,-0.85010725,-0.8472878,-0.8393503,-0.83282256,-0.8267545,-0.82442534,-0.82393503,-0.8197364,-0.8122893,-0.80248237,-0.7950046,-0.78893656,-0.7837879,-0.7772602,-0.7702421,-0.7646338,-0.75951576,-0.7524977,-0.74131167,-0.7282256,-0.7146797,-0.7006742,-0.68571866,-0.6726632,-0.6614465,-0.6516396,-0.64042294,-0.62221885,-0.60306466,-0.5834508,-0.5703953,-0.5601287,-0.5484524,-0.53444684,-0.52182037,-0.5110941,-0.5045357,-0.5003371,-0.4952191,-0.49239957,-0.49846762,-0.51621205,-0.54471344,-0.58158135,-0.62221885,-0.6623659,-0.7006742,-0.73570335,-0.76745325,-0.7950046,-0.82068646,-0.84308916,-0.8608336,-0.87250996,-0.87952805,-0.88697517,-0.8935336,-0.8981918,-0.90334046,-0.90425986,-0.9047196,-0.90193075,-0.89632237,-0.88838494,-0.88277656,-0.8809071,-0.8837266,-0.8879252,-0.8865155,-0.88277656,-0.87624884,-0.8673613,-0.862703,-0.86037385,-0.8612933,-0.8641128,-0.86598223,-0.8641128,-0.8622433,-0.8594238,-0.8608336,-0.86365306,-0.8650322,-0.8650322,-0.862703,-0.8612933,-0.86037385,-0.8599142,-0.8599142,-0.8608336,-0.8641128,-0.8673613,-0.8678517,-0.86690164,-0.8641128,-0.862703,-0.86316276,-0.86365306,-0.86316276,-0.862703,-0.86316276,-0.8650322,-0.8655225,-0.8655225,-0.86457247,-0.86365306,-0.8650322,-0.86457247,-0.8655225,-0.8650322,-0.86365306,-0.8641128,-0.862703,-0.86037385,-0.85896415,-0.8575851,-0.8570947,-0.85896415,-0.85896415,-0.8557156,-0.856635,-0.8585044,-0.86037385,-0.8599142,-0.8570947,-0.8528961,-0.85102665,-0.850567,-0.8514863,-0.85102665,-0.85102665,-0.8524364,-0.85335577,-0.8519767,-0.8472878,-0.8435489,-0.8403003,-0.83981,-0.84308916,-0.8435489,-0.84449893,-0.84308916,-0.83981,-0.8379712,-0.8370211,-0.83748084,-0.8384309,-0.8379712,-0.8379712,-0.8370211,-0.8361017,-0.834692,-0.8323629,-0.8281643,-0.82721424,-0.8304934,-0.8314128,-0.82954335,-0.8267545,-0.82160586,-0.8155378,-0.80714065,-0.79592395,-0.7828685,-0.7730616,-0.77119213,-0.77070177,-0.7637144,-0.7482991,-0.72914493,-0.7146797,-0.7086117,-0.7086117,-0.70953107,-0.71002144,-0.7137603,-0.71982837,-0.72356725,-0.7296353,-0.7426908,-0.7693227,-0.8094698,-0.8482378,-0.8739197,-0.8809071,-0.87670857,-0.8687711,-0.8641128,-0.8617836,-0.8612933,-0.862703,-0.8622433,-0.8622433,-0.8608336,-0.8570947,-0.85384613,-0.8570947,-0.86831135,-0.88746554,-0.8967821,-0.8729696,-0.78893656,-0.6301563,-0.4041373,-0.11277962,0.2262336,0.5601288,0.80901,0.87483907,0.71094084,0.3490653,-0.09969354,-0.50266623,-0.780049,-0.91593623,-0.95188475,-0.94161814,-0.9220043,-0.9126571,-0.9140668,-0.91875577,-0.92433345,-0.92482376,-0.9205945,-0.9145265,-0.90894884,-0.90658903,-0.90425986,-0.900521,-0.89773214,-0.89399326,-0.8912044,-0.88697517,-0.8823169,-0.87716824,-0.8729696,-0.87159055,-0.86598223,-0.8575851,-0.85010725,-0.8435489,-0.83981,-0.8384309,-0.8361017,-0.83328223,-0.8314128,-0.8309531,-0.8276739,-0.8211462,-0.8132087,-0.80573094,-0.79920316,-0.79313517,-0.78985596,-0.78424764,-0.77863926,-0.7735213,-0.7637144,-0.7524977,-0.7431505,-0.7370824,-0.7328838,-0.72540605,-0.7137603,-0.69926447,-0.68571866,-0.6749923,-0.6647257,-0.652559,-0.6395035,-0.62782717,-0.61707014,-0.60542446,-0.59187865,-0.5760037,-0.5615078,-0.54891205,-0.53677595,-0.52834815,-0.5199509,-0.51529264,-0.51296353,-0.51296353,-0.5185412,-0.532087,-0.5526509,-0.58207166,-0.6152314,-0.6511799,-0.6899172,-0.73196447,-0.77211154,-0.8061906,-0.8314128,-0.850567,-0.8650322,-0.8790377,-0.8916641,-0.900521,-0.90612936,-0.9094085,-0.9117377,-0.9140668,-0.91547656,-0.91501683,-0.9126571,-0.9084585,-0.9023904,-0.89632237,-0.8935336,-0.8935336,-0.89399326,-0.8916641,-0.88746554,-0.88185716,-0.87670857,-0.87624884,-0.8781183,-0.8776586,-0.878578,-0.87952805,-0.8790377,-0.87578917,-0.8706405,-0.8655225,-0.8622433,-0.86365306,-0.8655225,-0.86690164,-0.8650322,-0.86365306,-0.8622433,-0.8599142,-0.8570947,-0.85335577,-0.8528961,-0.8557156,-0.8599142,-0.8655225,-0.8687711,-0.8673613,-0.8673613,-0.8664419,-0.8650322,-0.86365306,-0.8617836,-0.8612933,-0.86037385,-0.86037385,-0.8612933,-0.86457247,-0.8678517,-0.8673613,-0.86457247,-0.85804474,-0.85522527,-0.8561753,-0.8585044,-0.8594238,-0.8575851,-0.8557156,-0.85522527,-0.85522527,-0.85335577,-0.8514863,-0.850567,-0.85010725,-0.85102665,-0.8519767,-0.8524364,-0.8524364,-0.85384613,-0.8528961,-0.85335577,-0.8514863,-0.8482378,-0.8449586,-0.83981,-0.8351517,-0.8337419,-0.8361017,-0.8393503,-0.83981,-0.83889055,-0.8356114,-0.83423233,-0.8361017,-0.8393503,-0.83981,-0.8393503,-0.8356114,-0.834692,-0.8304934,-0.82721424,-0.8248851,-0.82301563,-0.82393503,-0.81835735,-0.80573094,-0.79218507,-0.7814588,-0.77631015,-0.77539074,-0.77070177,-0.75718665,-0.7441005,-0.73334354,-0.72868526,-0.72914493,-0.72914493,-0.72868526,-0.7268158,-0.72448665,-0.72356725,-0.72540605,-0.736163,-0.7618449,-0.7996629,-0.8412197,-0.8739197,-0.88838494,-0.88746554,-0.87624884,-0.86457247,-0.8575851,-0.856635,-0.8594238,-0.86037385,-0.8599142,-0.8585044,-0.8585044,-0.86037385,-0.86457247,-0.87532943,-0.89307386,-0.9094085,-0.9047196,-0.84869754,-0.71982837,-0.5171621,-0.2566043,0.06000614,0.39901936,0.6913271,0.8482379,0.7903464,0.51529276,0.103432536,-0.31590557,-0.64091325,-0.83656144,-0.9238737,-0.94581676,-0.94161814,-0.933221,-0.9299418,-0.9290224,-0.92856264,-0.93040144,-0.92856264,-0.92715293,-0.92574316,-0.9229543,-0.91921544,-0.9117377,-0.90425986,-0.89773214,-0.88838494,-0.88044745,-0.87532943,-0.87159055,-0.8711002,-0.87018085,-0.8678517,-0.8641128,-0.86037385,-0.85476553,-0.8463684,-0.8384309,-0.83423233,-0.83282256,-0.834692,-0.83282256,-0.8276739,-0.8211462,-0.8141281,-0.80714065,-0.79779345,-0.7903156,-0.78424764,-0.7837879,-0.78473794,-0.7823782,-0.7758504,-0.7669935,-0.75718665,-0.7478394,-0.73895186,-0.7296353,-0.7212075,-0.7123506,-0.69926447,-0.6829298,-0.66423535,-0.647441,-0.63622427,-0.6292369,-0.62175906,-0.6114925,-0.5965369,-0.58066195,-0.5652467,-0.5484524,-0.53257734,-0.5167024,-0.50502604,-0.4970885,-0.49380934,-0.49334967,-0.4998774,-0.5134232,-0.53628564,-0.56478703,-0.5993258,-0.6353049,-0.675452,-0.71654916,-0.752038,-0.7837879,-0.8108795,-0.83748084,-0.86316276,-0.8809071,-0.8921238,-0.89632237,-0.8991419,-0.9023904,-0.9023904,-0.900521,-0.8967821,-0.895403,-0.89865154,-0.90193075,-0.9023904,-0.8991419,-0.8944529,-0.889335,-0.8841863,-0.8799877,-0.87532943,-0.87346,-0.87483907,-0.87532943,-0.87624884,-0.87624884,-0.8743794,-0.8729696,-0.8664419,-0.8599142,-0.8561753,-0.856635,-0.8608336,-0.86316276,-0.8612933,-0.8585044,-0.8561753,-0.8585044,-0.8585044,-0.85804474,-0.85804474,-0.8561753,-0.8561753,-0.8561753,-0.8561753,-0.856635,-0.8594238,-0.8612933,-0.8617836,-0.8612933,-0.8594238,-0.85896415,-0.8608336,-0.8608336,-0.8599142,-0.8575851,-0.85430586,-0.8514863,-0.85102665,-0.8524364,-0.85384613,-0.8561753,-0.856635,-0.85522527,-0.85430586,-0.85384613,-0.856635,-0.85804474,-0.8575851,-0.85522527,-0.85102665,-0.8472878,-0.84590864,-0.84449893,-0.84308916,-0.84262943,-0.8440392,-0.8463684,-0.8477781,-0.84682804,-0.84590864,-0.84449893,-0.84216976,-0.84262943,-0.84167945,-0.84076,-0.8403003,-0.83889055,-0.83423233,-0.8318725,-0.8304934,-0.8318725,-0.8356114,-0.83748084,-0.8361017,-0.834692,-0.8351517,-0.8351517,-0.83328223,-0.8323629,-0.8290837,-0.82862395,-0.82862395,-0.8258045,-0.8202268,-0.81179893,-0.80386144,-0.79267544,-0.780049,-0.76745325,-0.7585657,-0.758106,-0.7585657,-0.752038,-0.73803246,-0.72028804,-0.70720196,-0.70720196,-0.71422005,-0.72307694,-0.72914493,-0.7305547,-0.7296353,-0.7272755,-0.72540605,-0.7370824,-0.767913,-0.81179893,-0.85476553,-0.88277656,-0.8888446,-0.8823169,-0.87346,-0.86457247,-0.85804474,-0.8524364,-0.8496169,-0.8514863,-0.8561753,-0.85896415,-0.8608336,-0.86365306,-0.87578917,-0.8958627,-0.9136071,-0.90799874,-0.8557156,-0.7328838,-0.53303707,-0.26779038,0.06466448,0.4228319,0.73616314,0.9206253,0.89773214,0.657248,0.2631322,-0.168342,-0.52834815,-0.76837265,-0.889335,-0.9322709,-0.93787926,-0.9341403,-0.93135154,-0.93276125,-0.93787926,-0.94489735,-0.94814587,-0.94722646,-0.94161814,-0.9355501,-0.9299418,-0.9210849,-0.9117377,-0.9023904,-0.89632237,-0.895403,-0.89399326,-0.8925835,-0.8888446,-0.8823169,-0.8739197,-0.86457247,-0.85430586,-0.8482378,-0.84682804,-0.8482378,-0.8472878,-0.84262943,-0.8356114,-0.8290837,-0.8248851,-0.8220656,-0.81835735,-0.8136684,-0.8099295,-0.80573094,-0.7987435,-0.78893656,-0.77863926,-0.7730616,-0.7693227,-0.7651241,-0.75997543,-0.75016856,-0.7399019,-0.72914493,-0.71933806,-0.7086117,-0.69785476,-0.68804777,-0.6759117,-0.6609868,-0.6441618,-0.6296966,-0.6166104,-0.6049341,-0.5913883,-0.57272446,-0.5531106,-0.53628564,-0.5222801,-0.5110941,-0.50361633,-0.49941766,-0.49754828,-0.4998774,-0.5045357,-0.5138829,-0.52975786,-0.5558995,-0.5900092,-0.62687707,-0.66423535,-0.6997242,-0.7366227,-0.7730616,-0.80714065,-0.834692,-0.8557156,-0.87018085,-0.8790377,-0.8865155,-0.89071405,-0.8925835,-0.89773214,-0.9023904,-0.90425986,-0.9038002,-0.900521,-0.8944529,-0.89071405,-0.8865155,-0.8837266,-0.88277656,-0.88277656,-0.8841863,-0.8813975,-0.87670857,-0.87159055,-0.8678517,-0.86457247,-0.8622433,-0.8599142,-0.85804474,-0.8585044,-0.8608336,-0.8612933,-0.862703,-0.862703,-0.86037385,-0.85804474,-0.85335577,-0.850567,-0.8514863,-0.8524364,-0.85476553,-0.85476553,-0.85335577,-0.85384613,-0.85384613,-0.85522527,-0.85335577,-0.8524364,-0.85384613,-0.856635,-0.8612933,-0.8617836,-0.8585044,-0.85430586,-0.8519767,-0.8524364,-0.8528961,-0.8514863,-0.8514863,-0.85102665,-0.8524364,-0.8524364,-0.8491572,-0.84541833,-0.84541833,-0.8482378,-0.8519767,-0.85522527,-0.85430586,-0.8519767,-0.85010725,-0.8472878,-0.8463684,-0.8412197,-0.8384309,-0.83748084,-0.83748084,-0.84076,-0.84541833,-0.8482378,-0.8482378,-0.84541833,-0.8393503,-0.8318725,-0.8234753,-0.82160586,-0.8248851,-0.8281643,-0.83282256,-0.8356114,-0.83423233,-0.8318725,-0.8304934,-0.8281643,-0.8253448,-0.8234753,-0.8211462,-0.8234753,-0.8281643,-0.83328223,-0.8351517,-0.8318725,-0.8225559,-0.8132087,-0.80481154,-0.7945449,-0.7823782,-0.77070177,-0.75997543,-0.7534477,-0.7510879,-0.7426908,-0.73150474,-0.7179589,-0.70720196,-0.7006742,-0.69926447,-0.7006742,-0.7025436,-0.7076616,-0.71094084,-0.7128103,-0.7146797,-0.72307694,-0.74688935,-0.78565735,-0.8281643,-0.862703,-0.8776586,-0.8739197,-0.862703,-0.8496169,-0.84308916,-0.8440392,-0.85010725,-0.85522527,-0.8575851,-0.85384613,-0.85010725,-0.84682804,-0.85102665,-0.86457247,-0.8851057,-0.90101135,-0.8921238,-0.83423233,-0.70628256,-0.504076,-0.23931962,0.08663809,0.43496788,0.7375729,0.9028808,0.84964764,0.57180524,0.14544904,-0.294882,-0.63809377,-0.84541833,-0.93368065,-0.9514251,-0.9411584,-0.9238737,-0.9131474,-0.9108183,-0.91501683,-0.9182654,-0.9182654,-0.91219735,-0.90612936,-0.90334046,-0.90193075,-0.9000613,-0.8958627,-0.8921238,-0.88746554,-0.8809071,-0.87346,-0.86598223,-0.86037385,-0.8575851,-0.85476553,-0.8491572,-0.84449893,-0.8435489,-0.84216976,-0.84076,-0.8356114,-0.8281643,-0.82442534,-0.82301563,-0.82068646,-0.8141281,-0.80386144,-0.79218507,-0.78473794,-0.7814588,-0.780049,-0.7781796,-0.7768005,-0.77211154,-0.76417404,-0.75531715,-0.74456024,-0.7366227,-0.7305547,-0.7221575,-0.7123506,-0.70159364,-0.6904076,-0.6810603,-0.66892433,-0.6549188,-0.6399632,-0.62687707,-0.6166104,-0.6040147,-0.5890591,-0.5722648,-0.5540607,-0.5405148,-0.52834815,-0.5199509,-0.5134232,-0.50922465,-0.5068954,-0.50502604,-0.5064051,-0.51621205,-0.53444684,-0.5629176,-0.5969966,-0.63622427,-0.6787312,-0.7221575,-0.7618449,-0.79592395,-0.8220656,-0.84262943,-0.8612933,-0.87670857,-0.88838494,-0.89773214,-0.90334046,-0.9094085,-0.91547656,-0.917346,-0.91547656,-0.91219735,-0.9094085,-0.90707934,-0.90425986,-0.90101135,-0.89773214,-0.895403,-0.89491266,-0.8935336,-0.889335,-0.8851057,-0.8837266,-0.8851057,-0.88605577,-0.884646,-0.88044745,-0.87624884,-0.87716824,-0.8809071,-0.8813975,-0.88044745,-0.87578917,-0.8729696,-0.8711002,-0.87018085,-0.8655225,-0.8599142,-0.8570947,-0.8557156,-0.856635,-0.8599142,-0.862703,-0.86457247,-0.8664419,-0.8678517,-0.86831135,-0.86923075,-0.8687711,-0.8650322,-0.8612933,-0.8594238,-0.8622433,-0.86598223,-0.8687711,-0.8655225,-0.8617836,-0.8599142,-0.8599142,-0.8617836,-0.8612933,-0.8608336,-0.8612933,-0.862703,-0.86316276,-0.8617836,-0.85896415,-0.8570947,-0.85522527,-0.85384613,-0.85384613,-0.85430586,-0.85430586,-0.85384613,-0.85102665,-0.84869754,-0.8514863,-0.85522527,-0.856635,-0.85476553,-0.8519767,-0.8491572,-0.84869754,-0.8482378,-0.8449586,-0.84076,-0.8379712,-0.8379712,-0.8370211,-0.8351517,-0.8314128,-0.8290837,-0.8281643,-0.8276739,-0.82068646,-0.8076004,-0.79218507,-0.7795893,-0.773981,-0.7730616,-0.7693227,-0.758106,-0.74688935,-0.73570335,-0.7282256,-0.72589636,-0.7272755,-0.7305547,-0.7366227,-0.74036163,-0.73803246,-0.7342936,-0.7408213,-0.7646338,-0.8015323,-0.8412197,-0.8687711,-0.8809071,-0.87716824,-0.8678517,-0.8594238,-0.85476553,-0.8557156,-0.8575851,-0.8585044,-0.856635,-0.85384613,-0.8524364,-0.8524364,-0.85522527,-0.8655225,-0.8832669,-0.89773214,-0.8837266,-0.8132087,-0.6684646,-0.4592399,-0.19963217,0.10156298,0.40649712,0.64931047,0.742231,0.6212994,0.30327928,-0.11323929,-0.49846762,-0.7655838,-0.90193075,-0.9420778,-0.9346307,-0.9182654,-0.90658903,-0.9023904,-0.9052099,-0.9084585,-0.90707934,-0.90334046,-0.9000613,-0.89773214,-0.8935336,-0.889335,-0.8841863,-0.8799877,-0.8776586,-0.87483907,-0.87159055,-0.8664419,-0.86037385,-0.85522527,-0.8477781,-0.84167945,-0.83889055,-0.83889055,-0.83981,-0.83656144,-0.8290837,-0.8211462,-0.81599754,-0.81507814,-0.8136684,-0.8108795,-0.80481154,-0.7973337,-0.7917254,-0.78473794,-0.7772602,-0.77070177,-0.767913,-0.7651241,-0.7623046,-0.75531715,-0.7455102,-0.73475325,-0.7249464,-0.7160895,-0.7058228,-0.69506586,-0.6875881,-0.68060064,-0.6721728,-0.6609868,-0.64603126,-0.63061595,-0.6175605,-0.60542446,-0.5932577,-0.5783328,-0.5624578,-0.5470426,-0.53349674,-0.52182037,-0.5148329,-0.510144,-0.50594544,-0.50128716,-0.49846762,-0.5031566,-0.5176219,-0.5437634,-0.57974255,-0.61942995,-0.66190624,-0.7058228,-0.7431505,-0.77539074,-0.801992,-0.8253448,-0.84590864,-0.86457247,-0.87624884,-0.8823169,-0.8879252,-0.895403,-0.9056696,-0.9117377,-0.9103279,-0.90658903,-0.9052099,-0.9052099,-0.9047196,-0.900521,-0.89307386,-0.88697517,-0.88697517,-0.88697517,-0.88605577,-0.8832669,-0.88044745,-0.8790377,-0.878578,-0.87670857,-0.87483907,-0.87483907,-0.8743794,-0.87159055,-0.86598223,-0.8594238,-0.8561753,-0.856635,-0.85804474,-0.856635,-0.8557156,-0.85804474,-0.8594238,-0.85896415,-0.856635,-0.85102665,-0.850567,-0.85522527,-0.85896415,-0.8594238,-0.8561753,-0.85384613,-0.85335577,-0.85335577,-0.8561753,-0.8570947,-0.8594238,-0.85896415,-0.85522527,-0.850567,-0.84869754,-0.8514863,-0.85896415,-0.86457247,-0.86457247,-0.8608336,-0.8570947,-0.8557156,-0.8561753,-0.85896415,-0.8599142,-0.85896415,-0.8575851,-0.8519767,-0.8482378,-0.8472878,-0.8491572,-0.85476553,-0.8594238,-0.85896415,-0.8557156,-0.8524364,-0.8514863,-0.850567,-0.8482378,-0.84541833,-0.8435489,-0.84262943,-0.84262943,-0.8435489,-0.84216976,-0.84167945,-0.84308916,-0.84262943,-0.8412197,-0.8393503,-0.83656144,-0.8337419,-0.82862395,-0.81835735,-0.80481154,-0.79218507,-0.78191847,-0.7749311,-0.77119213,-0.7655838,-0.7557769,-0.74456024,-0.73242414,-0.72356725,-0.7216978,-0.72540605,-0.7310144,-0.73570335,-0.7375728,-0.7375728,-0.74036163,-0.7478394,-0.7669935,-0.79779345,-0.8314128,-0.86457247,-0.88277656,-0.88746554,-0.8832669,-0.8776586,-0.8729696,-0.8706405,-0.8678517,-0.8641128,-0.862703,-0.86365306,-0.8641128,-0.86457247,-0.86598223,-0.87624884,-0.89865154,-0.9196751,-0.91593623,-0.8608336,-0.736163,-0.54517317,-0.29675144,0.013300657,0.35372365,0.66239667,0.84590864,0.8197671,0.57879245,0.1865462,-0.23325151,-0.5755133,-0.7973337,-0.90612936,-0.94069874,-0.94302785,-0.9402084,-0.9402084,-0.9420778,-0.94489735,-0.9467668,-0.94722646,-0.9444376,-0.93741953,-0.9276126,-0.91875577,-0.91547656,-0.91547656,-0.91501683,-0.9103279,-0.90101135,-0.89071405,-0.8832669,-0.8790377,-0.87483907,-0.8706405,-0.8664419,-0.862703,-0.85896415,-0.85522527,-0.8514863,-0.8491572,-0.8449586,-0.83981,-0.83282256,-0.8258045,-0.8211462,-0.8202268,-0.8155378,-0.8099295,-0.80294204,-0.7987435,-0.7963837,-0.7945449,-0.7884462,-0.780049,-0.77257127,-0.7646338,-0.75531715,-0.7450199,-0.7328838,-0.72356725,-0.71513945,-0.7053325,-0.69506586,-0.6819798,-0.66751456,-0.65209925,-0.63481456,-0.61707014,-0.6002758,-0.58581054,-0.57272446,-0.55825925,-0.54517317,-0.53444684,-0.5227704,-0.51201344,-0.4998774,-0.4910205,-0.49285936,-0.50827456,-0.53257734,-0.5601287,-0.58768004,-0.61942995,-0.6581673,-0.7025436,-0.7422311,-0.7744407,-0.7987435,-0.8220656,-0.84541833,-0.86831135,-0.88605577,-0.89727247,-0.90425986,-0.90894884,-0.9108183,-0.90986824,-0.9084585,-0.90753907,-0.90707934,-0.9052099,-0.90193075,-0.89632237,-0.8916641,-0.8902544,-0.88979465,-0.889335,-0.88979465,-0.8888446,-0.8865155,-0.8823169,-0.87952805,-0.87483907,-0.8743794,-0.87483907,-0.87346,-0.87159055,-0.87018085,-0.8706405,-0.8729696,-0.8729696,-0.8697211,-0.8655225,-0.8650322,-0.8655225,-0.8650322,-0.86316276,-0.86037385,-0.8575851,-0.8575851,-0.85804474,-0.8585044,-0.8594238,-0.8599142,-0.862703,-0.8622433,-0.8612933,-0.8617836,-0.8599142,-0.8608336,-0.85896415,-0.8594238,-0.8617836,-0.86457247,-0.8678517,-0.8673613,-0.86365306,-0.86037385,-0.85896415,-0.85896415,-0.85804474,-0.8570947,-0.856635,-0.8575851,-0.86037385,-0.8612933,-0.86037385,-0.856635,-0.85335577,-0.8514863,-0.8491572,-0.85010725,-0.85010725,-0.8514863,-0.8528961,-0.8519767,-0.8496169,-0.8472878,-0.84682804,-0.8477781,-0.8482378,-0.8472878,-0.8440392,-0.83981,-0.8393503,-0.83981,-0.84216976,-0.8440392,-0.8463684,-0.8477781,-0.84449893,-0.8403003,-0.8361017,-0.8351517,-0.83656144,-0.8351517,-0.8276739,-0.8136684,-0.7973337,-0.78565735,-0.7772602,-0.773981,-0.7697824,-0.7651241,-0.7534477,-0.7384922,-0.72448665,-0.7160895,-0.7170088,-0.7240269,-0.7277658,-0.72914493,-0.72868526,-0.7268158,-0.72868526,-0.73150474,-0.7431505,-0.7693227,-0.8099295,-0.85384613,-0.8837266,-0.8925835,-0.8841863,-0.87250996,-0.8673613,-0.8664419,-0.86690164,-0.8678517,-0.87018085,-0.8720503,-0.8697211,-0.8650322,-0.85896415,-0.8612933,-0.88044745,-0.90658903,-0.92013484,-0.8935336,-0.8085504,-0.6507202,-0.42329144,-0.12911433,0.22390449,0.57692313,0.8463683,0.93974876,0.8048116,0.47140682,0.03711319,-0.3733374,-0.6764021,-0.850567,-0.9215446,-0.9388293,-0.94069874,-0.9434876,-0.9476862,-0.9490959,-0.9505057,-0.9505057,-0.9490959,-0.94581676,-0.9420778,-0.94069874,-0.93600976,-0.92807233,-0.91875577,-0.90799874,-0.90334046,-0.901471,-0.8981918,-0.8916641,-0.8837266,-0.8781183,-0.8711002,-0.8678517,-0.86316276,-0.8585044,-0.8575851,-0.8575851,-0.85430586,-0.85010725,-0.84216976,-0.8361017,-0.8318725,-0.82442534,-0.81599754,-0.8085504,-0.80248237,-0.8001226,-0.7987435,-0.79592395,-0.7917254,-0.7879865,-0.78332824,-0.7744407,-0.7613852,-0.7455102,-0.7328838,-0.72448665,-0.7155991,-0.7048728,-0.692277,-0.6796506,-0.66659516,-0.6544284,-0.6395035,-0.62175906,-0.6049341,-0.5890591,-0.5750536,-0.56058836,-0.54563284,-0.532087,-0.52090096,-0.51155376,-0.50361633,-0.4961385,-0.49334967,-0.4970885,-0.5106038,-0.53303707,-0.5633772,-0.6002758,-0.64042294,-0.68060064,-0.7155991,-0.74596995,-0.7758504,-0.8052712,-0.83423233,-0.8585044,-0.87624884,-0.8865155,-0.8935336,-0.90193075,-0.90799874,-0.91219735,-0.9103279,-0.9084585,-0.9052099,-0.90612936,-0.90658903,-0.90612936,-0.90285015,-0.8958627,-0.889335,-0.884646,-0.88277656,-0.8823169,-0.88185716,-0.88185716,-0.88044745,-0.8790377,-0.87716824,-0.87250996,-0.8678517,-0.86365306,-0.86365306,-0.86690164,-0.8678517,-0.86598223,-0.86365306,-0.8622433,-0.8612933,-0.862703,-0.8622433,-0.8612933,-0.86457247,-0.86690164,-0.8673613,-0.8650322,-0.8612933,-0.8612933,-0.86457247,-0.86690164,-0.86598223,-0.86365306,-0.862703,-0.8641128,-0.8655225,-0.86457247,-0.86457247,-0.8650322,-0.8687711,-0.8697211,-0.8673613,-0.86365306,-0.8612933,-0.862703,-0.86598223,-0.8664419,-0.86365306,-0.8617836,-0.8608336,-0.8608336,-0.86037385,-0.856635,-0.85522527,-0.85476553,-0.8561753,-0.8570947,-0.85476553,-0.8561753,-0.8585044,-0.85804474,-0.8585044,-0.8557156,-0.85102665,-0.8496169,-0.8491572,-0.8477781,-0.8449586,-0.84262943,-0.8440392,-0.84308916,-0.84590864,-0.8477781,-0.8491572,-0.85102665,-0.8496169,-0.8482378,-0.84541833,-0.8440392,-0.84308916,-0.84167945,-0.84076,-0.83889055,-0.83656144,-0.8351517,-0.8318725,-0.8267545,-0.818817,-0.8076004,-0.7950046,-0.78191847,-0.773981,-0.7702421,-0.767913,-0.76043516,-0.7478394,-0.7338339,-0.72356725,-0.7212075,-0.7226172,-0.7240269,-0.72540605,-0.72589636,-0.72914493,-0.7342936,-0.74131167,-0.75997543,-0.7912657,-0.8323629,-0.8678517,-0.889335,-0.8912044,-0.88044745,-0.8706405,-0.86457247,-0.8608336,-0.8599142,-0.85804474,-0.8570947,-0.85896415,-0.86037385,-0.862703,-0.86316276,-0.87159055,-0.889335,-0.90894884,-0.90707934,-0.8585044,-0.74177134,-0.5493717,-0.2939626,0.023107648,0.37474728,0.6918174,0.8870058,0.86972106,0.62270916,0.21363783,-0.2337113,-0.59794664,-0.8253448,-0.9266932,-0.9505057,-0.9434876,-0.93650013,-0.9355501,-0.93650013,-0.93368065,-0.93368065,-0.933221,-0.9308918,-0.92948204,-0.92482376,-0.92341405,-0.9229543,-0.9215446,-0.9196751,-0.9140668,-0.90612936,-0.89727247,-0.88697517,-0.87670857,-0.8687711,-0.8655225,-0.86457247,-0.8641128,-0.86316276,-0.86037385,-0.856635,-0.85102665,-0.8435489,-0.8361017,-0.82954335,-0.82721424,-0.82721424,-0.8253448,-0.8197364,-0.8108795,-0.80432117,-0.7987435,-0.79592395,-0.79267544,-0.7884462,-0.7823782,-0.773981,-0.7646338,-0.75295734,-0.7426908,-0.7342936,-0.72868526,-0.7216978,-0.71002144,-0.6941465,-0.67732143,-0.66190624,-0.6483604,-0.6357646,-0.6231688,-0.6096231,-0.59561753,-0.58158135,-0.5680661,-0.5540607,-0.5409745,-0.52975786,-0.52041066,-0.5134232,-0.510144,-0.51296353,-0.52182037,-0.53628564,-0.55730915,-0.5825314,-0.61615074,-0.6549188,-0.69506586,-0.735213,-0.77211154,-0.80481154,-0.8356114,-0.85804474,-0.8776586,-0.89071405,-0.901471,-0.9103279,-0.91639596,-0.92013484,-0.9229543,-0.92574316,-0.92715293,-0.9252835,-0.92013484,-0.9145265,-0.9126571,-0.9136071,-0.9140668,-0.9126571,-0.90753907,-0.90334046,-0.900521,-0.8981918,-0.8944529,-0.89071405,-0.8879252,-0.88838494,-0.88697517,-0.8851057,-0.8781183,-0.8739197,-0.8720503,-0.8729696,-0.87578917,-0.8781183,-0.87952805,-0.8790377,-0.8739197,-0.86923075,-0.86457247,-0.86457247,-0.8687711,-0.87346,-0.87483907,-0.8739197,-0.8743794,-0.87532943,-0.8776586,-0.8781183,-0.8743794,-0.8706405,-0.86831135,-0.8655225,-0.86690164,-0.86923075,-0.87250996,-0.87624884,-0.8790377,-0.87670857,-0.8739197,-0.8720503,-0.87159055,-0.8711002,-0.8697211,-0.8687711,-0.86831135,-0.87018085,-0.87250996,-0.87532943,-0.87624884,-0.87532943,-0.8743794,-0.86831135,-0.8622433,-0.85804474,-0.8608336,-0.8664419,-0.8711002,-0.87250996,-0.87018085,-0.86690164,-0.86316276,-0.8608336,-0.85896415,-0.8585044,-0.8622433,-0.8655225,-0.8650322,-0.86037385,-0.8524364,-0.8482378,-0.8477781,-0.8496169,-0.85102665,-0.84869754,-0.8463684,-0.8449586,-0.84262943,-0.83748084,-0.8253448,-0.81461847,-0.80386144,-0.79687405,-0.79313517,-0.7875268,-0.7772602,-0.7646338,-0.75157833,-0.74177134,-0.7375728,-0.7384922,-0.74036163,-0.74177134,-0.74177134,-0.74036163,-0.7436408,-0.75016856,-0.7669935,-0.79687405,-0.8337419,-0.8687711,-0.8916641,-0.8967821,-0.88838494,-0.8776586,-0.87159055,-0.8720503,-0.8743794,-0.8739197,-0.8711002,-0.8678517,-0.86598223,-0.86365306,-0.862703,-0.86923075,-0.8855961,-0.9103279,-0.92341405,-0.89632237,-0.806681,-0.64603126,-0.42424148,-0.14639896,0.17627966,0.4956789,0.73242414,0.7940545,0.63202584,0.28507507,-0.14171004,-0.52182037,-0.7814588,-0.9145265,-0.9565737,-0.9528348,-0.939289,-0.92948204,-0.9252835,-0.9262029,-0.9299418,-0.93135154,-0.9318112,-0.9290224,-0.92433345,-0.9178057,-0.9140668,-0.91127795,-0.90894884,-0.90425986,-0.89727247,-0.8912044,-0.884646,-0.88044745,-0.87346,-0.86598223,-0.8612933,-0.85896415,-0.8594238,-0.85804474,-0.85335577,-0.8482378,-0.8449586,-0.8412197,-0.8337419,-0.8248851,-0.81599754,-0.81041986,-0.8085504,-0.80573094,-0.801992,-0.7973337,-0.7912657,-0.78565735,-0.7795893,-0.7735213,-0.767913,-0.7613852,-0.75295734,-0.7422311,-0.72868526,-0.7155991,-0.7044131,-0.69601595,-0.68853813,-0.68060064,-0.6684646,-0.6516396,-0.63481456,-0.6189396,-0.60355496,-0.59092855,-0.5783328,-0.5629176,-0.5470426,-0.5292982,-0.5148329,-0.50361633,-0.4970885,-0.4961385,-0.4970885,-0.5007968,-0.5106038,-0.52742875,-0.5526509,-0.58581054,-0.625498,-0.6698437,-0.71422005,-0.7557769,-0.7893962,-0.8169476,-0.8379712,-0.8561753,-0.8743794,-0.88979465,-0.901471,-0.90707934,-0.90753907,-0.90612936,-0.90334046,-0.90425986,-0.90425986,-0.90425986,-0.9038002,-0.90425986,-0.9047196,-0.9052099,-0.9023904,-0.89307386,-0.8855961,-0.88277656,-0.88277656,-0.8865155,-0.8879252,-0.8851057,-0.88044745,-0.87716824,-0.87346,-0.86923075,-0.86457247,-0.8622433,-0.8641128,-0.86457247,-0.8641128,-0.8612933,-0.8594238,-0.8575851,-0.85896415,-0.85804474,-0.8557156,-0.85430586,-0.8557156,-0.85804474,-0.8599142,-0.8612933,-0.86316276,-0.86457247,-0.86365306,-0.8617836,-0.8594238,-0.8575851,-0.85804474,-0.8585044,-0.85804474,-0.8561753,-0.856635,-0.8575851,-0.85804474,-0.8585044,-0.8575851,-0.8557156,-0.85522527,-0.85384613,-0.8524364,-0.85430586,-0.85335577,-0.85430586,-0.85335577,-0.8528961,-0.8524364,-0.85476553,-0.8561753,-0.85335577,-0.84869754,-0.8435489,-0.84167945,-0.8435489,-0.84590864,-0.8491572,-0.8491572,-0.8491572,-0.84869754,-0.8472878,-0.84449893,-0.84262943,-0.84216976,-0.8449586,-0.8463684,-0.84449893,-0.84076,-0.83748084,-0.8361017,-0.8361017,-0.8356114,-0.8361017,-0.83748084,-0.83656144,-0.83423233,-0.8290837,-0.82301563,-0.8197364,-0.8220656,-0.8253448,-0.82721424,-0.82393503,-0.81461847,-0.7996629,-0.78191847,-0.76604354,-0.75623655,-0.75390744,-0.7557769,-0.752038,-0.7384922,-0.7212075,-0.70720196,-0.7011339,-0.7039534,-0.71002144,-0.7155991,-0.71887827,-0.7212075,-0.7226172,-0.7249464,-0.7328838,-0.75482684,-0.78985596,-0.8267545,-0.8561753,-0.8711002,-0.8720503,-0.8641128,-0.8575851,-0.8524364,-0.850567,-0.85010725,-0.85010725,-0.8491572,-0.8463684,-0.8435489,-0.84590864,-0.8514863,-0.8655225,-0.88746554,-0.90193075,-0.8902544,-0.82954335,-0.697395,-0.4961385,-0.22905296,0.10389221,0.4597304,0.76932275,0.9355501,0.8823168,0.6072941,0.19123507,-0.24023896,-0.57974255,-0.78893656,-0.8865155,-0.9140668,-0.91688627,-0.91639596,-0.91639596,-0.92013484,-0.92341405,-0.92574316,-0.9252835,-0.9220043,-0.9182654,-0.9140668,-0.9117377,-0.9084585,-0.9038002,-0.900521,-0.895403,-0.889335,-0.88277656,-0.8743794,-0.8678517,-0.8622433,-0.8570947,-0.8514863,-0.8472878,-0.8440392,-0.84167945,-0.83889055,-0.83423233,-0.8276739,-0.82301563,-0.8211462,-0.817867,-0.8136684,-0.8090101,-0.80481154,-0.80248237,-0.7987435,-0.7912657,-0.7828685,-0.77539074,-0.7702421,-0.7646338,-0.75718665,-0.74456024,-0.7342936,-0.72589636,-0.71982837,-0.7155991,-0.708152,-0.697395,-0.6843395,-0.66892433,-0.653509,-0.6385535,-0.625498,-0.6110021,-0.59420776,-0.5755133,-0.5591787,-0.5442537,-0.5311676,-0.5190315,-0.5054858,-0.49334967,-0.48446214,-0.48167324,-0.48446214,-0.49472874,-0.5124731,-0.5395648,-0.5718051,-0.60634387,-0.6427827,-0.68060064,-0.7212075,-0.7608949,-0.7954643,-0.8220656,-0.84262943,-0.8608336,-0.87716824,-0.89071405,-0.8991419,-0.90101135,-0.900521,-0.8996016,-0.8981918,-0.89773214,-0.8967821,-0.8981918,-0.89865154,-0.8967821,-0.89071405,-0.8841863,-0.8809071,-0.8809071,-0.88277656,-0.8823169,-0.8776586,-0.8729696,-0.86831135,-0.8650322,-0.8622433,-0.8608336,-0.8622433,-0.8673613,-0.87018085,-0.8687711,-0.862703,-0.8575851,-0.8557156,-0.8570947,-0.85804474,-0.8575851,-0.856635,-0.8561753,-0.8561753,-0.856635,-0.85522527,-0.8561753,-0.8575851,-0.85896415,-0.85896415,-0.8570947,-0.8557156,-0.8561753,-0.85384613,-0.8519767,-0.8491572,-0.850567,-0.85476553,-0.8585044,-0.8594238,-0.85430586,-0.84869754,-0.84262943,-0.8435489,-0.84541833,-0.8496169,-0.85430586,-0.8561753,-0.856635,-0.85384613,-0.8491572,-0.8472878,-0.84590864,-0.8463684,-0.84682804,-0.84590864,-0.84590864,-0.84682804,-0.84869754,-0.84869754,-0.84590864,-0.84590864,-0.8463684,-0.84682804,-0.8440392,-0.8403003,-0.83748084,-0.8356114,-0.8361017,-0.83423233,-0.8314128,-0.8314128,-0.834692,-0.8379712,-0.83981,-0.83656144,-0.83423233,-0.8323629,-0.8300337,-0.8281643,-0.8267545,-0.8258045,-0.8276739,-0.8290837,-0.82721424,-0.8248851,-0.8253448,-0.8267545,-0.8281643,-0.8281643,-0.8253448,-0.82393503,-0.8253448,-0.8248851,-0.82442534,-0.8225559,-0.818817,-0.8141281,-0.80481154,-0.7893962,-0.77165186,-0.7576463,-0.75157833,-0.75295734,-0.75295734,-0.74924916,-0.7370824,-0.7184186,-0.70159364,-0.6908673,-0.68945754,-0.69601595,-0.7034631,-0.7076616,-0.7090714,-0.7090714,-0.7123506,-0.72074777,-0.73895186,-0.76837265,-0.8061906,-0.84308916,-0.86831135,-0.87483907,-0.8673613,-0.856635,-0.8496169,-0.8496169,-0.8514863,-0.85430586,-0.85384613,-0.85384613,-0.8524364,-0.8491572,-0.8472878,-0.85476553,-0.87578917,-0.900521,-0.90753907,-0.8664419,-0.75390744,-0.5661968,-0.31262642,0.007722974,0.36959863,0.7072021,0.9304322,0.94909596,0.7371131,0.3490653,-0.09595466,-0.48305237,-0.7478394,-0.8865155,-0.9346307,-0.93741953,-0.9318112,-0.9308918,-0.933221,-0.93741953,-0.939289,-0.94161814,-0.9402084,-0.93650013,-0.9299418,-0.9215446,-0.9136071,-0.90612936,-0.9000613,-0.8935336,-0.88838494,-0.8851057,-0.8823169,-0.878578,-0.8729696,-0.86831135,-0.86831135,-0.8678517,-0.8650322,-0.8585044,-0.8472878,-0.8379712,-0.83282256,-0.8300337,-0.8262948,-0.82160586,-0.81927675,-0.8164879,-0.8169476,-0.8155378,-0.81041986,-0.80248237,-0.7950046,-0.78565735,-0.7758504,-0.7669935,-0.76043516,-0.75482684,-0.75016856,-0.7426908,-0.73475325,-0.72589636,-0.71422005,-0.7030034,-0.6875881,-0.6717131,-0.65911734,-0.6451118,-0.6287465,-0.6114925,-0.5923383,-0.5750536,-0.5652467,-0.5535703,-0.5400245,-0.52555925,-0.5096843,-0.498958,-0.4905302,-0.4840024,-0.48167324,-0.4840024,-0.49334967,-0.51201344,-0.5386454,-0.570855,-0.6114925,-0.65629786,-0.69785476,-0.7342936,-0.7688323,-0.8010726,-0.8318725,-0.8585044,-0.8781183,-0.89071405,-0.89865154,-0.90707934,-0.91127795,-0.9126571,-0.9117377,-0.90986824,-0.9103279,-0.90894884,-0.90334046,-0.89632237,-0.8912044,-0.88979465,-0.8912044,-0.8925835,-0.89071405,-0.8865155,-0.88185716,-0.8790377,-0.8781183,-0.87624884,-0.87624884,-0.87483907,-0.8706405,-0.8650322,-0.8608336,-0.8599142,-0.86365306,-0.8664419,-0.8664419,-0.8641128,-0.8612933,-0.8585044,-0.8570947,-0.85384613,-0.850567,-0.8514863,-0.85476553,-0.8608336,-0.86316276,-0.86316276,-0.8655225,-0.86598223,-0.8673613,-0.86598223,-0.8608336,-0.8575851,-0.8594238,-0.86316276,-0.8650322,-0.8641128,-0.86037385,-0.8585044,-0.86037385,-0.8612933,-0.86037385,-0.8622433,-0.8612933,-0.86037385,-0.8585044,-0.85335577,-0.8491572,-0.8491572,-0.850567,-0.8528961,-0.85522527,-0.85804474,-0.86037385,-0.8612933,-0.8599142,-0.8561753,-0.8524364,-0.8491572,-0.84682804,-0.84262943,-0.8403003,-0.8403003,-0.84076,-0.8440392,-0.84449893,-0.84590864,-0.8491572,-0.85010725,-0.850567,-0.84682804,-0.83981,-0.8356114,-0.83423233,-0.83656144,-0.8403003,-0.8403003,-0.83981,-0.8379712,-0.8356114,-0.8351517,-0.8351517,-0.8370211,-0.83748084,-0.83656144,-0.8356114,-0.83282256,-0.8337419,-0.8351517,-0.8356114,-0.83282256,-0.8304934,-0.8262948,-0.818817,-0.8094698,-0.79592395,-0.78099906,-0.7730616,-0.77119213,-0.773981,-0.7744407,-0.76604354,-0.75062823,-0.7342936,-0.72307694,-0.7212075,-0.72356725,-0.7277658,-0.7296353,-0.7282256,-0.7240269,-0.72074777,-0.7296353,-0.758106,-0.801992,-0.84682804,-0.8781183,-0.8888446,-0.88185716,-0.8697211,-0.8608336,-0.8570947,-0.8575851,-0.8585044,-0.8594238,-0.8585044,-0.8570947,-0.8561753,-0.8557156,-0.8557156,-0.86457247,-0.884646,-0.9056696,-0.90612936,-0.85804474,-0.7408213,-0.55124116,-0.30422914,0.00070488453,0.33551955,0.6367147,0.81461847,0.7795893,0.5209011,0.1109103,-0.31869447,-0.6558382,-0.8570947,-0.9434876,-0.95936257,-0.945357,-0.9262029,-0.91219735,-0.9084585,-0.9117377,-0.9196751,-0.9252835,-0.92574316,-0.9205945,-0.9131474,-0.9047196,-0.8958627,-0.8916641,-0.89071405,-0.8865155,-0.8809071,-0.8743794,-0.87018085,-0.86923075,-0.87159055,-0.87018085,-0.8622433,-0.85476553,-0.8472878,-0.84262943,-0.83981,-0.83889055,-0.834692,-0.82954335,-0.8234753,-0.8164879,-0.81041986,-0.8085504,-0.80573094,-0.80340177,-0.7996629,-0.79313517,-0.7851976,-0.77771986,-0.77211154,-0.76745325,-0.76417404,-0.75997543,-0.75295734,-0.74456024,-0.73334354,-0.7221575,-0.7137603,-0.7044131,-0.6931964,-0.67686176,-0.65911734,-0.64557153,-0.6343549,-0.6240882,-0.6096231,-0.59187865,-0.57364386,-0.56104803,-0.55124116,-0.5409745,-0.526019,-0.5124731,-0.50128716,-0.49426907,-0.49239957,-0.49754828,-0.50876486,-0.5278884,-0.55452037,-0.5871897,-0.6226785,-0.6623659,-0.7030034,-0.74177134,-0.7768005,-0.80806005,-0.834692,-0.856635,-0.87578917,-0.89071405,-0.8996016,-0.90753907,-0.9117377,-0.9126571,-0.9117377,-0.9103279,-0.91219735,-0.9140668,-0.91593623,-0.9131474,-0.90753907,-0.90285015,-0.901471,-0.901471,-0.89773214,-0.8921238,-0.8879252,-0.8855961,-0.8855961,-0.8865155,-0.8851057,-0.88277656,-0.88044745,-0.87670857,-0.8739197,-0.8729696,-0.87670857,-0.8823169,-0.8837266,-0.8813975,-0.87346,-0.86923075,-0.86831135,-0.87018085,-0.8720503,-0.8711002,-0.8706405,-0.8687711,-0.86690164,-0.86457247,-0.8608336,-0.8617836,-0.8641128,-0.8687711,-0.8711002,-0.87018085,-0.86690164,-0.8655225,-0.86598223,-0.86457247,-0.86316276,-0.86316276,-0.8608336,-0.8617836,-0.86316276,-0.86365306,-0.86457247,-0.86598223,-0.86690164,-0.8650322,-0.86365306,-0.8622433,-0.862703,-0.86316276,-0.8622433,-0.8585044,-0.856635,-0.85804474,-0.8608336,-0.8650322,-0.86457247,-0.8608336,-0.8561753,-0.850567,-0.8477781,-0.8477781,-0.85010725,-0.8514863,-0.8524364,-0.84869754,-0.84449893,-0.8403003,-0.8384309,-0.83981,-0.8435489,-0.84541833,-0.8477781,-0.8477781,-0.84541833,-0.84308916,-0.8403003,-0.84167945,-0.84308916,-0.8449586,-0.8449586,-0.84167945,-0.84167945,-0.84167945,-0.84216976,-0.8393503,-0.8356114,-0.8356114,-0.83748084,-0.83981,-0.8379712,-0.8304934,-0.82160586,-0.8132087,-0.80573094,-0.7963837,-0.78565735,-0.7772602,-0.773981,-0.77119213,-0.7637144,-0.75016856,-0.736163,-0.72540605,-0.7226172,-0.7249464,-0.7282256,-0.7296353,-0.7296353,-0.7272755,-0.72540605,-0.72448665,-0.73334354,-0.75951576,-0.7982531,-0.8393503,-0.8711002,-0.8837266,-0.8799877,-0.87159055,-0.86457247,-0.8608336,-0.86037385,-0.85804474,-0.8557156,-0.85335577,-0.8519767,-0.85010725,-0.8496169,-0.85804474,-0.8776586,-0.9052099,-0.92433345,-0.90425986,-0.8267545,-0.6726632,-0.44851357,-0.1613239,0.18329775,0.53444695,0.812749,0.92807233,0.8155378,0.498008,0.06794369,-0.34811515,-0.65865767,-0.8403003,-0.9196751,-0.9388293,-0.9388293,-0.93650013,-0.93650013,-0.93787926,-0.9402084,-0.94161814,-0.9402084,-0.93833894,-0.9350904,-0.93040144,-0.92574316,-0.91921544,-0.9136071,-0.9094085,-0.90753907,-0.90334046,-0.8967821,-0.8888446,-0.8823169,-0.87578917,-0.8678517,-0.8612933,-0.8585044,-0.85804474,-0.8608336,-0.8594238,-0.850567,-0.84262943,-0.8361017,-0.8314128,-0.8276739,-0.82068646,-0.81507814,-0.8090101,-0.80386144,-0.7996629,-0.7950046,-0.7917254,-0.7893962,-0.78473794,-0.7744407,-0.75997543,-0.7487588,-0.7394422,-0.73334354,-0.7282256,-0.7216978,-0.71326995,-0.7030034,-0.6904076,-0.6764021,-0.6633159,-0.6507202,-0.63809377,-0.6231688,-0.60542446,-0.58486056,-0.5666565,-0.55219126,-0.5414343,-0.53070796,-0.5213607,-0.5134232,-0.50594544,-0.5031566,-0.50128716,-0.5045357,-0.5176219,-0.5400245,-0.5685259,-0.60073555,-0.6311063,-0.6684646,-0.7086117,-0.74970883,-0.7861171,-0.8132087,-0.8356114,-0.8561753,-0.87532943,-0.8921238,-0.9047196,-0.9094085,-0.9136071,-0.91501683,-0.9136071,-0.91501683,-0.91501683,-0.9145265,-0.91127795,-0.9038002,-0.89491266,-0.88838494,-0.8851057,-0.884646,-0.8855961,-0.8851057,-0.8837266,-0.88277656,-0.88044745,-0.87716824,-0.87532943,-0.8739197,-0.87346,-0.87346,-0.8697211,-0.86598223,-0.86316276,-0.8655225,-0.8697211,-0.87159055,-0.87159055,-0.87018085,-0.87018085,-0.87159055,-0.8729696,-0.87159055,-0.8697211,-0.8664419,-0.86365306,-0.8617836,-0.862703,-0.86365306,-0.8655225,-0.8655225,-0.8641128,-0.8641128,-0.8678517,-0.87018085,-0.8711002,-0.8687711,-0.86598223,-0.86365306,-0.8650322,-0.86690164,-0.86690164,-0.8655225,-0.86316276,-0.86365306,-0.8641128,-0.86316276,-0.86316276,-0.8612933,-0.86037385,-0.862703,-0.8641128,-0.8650322,-0.8655225,-0.8641128,-0.862703,-0.8585044,-0.85430586,-0.8519767,-0.85335577,-0.8575851,-0.8599142,-0.86037385,-0.86037385,-0.8585044,-0.856635,-0.85384613,-0.8524364,-0.85102665,-0.85102665,-0.85384613,-0.8528961,-0.8519767,-0.8528961,-0.85430586,-0.8561753,-0.85384613,-0.85010725,-0.8440392,-0.84076,-0.83981,-0.84262943,-0.8435489,-0.84590864,-0.8482378,-0.84869754,-0.8477781,-0.84449893,-0.84167945,-0.84076,-0.8412197,-0.83981,-0.834692,-0.8304934,-0.82442534,-0.818817,-0.8090101,-0.79592395,-0.7823782,-0.77257127,-0.7688323,-0.76604354,-0.7576463,-0.7436408,-0.72868526,-0.7170088,-0.71422005,-0.71654916,-0.71933806,-0.71982837,-0.7184186,-0.7160895,-0.7170088,-0.7240269,-0.74177134,-0.773981,-0.812749,-0.8496169,-0.8743794,-0.8823169,-0.8776586,-0.87018085,-0.86457247,-0.86365306,-0.8655225,-0.8678517,-0.8678517,-0.8678517,-0.86831135,-0.86457247,-0.8622433,-0.86690164,-0.88277656,-0.90658903,-0.91501683,-0.8799877,-0.77539074,-0.5904689,-0.3378486,-0.017499149,0.34765553,0.69040775,0.92482376,0.9579834,0.7553172,0.3733375,-0.074931026,-0.46766776,-0.74177134,-0.88979465,-0.945357,-0.9505057,-0.9402084,-0.9322709,-0.93650013,-0.94630706,-0.9547043,-0.9603126,-0.9570334,-0.94814587,-0.93787926,-0.9266932,-0.9178057,-0.91127795,-0.9108183,-0.91127795,-0.90894884,-0.90334046,-0.89632237,-0.889335,-0.8841863,-0.87952805,-0.8743794,-0.87018085,-0.86316276,-0.8575851,-0.8519767,-0.8477781,-0.8472878,-0.8477781,-0.84449893,-0.8384309,-0.8304934,-0.82721424,-0.8253448,-0.8202268,-0.8122893,-0.8015323,-0.7912657,-0.78565735,-0.7814588,-0.77631015,-0.7702421,-0.76417404,-0.7566963,-0.74924916,-0.73803246,-0.72540605,-0.71422005,-0.7034631,-0.692277,-0.6796506,-0.6661048,-0.65304935,-0.64183265,-0.63061595,-0.6166104,-0.60073555,-0.58532023,-0.56944525,-0.5540607,-0.5386454,-0.5227704,-0.5106038,-0.50220656,-0.49567878,-0.49285936,-0.49334967,-0.4998774,-0.5167024,-0.5409745,-0.5713147,-0.60680354,-0.6469813,-0.68853813,-0.7282256,-0.7623046,-0.7945449,-0.82160586,-0.84449893,-0.86365306,-0.8776586,-0.88746554,-0.89399326,-0.8991419,-0.90334046,-0.9084585,-0.9136071,-0.917346,-0.91639596,-0.90799874,-0.89865154,-0.8921238,-0.89071405,-0.8944529,-0.89727247,-0.89632237,-0.88838494,-0.8809071,-0.8776586,-0.87670857,-0.8790377,-0.87952805,-0.87670857,-0.8743794,-0.8720503,-0.86923075,-0.86923075,-0.8706405,-0.8729696,-0.87670857,-0.87624884,-0.8739197,-0.87159055,-0.8697211,-0.86831135,-0.8664419,-0.86457247,-0.86365306,-0.8641128,-0.86598223,-0.86365306,-0.8608336,-0.8599142,-0.8612933,-0.8655225,-0.8687711,-0.8711002,-0.87346,-0.87483907,-0.87483907,-0.87250996,-0.8678517,-0.8655225,-0.8650322,-0.86831135,-0.86923075,-0.8687711,-0.86831135,-0.8673613,-0.86690164,-0.8641128,-0.8612933,-0.86037385,-0.86316276,-0.86690164,-0.86598223,-0.86037385,-0.8519767,-0.8482378,-0.8514863,-0.85522527,-0.8557156,-0.85384613,-0.8519767,-0.8514863,-0.85384613,-0.85522527,-0.85335577,-0.85010725,-0.8463684,-0.84216976,-0.8412197,-0.84308916,-0.84682804,-0.85010725,-0.84869754,-0.84449893,-0.84167945,-0.84216976,-0.8440392,-0.8449586,-0.8412197,-0.8379712,-0.8351517,-0.8361017,-0.83748084,-0.8384309,-0.83889055,-0.8403003,-0.84167945,-0.8393503,-0.8370211,-0.83423233,-0.82862395,-0.8211462,-0.80806005,-0.79218507,-0.780049,-0.77257127,-0.7730616,-0.77070177,-0.7646338,-0.75016856,-0.73242414,-0.7184186,-0.7114005,-0.7123506,-0.7179589,-0.7221575,-0.7249464,-0.7221575,-0.7184186,-0.7184186,-0.7338339,-0.7697824,-0.8155378,-0.8561753,-0.88044745,-0.88277656,-0.8729696,-0.8612933,-0.85335577,-0.8514863,-0.85522527,-0.8612933,-0.86598223,-0.86690164,-0.8664419,-0.8655225,-0.86365306,-0.8664419,-0.8790377,-0.8958627,-0.90425986,-0.8776586,-0.7893962,-0.62454796,-0.39619976,-0.1071713,0.22810304,0.5540607,0.7903464,0.8384309,0.6525898,0.27946687,-0.16414338,-0.5484524,-0.80432117,-0.9290224,-0.9649709,-0.95608336,-0.93600976,-0.92013484,-0.9136071,-0.91639596,-0.9220043,-0.92715293,-0.92948204,-0.9276126,-0.9238737,-0.91875577,-0.9117377,-0.9056696,-0.901471,-0.89865154,-0.8925835,-0.8865155,-0.87952805,-0.8743794,-0.8711002,-0.86690164,-0.8608336,-0.85476553,-0.850567,-0.8496169,-0.8477781,-0.8440392,-0.8393503,-0.83423233,-0.8290837,-0.8234753,-0.81835735,-0.81461847,-0.81133926,-0.80573094,-0.7982531,-0.78985596,-0.7823782,-0.7805087,-0.7805087,-0.7749311,-0.76417404,-0.75482684,-0.7473797,-0.74456024,-0.7431505,-0.736163,-0.72356725,-0.70953107,-0.6955256,-0.6810603,-0.6661048,-0.65304935,-0.64183265,-0.63061595,-0.61615074,-0.5993258,-0.5825314,-0.5685259,-0.55730915,-0.5465829,-0.5353662,-0.5250996,-0.5148329,-0.5078149,-0.5003371,-0.4961385,-0.50266623,-0.5190315,-0.5465829,-0.57738274,-0.608673,-0.64042294,-0.675452,-0.71326995,-0.75482684,-0.79359484,-0.8258045,-0.8482378,-0.86457247,-0.87578917,-0.8865155,-0.89865154,-0.90799874,-0.91547656,-0.917346,-0.91501683,-0.9140668,-0.9136071,-0.9131474,-0.9108183,-0.90425986,-0.8967821,-0.89307386,-0.8921238,-0.8935336,-0.8935336,-0.8921238,-0.8888446,-0.8865155,-0.8837266,-0.8809071,-0.8781183,-0.87952805,-0.88277656,-0.88185716,-0.87716824,-0.87159055,-0.8673613,-0.8673613,-0.8678517,-0.86690164,-0.86457247,-0.8617836,-0.8608336,-0.8599142,-0.8608336,-0.862703,-0.8655225,-0.8673613,-0.8673613,-0.8655225,-0.8641128,-0.8650322,-0.86690164,-0.8673613,-0.8687711,-0.8687711,-0.8664419,-0.86598223,-0.8641128,-0.86457247,-0.8678517,-0.8706405,-0.8720503,-0.8720503,-0.86831135,-0.86365306,-0.85896415,-0.8570947,-0.85896415,-0.862703,-0.86690164,-0.86831135,-0.86598223,-0.8612933,-0.8561753,-0.85522527,-0.856635,-0.8594238,-0.8617836,-0.8608336,-0.856635,-0.8519767,-0.85010725,-0.84869754,-0.850567,-0.85335577,-0.8561753,-0.85804474,-0.85804474,-0.856635,-0.8561753,-0.85384613,-0.84869754,-0.8435489,-0.83889055,-0.8379712,-0.84076,-0.8449586,-0.8463684,-0.8449586,-0.8393503,-0.8351517,-0.8318725,-0.8323629,-0.8361017,-0.8384309,-0.83656144,-0.8281643,-0.8122893,-0.79687405,-0.78099906,-0.77211154,-0.76837265,-0.7651241,-0.75718665,-0.7455102,-0.73242414,-0.72307694,-0.72074777,-0.72307694,-0.72635615,-0.7282256,-0.730095,-0.7296353,-0.730095,-0.735213,-0.75390744,-0.7884462,-0.82954335,-0.8664419,-0.8865155,-0.8855961,-0.8776586,-0.8655225,-0.8585044,-0.8594238,-0.862703,-0.8650322,-0.8641128,-0.8599142,-0.8575851,-0.8585044,-0.8655225,-0.8799877,-0.9000613,-0.9182654,-0.91219735,-0.8557156,-0.72448665,-0.52090096,-0.25286543,0.07401168,0.4223721,0.7244867,0.8902544,0.84216976,0.57318425,0.16086435,-0.26733065,-0.60775363,-0.8197364,-0.9178057,-0.9467668,-0.94630706,-0.939289,-0.93600976,-0.93695986,-0.9425682,-0.9476862,-0.95096534,-0.9505057,-0.94581676,-0.9402084,-0.9318112,-0.9215446,-0.9136071,-0.9103279,-0.90894884,-0.90612936,-0.89727247,-0.88746554,-0.878578,-0.8720503,-0.86831135,-0.8650322,-0.8608336,-0.85804474,-0.8557156,-0.8514863,-0.84590864,-0.84076,-0.8370211,-0.83328223,-0.8262948,-0.81927675,-0.81740725,-0.818817,-0.82160586,-0.8211462,-0.8122893,-0.8010726,-0.7917254,-0.78332824,-0.7744407,-0.7655838,-0.75718665,-0.7524977,-0.7478394,-0.7408213,-0.73150474,-0.72074777,-0.7086117,-0.6946062,-0.67827153,-0.6623659,-0.64649093,-0.63297576,-0.6203494,-0.60542446,-0.59092855,-0.58066195,-0.57318413,-0.56383693,-0.5465829,-0.52834815,-0.51155376,-0.5031566,-0.5031566,-0.5078149,-0.5143426,-0.5232301,-0.5400245,-0.5657064,-0.59794664,-0.6357646,-0.6759117,-0.71654916,-0.7543671,-0.7870671,-0.8132087,-0.8356114,-0.8561753,-0.87532943,-0.8916641,-0.90334046,-0.90986824,-0.9126571,-0.9131474,-0.9108183,-0.90894884,-0.9103279,-0.91219735,-0.91593623,-0.9145265,-0.90894884,-0.9023904,-0.8967821,-0.8935336,-0.8916641,-0.8879252,-0.8855961,-0.8851057,-0.8855961,-0.8837266,-0.8809071,-0.8790377,-0.87716824,-0.87624884,-0.87483907,-0.87483907,-0.8743794,-0.87578917,-0.8776586,-0.87578917,-0.8739197,-0.87250996,-0.8711002,-0.87018085,-0.86690164,-0.86365306,-0.8650322,-0.87018085,-0.87670857,-0.87952805,-0.87716824,-0.8711002,-0.8664419,-0.86598223,-0.8673613,-0.8697211,-0.8711002,-0.87018085,-0.8711002,-0.8697211,-0.8687711,-0.8673613,-0.86831135,-0.86923075,-0.8697211,-0.87159055,-0.8729696,-0.87159055,-0.87159055,-0.8678517,-0.8641128,-0.862703,-0.862703,-0.8612933,-0.8599142,-0.856635,-0.85476553,-0.856635,-0.8594238,-0.86316276,-0.8655225,-0.8641128,-0.8608336,-0.85896415,-0.8561753,-0.85384613,-0.85384613,-0.85335577,-0.85335577,-0.85335577,-0.850567,-0.8482378,-0.8472878,-0.8472878,-0.8472878,-0.84590864,-0.84308916,-0.84216976,-0.8440392,-0.84541833,-0.8463684,-0.84541833,-0.8440392,-0.84449893,-0.84216976,-0.8412197,-0.8393503,-0.8379712,-0.8393503,-0.8356114,-0.82862395,-0.81835735,-0.80573094,-0.79359484,-0.78191847,-0.77257127,-0.7646338,-0.7590561,-0.75062823,-0.73570335,-0.7221575,-0.7123506,-0.7123506,-0.72074777,-0.7268158,-0.72868526,-0.7282256,-0.7272755,-0.7305547,-0.7370824,-0.74924916,-0.773981,-0.81041986,-0.850567,-0.8799877,-0.8912044,-0.88979465,-0.88277656,-0.8776586,-0.8739197,-0.8678517,-0.8617836,-0.85896415,-0.8599142,-0.86037385,-0.862703,-0.86831135,-0.8823169,-0.90612936,-0.9266932,-0.92482376,-0.87670857,-0.76417404,-0.5755133,-0.32056385,0.0044437647,0.36867917,0.70208406,0.91875577,0.9327613,0.72028804,0.33505988,-0.11091018,-0.5007968,-0.76745325,-0.9047196,-0.94814587,-0.94863623,-0.9434876,-0.9444376,-0.9505057,-0.95516396,-0.95749307,-0.95749307,-0.9532945,-0.94814587,-0.94302785,-0.93741953,-0.9318112,-0.92433345,-0.91593623,-0.9084585,-0.90285015,-0.8991419,-0.895403,-0.8912044,-0.8855961,-0.8813975,-0.8781183,-0.87346,-0.8678517,-0.8622433,-0.8561753,-0.85102665,-0.84541833,-0.84167945,-0.84076,-0.8403003,-0.84216976,-0.83981,-0.8318725,-0.8234753,-0.8141281,-0.8076004,-0.80248237,-0.79687405,-0.7903156,-0.7823782,-0.7744407,-0.7655838,-0.7543671,-0.7450199,-0.735213,-0.7282256,-0.7216978,-0.71422005,-0.7030034,-0.68945754,-0.67686176,-0.6609868,-0.6451118,-0.6292369,-0.6142813,-0.6016855,-0.5890591,-0.57364386,-0.5563898,-0.5405148,-0.5265093,-0.51529264,-0.5068954,-0.49941766,-0.4970885,-0.5017468,-0.51155376,-0.52975786,-0.5531106,-0.58440083,-0.6212994,-0.66190624,-0.7002145,-0.7384922,-0.7749311,-0.8085504,-0.83748084,-0.8612933,-0.878578,-0.8902544,-0.90193075,-0.90894884,-0.91219735,-0.9140668,-0.91593623,-0.9215446,-0.92482376,-0.92341405,-0.9182654,-0.90707934,-0.89865154,-0.89307386,-0.8902544,-0.8902544,-0.89071405,-0.89307386,-0.89399326,-0.8935336,-0.8912044,-0.8888446,-0.88605577,-0.8823169,-0.8790377,-0.87716824,-0.87578917,-0.87624884,-0.87624884,-0.87483907,-0.87018085,-0.86598223,-0.86598223,-0.8687711,-0.87346,-0.8781183,-0.8809071,-0.8790377,-0.87346,-0.8678517,-0.86457247,-0.8650322,-0.87018085,-0.87483907,-0.87532943,-0.8729696,-0.87159055,-0.86923075,-0.8687711,-0.87018085,-0.87159055,-0.87018085,-0.8678517,-0.8650322,-0.862703,-0.86457247,-0.86923075,-0.87250996,-0.8711002,-0.86923075,-0.8655225,-0.86365306,-0.862703,-0.8594238,-0.8557156,-0.85384613,-0.85476553,-0.8585044,-0.8622433,-0.8622433,-0.8622433,-0.86037385,-0.8575851,-0.8528961,-0.84869754,-0.8472878,-0.8477781,-0.85010725,-0.8514863,-0.85010725,-0.850567,-0.8519767,-0.85335577,-0.8514863,-0.8472878,-0.8412197,-0.8393503,-0.84167945,-0.8463684,-0.84869754,-0.8491572,-0.8472878,-0.8435489,-0.8403003,-0.8379712,-0.8370211,-0.8361017,-0.83328223,-0.8248851,-0.8108795,-0.7945449,-0.7828685,-0.7772602,-0.77539074,-0.773981,-0.7688323,-0.7576463,-0.74177134,-0.72589636,-0.71422005,-0.7123506,-0.7146797,-0.71982837,-0.71982837,-0.7179589,-0.71654916,-0.71933806,-0.7305547,-0.7534477,-0.7851976,-0.8258045,-0.8622433,-0.88277656,-0.884646,-0.87716824,-0.86690164,-0.86365306,-0.8650322,-0.86598223,-0.8641128,-0.8622433,-0.8617836,-0.8622433,-0.8617836,-0.8641128,-0.8729696,-0.8888446,-0.90658903,-0.9000613,-0.8463684,-0.72589636,-0.53303707,-0.27339864,0.05114937,0.40554714,0.7193688,0.8958627,0.8491571,0.57180524,0.14498937,-0.30140972,-0.65209925,-0.86037385,-0.945357,-0.9570334,-0.9444376,-0.93135154,-0.9252835,-0.9210849,-0.9196751,-0.9196751,-0.92433345,-0.9266932,-0.9262029,-0.9205945,-0.9131474,-0.90658903,-0.901471,-0.895403,-0.8888446,-0.8837266,-0.88044745,-0.8799877,-0.87624884,-0.87018085,-0.8617836,-0.85522527,-0.8491572,-0.84590864,-0.84262943,-0.8393503,-0.8384309,-0.83423233,-0.8267545,-0.817867,-0.8122893,-0.8085504,-0.8076004,-0.80386144,-0.79592395,-0.7884462,-0.78099906,-0.77863926,-0.7758504,-0.77165186,-0.7665032,-0.75997543,-0.75295734,-0.7436408,-0.73475325,-0.72540605,-0.7155991,-0.7067422,-0.69880474,-0.68804777,-0.6740423,-0.6572479,-0.6395035,-0.6231688,-0.6119522,-0.6016855,-0.592798,-0.5792522,-0.56104803,-0.5409745,-0.52414954,-0.5124731,-0.5064051,-0.504076,-0.5017468,-0.5017468,-0.5068954,-0.5171621,-0.5358259,-0.56432724,-0.60073555,-0.6427827,-0.6838492,-0.71982837,-0.7510879,-0.7791296,-0.80806005,-0.8370211,-0.86037385,-0.87716824,-0.8879252,-0.89399326,-0.8996016,-0.9056696,-0.9103279,-0.9131474,-0.9131474,-0.9103279,-0.90334046,-0.89727247,-0.89399326,-0.89307386,-0.8958627,-0.8981918,-0.89727247,-0.8921238,-0.88746554,-0.8841863,-0.8832669,-0.88277656,-0.88044745,-0.87578917,-0.8711002,-0.86923075,-0.87159055,-0.8739197,-0.87532943,-0.8711002,-0.8655225,-0.8612933,-0.8599142,-0.8617836,-0.86457247,-0.86598223,-0.86598223,-0.86365306,-0.8599142,-0.8575851,-0.856635,-0.8570947,-0.8622433,-0.86457247,-0.86457247,-0.86365306,-0.86037385,-0.8599142,-0.862703,-0.86365306,-0.86365306,-0.85896415,-0.856635,-0.856635,-0.8585044,-0.86316276,-0.86690164,-0.8687711,-0.86831135,-0.8655225,-0.85896415,-0.85384613,-0.8514863,-0.85384613,-0.85896415,-0.8612933,-0.8608336,-0.85896415,-0.85804474,-0.8575851,-0.8575851,-0.85522527,-0.8528961,-0.8514863,-0.850567,-0.8496169,-0.8491572,-0.8491572,-0.8528961,-0.85522527,-0.85522527,-0.85335577,-0.85010725,-0.84682804,-0.84590864,-0.84262943,-0.83981,-0.8370211,-0.8361017,-0.8351517,-0.8304934,-0.8225559,-0.8141281,-0.8052712,-0.79779345,-0.78657675,-0.7772602,-0.7702421,-0.76417404,-0.758106,-0.7487588,-0.73803246,-0.7310144,-0.73242414,-0.7370824,-0.7399019,-0.7394422,-0.7370824,-0.73475325,-0.73895186,-0.7534477,-0.7814588,-0.8211462,-0.85896415,-0.8832669,-0.88697517,-0.8776586,-0.86690164,-0.86316276,-0.8650322,-0.8673613,-0.86690164,-0.86365306,-0.862703,-0.8641128,-0.86690164,-0.8687711,-0.87578917,-0.89071405,-0.9103279,-0.9140668,-0.8790377,-0.7823782,-0.6152314,-0.3887527,-0.10202265,0.22764337,0.54658294,0.7711921,0.81087947,0.6273675,0.26500165,-0.16601288,-0.5414343,-0.78985596,-0.91127795,-0.94489735,-0.9411584,-0.9318112,-0.9276126,-0.9238737,-0.9210849,-0.9220043,-0.92574316,-0.92856264,-0.92574316,-0.917346,-0.9103279,-0.90799874,-0.90658903,-0.9023904,-0.89632237,-0.8902544,-0.8865155,-0.8855961,-0.8832669,-0.8776586,-0.8697211,-0.862703,-0.8561753,-0.8496169,-0.8435489,-0.84076,-0.83981,-0.8393503,-0.83748084,-0.8314128,-0.8248851,-0.82068646,-0.8164879,-0.8132087,-0.8094698,-0.80386144,-0.7963837,-0.78893656,-0.7823782,-0.7758504,-0.77211154,-0.76604354,-0.75623655,-0.7450199,-0.73242414,-0.7212075,-0.71326995,-0.7034631,-0.6899172,-0.67778116,-0.66423535,-0.653509,-0.64603126,-0.63622427,-0.62454796,-0.6105424,-0.5937481,-0.5755133,-0.55730915,-0.5395648,-0.5250996,-0.5134232,-0.50502604,-0.49754828,-0.4919399,-0.4910205,-0.498958,-0.5124731,-0.5316273,-0.55684954,-0.5895495,-0.62782717,-0.669384,-0.708152,-0.74177134,-0.77165186,-0.80294204,-0.8323629,-0.856635,-0.87483907,-0.8879252,-0.89632237,-0.90334046,-0.90799874,-0.9084585,-0.9094085,-0.9117377,-0.9140668,-0.9145265,-0.9126571,-0.90799874,-0.9047196,-0.9038002,-0.90101135,-0.8991419,-0.89632237,-0.89307386,-0.8912044,-0.889335,-0.88746554,-0.8855961,-0.8837266,-0.8809071,-0.87532943,-0.8706405,-0.8687711,-0.8720503,-0.87670857,-0.878578,-0.87670857,-0.87250996,-0.87018085,-0.8697211,-0.8706405,-0.87018085,-0.8678517,-0.8664419,-0.86457247,-0.8641128,-0.86316276,-0.86316276,-0.8641128,-0.8664419,-0.86690164,-0.86831135,-0.8697211,-0.87250996,-0.87624884,-0.8739197,-0.86831135,-0.86037385,-0.8585044,-0.8608336,-0.86457247,-0.8687711,-0.8697211,-0.8687711,-0.86690164,-0.8622433,-0.8575851,-0.85430586,-0.8561753,-0.85896415,-0.8612933,-0.8617836,-0.8599142,-0.8585044,-0.8585044,-0.8594238,-0.86037385,-0.86037385,-0.86037385,-0.8594238,-0.856635,-0.85384613,-0.85430586,-0.85430586,-0.8557156,-0.8557156,-0.85335577,-0.8524364,-0.85335577,-0.8519767,-0.84869754,-0.8440392,-0.8412197,-0.8403003,-0.8435489,-0.8472878,-0.84869754,-0.8524364,-0.85476553,-0.85476553,-0.85102665,-0.84590864,-0.8384309,-0.82862395,-0.81507814,-0.7982531,-0.78565735,-0.7781796,-0.7758504,-0.773981,-0.7618449,-0.7455102,-0.7310144,-0.72307694,-0.72635615,-0.73150474,-0.736163,-0.7366227,-0.735213,-0.73334354,-0.73196447,-0.7366227,-0.7534477,-0.7879865,-0.8304934,-0.86923075,-0.8912044,-0.8944529,-0.8879252,-0.8790377,-0.8739197,-0.8720503,-0.8711002,-0.87018085,-0.86923075,-0.86690164,-0.86598223,-0.86690164,-0.8711002,-0.8855961,-0.9052099,-0.9238737,-0.9210849,-0.8743794,-0.75997543,-0.5675758,-0.30701804,0.021238208,0.3803556,0.70208406,0.9019308,0.89727247,0.67125356,0.2822863,-0.15433645,-0.52182037,-0.76745325,-0.8935336,-0.9397487,-0.94814587,-0.9490959,-0.9500153,-0.95096534,-0.9537542,-0.9570334,-0.9565737,-0.9523751,-0.94630706,-0.9388293,-0.93276125,-0.92715293,-0.9215446,-0.917346,-0.9140668,-0.9103279,-0.9052099,-0.89865154,-0.8921238,-0.88746554,-0.884646,-0.88044745,-0.87578917,-0.86923075,-0.8622433,-0.8575851,-0.8528961,-0.8491572,-0.8463684,-0.8440392,-0.84167945,-0.8361017,-0.8276739,-0.8197364,-0.81461847,-0.81179893,-0.8076004,-0.80340177,-0.79779345,-0.79267544,-0.7875268,-0.7791296,-0.76745325,-0.7566963,-0.7478394,-0.7431505,-0.7366227,-0.72540605,-0.71094084,-0.6955256,-0.67827153,-0.66190624,-0.6483604,-0.636684,-0.62782717,-0.6198896,-0.60588413,-0.5881397,-0.5675758,-0.5475023,-0.53070796,-0.5171621,-0.5054858,-0.49800795,-0.49472874,-0.4952191,-0.50220656,-0.51529264,-0.5386454,-0.5680661,-0.60355496,-0.64183265,-0.68060064,-0.71982837,-0.75718665,-0.7912657,-0.818817,-0.84216976,-0.8622433,-0.8813975,-0.89727247,-0.9084585,-0.9117377,-0.9094085,-0.90707934,-0.90707934,-0.9094085,-0.91127795,-0.9117377,-0.90894884,-0.9038002,-0.89865154,-0.8935336,-0.8925835,-0.89399326,-0.89399326,-0.89307386,-0.889335,-0.8841863,-0.8823169,-0.8841863,-0.8837266,-0.8823169,-0.8790377,-0.87532943,-0.8720503,-0.8687711,-0.8655225,-0.8655225,-0.8673613,-0.8711002,-0.87159055,-0.8697211,-0.86690164,-0.8650322,-0.86598223,-0.8664419,-0.8655225,-0.8641128,-0.8641128,-0.8673613,-0.8697211,-0.8697211,-0.8678517,-0.8641128,-0.8617836,-0.85896415,-0.8575851,-0.8575851,-0.85896415,-0.8617836,-0.8655225,-0.8687711,-0.8697211,-0.8687711,-0.86598223,-0.8617836,-0.85896415,-0.8585044,-0.86037385,-0.8608336,-0.8599142,-0.8570947,-0.85384613,-0.85430586,-0.85430586,-0.85522527,-0.85476553,-0.856635,-0.8570947,-0.85522527,-0.850567,-0.84216976,-0.8379712,-0.8403003,-0.8472878,-0.85335577,-0.8528961,-0.8472878,-0.84308916,-0.84167945,-0.8440392,-0.8477781,-0.850567,-0.850567,-0.8482378,-0.84449893,-0.8412197,-0.8379712,-0.83748084,-0.8393503,-0.8403003,-0.84076,-0.8403003,-0.8412197,-0.8435489,-0.8435489,-0.8403003,-0.83423233,-0.82393503,-0.812749,-0.8010726,-0.790806,-0.7837879,-0.77863926,-0.7744407,-0.7702421,-0.7646338,-0.7557769,-0.7426908,-0.7305547,-0.7179589,-0.71094084,-0.71094084,-0.7170088,-0.72307694,-0.72448665,-0.72635615,-0.7268158,-0.730095,-0.7487588,-0.780049,-0.81927675,-0.8561753,-0.88185716,-0.88979465,-0.8851057,-0.87624884,-0.86831135,-0.86316276,-0.86037385,-0.8599142,-0.8617836,-0.862703,-0.86457247,-0.8655225,-0.8641128,-0.86831135,-0.88277656,-0.90425986,-0.91639596,-0.8888446,-0.8001226,-0.63061595,-0.3920012,-0.087557375,0.27201962,0.6259577,0.8851365,0.9523752,0.7795893,0.40882635,-0.04787004,-0.45737052,-0.74688935,-0.90285015,-0.9565737,-0.95749307,-0.94489735,-0.9388293,-0.93833894,-0.9411584,-0.94394726,-0.9467668,-0.9505057,-0.95516396,-0.9532945,-0.94394726,-0.933221,-0.9220043,-0.91639596,-0.91127795,-0.9084585,-0.9038002,-0.8991419,-0.895403,-0.88838494,-0.8809071,-0.87483907,-0.8706405,-0.86690164,-0.86037385,-0.85430586,-0.8477781,-0.84541833,-0.8449586,-0.84262943,-0.8393503,-0.83423233,-0.8304934,-0.82721424,-0.82160586,-0.81507814,-0.80806005,-0.8010726,-0.7973337,-0.790806,-0.78424764,-0.77863926,-0.7730616,-0.76417404,-0.75157833,-0.7370824,-0.7226172,-0.7128103,-0.7048728,-0.6964756,-0.68620896,-0.67358255,-0.6609868,-0.6483604,-0.63297576,-0.61615074,-0.6002758,-0.5862703,-0.5745939,-0.56058836,-0.54517317,-0.5265093,-0.51201344,-0.50220656,-0.49754828,-0.4970885,-0.5031566,-0.5148329,-0.532087,-0.5554397,-0.58581054,-0.62221885,-0.6647257,-0.7090714,-0.7482991,-0.78332824,-0.812749,-0.8412197,-0.8687711,-0.88746554,-0.900521,-0.90894884,-0.91501683,-0.9205945,-0.92341405,-0.9252835,-0.92433345,-0.92341405,-0.9215446,-0.917346,-0.9136071,-0.90894884,-0.90658903,-0.9056696,-0.9047196,-0.90334046,-0.901471,-0.89727247,-0.8935336,-0.8912044,-0.88979465,-0.88746554,-0.8855961,-0.8809071,-0.87483907,-0.87159055,-0.8706405,-0.8706405,-0.87159055,-0.86831135,-0.86457247,-0.8617836,-0.86365306,-0.8673613,-0.87250996,-0.87483907,-0.87346,-0.8720503,-0.8706405,-0.86923075,-0.86923075,-0.8697211,-0.87018085,-0.8697211,-0.8655225,-0.8617836,-0.8612933,-0.86316276,-0.8678517,-0.8711002,-0.87250996,-0.87250996,-0.8729696,-0.8729696,-0.87018085,-0.8673613,-0.8641128,-0.8641128,-0.8650322,-0.8655225,-0.86598223,-0.8664419,-0.8678517,-0.86831135,-0.8664419,-0.8622433,-0.85804474,-0.85804474,-0.8612933,-0.86457247,-0.8622433,-0.8585044,-0.8570947,-0.85476553,-0.85384613,-0.85430586,-0.85522527,-0.856635,-0.8594238,-0.85804474,-0.85384613,-0.84869754,-0.8472878,-0.84869754,-0.8491572,-0.84590864,-0.8449586,-0.84541833,-0.8482378,-0.8519767,-0.8514863,-0.8491572,-0.84541833,-0.8477781,-0.84869754,-0.84869754,-0.8491572,-0.84869754,-0.8477781,-0.84308916,-0.8318725,-0.8155378,-0.79920316,-0.78893656,-0.7837879,-0.7823782,-0.7823782,-0.7768005,-0.76604354,-0.75062823,-0.7342936,-0.7282256,-0.73150474,-0.7366227,-0.74036163,-0.74036163,-0.736163,-0.7366227,-0.7426908,-0.758106,-0.78657675,-0.8248851,-0.8622433,-0.88838494,-0.8958627,-0.88979465,-0.88044745,-0.87346,-0.8697211,-0.8664419,-0.8617836,-0.8585044,-0.8594238,-0.86316276,-0.8655225,-0.8650322,-0.86690164,-0.8776586,-0.8996016,-0.91688627,-0.9023904,-0.8300337,-0.6843395,-0.47091627,-0.19868213,0.12491572,0.45553172,0.7184186,0.8220962,0.70208406,0.37894583,-0.05252832,-0.45973033,-0.7510879,-0.90334046,-0.9537542,-0.95188475,-0.93833894,-0.933221,-0.9308918,-0.9318112,-0.9318112,-0.9322709,-0.93276125,-0.93040144,-0.92948204,-0.9252835,-0.9205945,-0.91639596,-0.91127795,-0.9047196,-0.89865154,-0.8921238,-0.88746554,-0.8832669,-0.878578,-0.87250996,-0.8655225,-0.8612933,-0.8575851,-0.85476553,-0.8519767,-0.8477781,-0.84308916,-0.8379712,-0.83423233,-0.8318725,-0.8300337,-0.8304934,-0.82721424,-0.8202268,-0.8099295,-0.8015323,-0.79218507,-0.7837879,-0.7795893,-0.77631015,-0.7735213,-0.7697824,-0.76325464,-0.75390744,-0.7431505,-0.73334354,-0.72448665,-0.71422005,-0.7048728,-0.69273674,-0.67778116,-0.6609868,-0.64183265,-0.6231688,-0.6072939,-0.5937481,-0.58158135,-0.5675758,-0.5517009,-0.5358259,-0.52090096,-0.5106038,-0.5017468,-0.49659818,-0.49334967,-0.49472874,-0.5045357,-0.52041066,-0.5442537,-0.5745939,-0.61241186,-0.6539687,-0.6936561,-0.7328838,-0.767913,-0.8015323,-0.8314128,-0.856635,-0.8720503,-0.8832669,-0.8935336,-0.90425986,-0.9131474,-0.91921544,-0.9215446,-0.9215446,-0.92013484,-0.91639596,-0.91127795,-0.90612936,-0.9047196,-0.90334046,-0.9000613,-0.8981918,-0.89632237,-0.8967821,-0.8996016,-0.8981918,-0.89399326,-0.88979465,-0.88746554,-0.88277656,-0.8776586,-0.87159055,-0.8664419,-0.8664419,-0.86923075,-0.8687711,-0.86831135,-0.8678517,-0.86831135,-0.86923075,-0.86831135,-0.8655225,-0.86316276,-0.8641128,-0.86598223,-0.86690164,-0.86690164,-0.8655225,-0.86831135,-0.87250996,-0.87532943,-0.8743794,-0.8706405,-0.86598223,-0.86457247,-0.8664419,-0.8673613,-0.86831135,-0.8664419,-0.86690164,-0.8673613,-0.8678517,-0.8687711,-0.8687711,-0.8687711,-0.8697211,-0.8706405,-0.8706405,-0.87159055,-0.8720503,-0.8711002,-0.86923075,-0.8664419,-0.86598223,-0.8655225,-0.86598223,-0.86598223,-0.8664419,-0.86598223,-0.8655225,-0.8599142,-0.85430586,-0.850567,-0.8524364,-0.8557156,-0.8557156,-0.85476553,-0.8528961,-0.85430586,-0.8594238,-0.8608336,-0.8585044,-0.85430586,-0.8528961,-0.85522527,-0.85522527,-0.8519767,-0.8463684,-0.84216976,-0.8412197,-0.8435489,-0.8449586,-0.84262943,-0.8393503,-0.83656144,-0.8356114,-0.8370211,-0.84167945,-0.84308916,-0.84216976,-0.83656144,-0.82954335,-0.8276739,-0.8290837,-0.8318725,-0.8300337,-0.8197364,-0.80294204,-0.7870671,-0.77631015,-0.7702421,-0.7688323,-0.76745325,-0.7608949,-0.7473797,-0.7310144,-0.7174686,-0.7114005,-0.7170088,-0.72356725,-0.72589636,-0.72448665,-0.7221575,-0.72307694,-0.7277658,-0.7342936,-0.7510879,-0.7814588,-0.82160586,-0.85896415,-0.878578,-0.87952805,-0.8706405,-0.8641128,-0.86316276,-0.8641128,-0.86316276,-0.8608336,-0.86037385,-0.8612933,-0.8594238,-0.85804474,-0.8608336,-0.8743794,-0.8981918,-0.9196751,-0.9178057,-0.8650322,-0.7422311,-0.54983145,-0.2869445,0.043211818,0.40275824,0.72307694,0.91268766,0.89494336,0.65678823,0.2631322,-0.16975176,-0.53395647,-0.7758504,-0.9000613,-0.9420778,-0.94814587,-0.9467668,-0.945357,-0.94581676,-0.94814587,-0.9528348,-0.9547043,-0.9514251,-0.94489735,-0.93695986,-0.93600976,-0.9341403,-0.92948204,-0.9205945,-0.90894884,-0.8996016,-0.895403,-0.89399326,-0.8921238,-0.88838494,-0.884646,-0.88044745,-0.87624884,-0.8720503,-0.86690164,-0.86316276,-0.8594238,-0.85476553,-0.8482378,-0.8412197,-0.83656144,-0.834692,-0.83328223,-0.8318725,-0.8281643,-0.82301563,-0.8155378,-0.80386144,-0.79218507,-0.7823782,-0.77631015,-0.77539074,-0.77070177,-0.7613852,-0.75062823,-0.7384922,-0.730095,-0.72307694,-0.7128103,-0.7002145,-0.68479925,-0.66892433,-0.65304935,-0.6395035,-0.62687707,-0.6142813,-0.5998161,-0.58207166,-0.5633772,-0.5475023,-0.5358259,-0.52368987,-0.51155376,-0.49941766,-0.4900704,-0.48820102,-0.4970885,-0.51201344,-0.5311676,-0.5558995,-0.58673,-0.6226785,-0.6637757,-0.7053325,-0.7455102,-0.7814588,-0.81179893,-0.8356114,-0.85430586,-0.8711002,-0.88746554,-0.90285015,-0.9136071,-0.91921544,-0.917346,-0.9136071,-0.91219735,-0.9126571,-0.9136071,-0.9103279,-0.9038002,-0.8935336,-0.8837266,-0.87952805,-0.87952805,-0.8813975,-0.88697517,-0.88746554,-0.8855961,-0.88185716,-0.87716824,-0.87532943,-0.8739197,-0.87159055,-0.8706405,-0.86923075,-0.8678517,-0.86831135,-0.87018085,-0.87346,-0.8743794,-0.8739197,-0.86923075,-0.8641128,-0.8612933,-0.8612933,-0.8617836,-0.8617836,-0.8608336,-0.8599142,-0.8612933,-0.86457247,-0.8655225,-0.8650322,-0.86457247,-0.8617836,-0.85896415,-0.8557156,-0.85522527,-0.85476553,-0.85896415,-0.8650322,-0.86923075,-0.8687711,-0.86598223,-0.8617836,-0.8575851,-0.85430586,-0.8528961,-0.85430586,-0.856635,-0.86037385,-0.8617836,-0.8608336,-0.8570947,-0.85476553,-0.85476553,-0.85430586,-0.8561753,-0.8575851,-0.85896415,-0.8594238,-0.8575851,-0.85335577,-0.8491572,-0.8477781,-0.8482378,-0.8496169,-0.85102665,-0.8519767,-0.8524364,-0.85010725,-0.84449893,-0.8403003,-0.8379712,-0.8393503,-0.8440392,-0.84449893,-0.84216976,-0.83748084,-0.8361017,-0.8393503,-0.84449893,-0.8482378,-0.84869754,-0.8463684,-0.8412197,-0.8351517,-0.8300337,-0.8276739,-0.82862395,-0.834692,-0.8384309,-0.8393503,-0.8384309,-0.834692,-0.83328223,-0.8304934,-0.82721424,-0.8262948,-0.8267545,-0.82721424,-0.82068646,-0.8090101,-0.79359484,-0.7805087,-0.77211154,-0.76604354,-0.7613852,-0.7585657,-0.75295734,-0.74036163,-0.72540605,-0.71002144,-0.70159364,-0.7039534,-0.71094084,-0.7184186,-0.7226172,-0.72356725,-0.7240269,-0.72589636,-0.7370824,-0.7646338,-0.80386144,-0.8449586,-0.8743794,-0.8823169,-0.87716824,-0.8678517,-0.8622433,-0.8594238,-0.856635,-0.85476553,-0.85522527,-0.8575851,-0.86037385,-0.8599142,-0.8570947,-0.8594238,-0.87532943,-0.9000613,-0.91501683,-0.895403,-0.8169476,-0.6609868,-0.4354275,-0.14220041,0.20943928,0.5624579,0.8384309,0.94397783,0.8197671,0.48820114,0.04554093,-0.37940544,-0.6955256,-0.8743794,-0.9434876,-0.94863623,-0.93787926,-0.9290224,-0.92574316,-0.92807233,-0.933221,-0.9397487,-0.9434876,-0.9420778,-0.93787926,-0.93135154,-0.92482376,-0.92013484,-0.91547656,-0.90707934,-0.8996016,-0.8935336,-0.889335,-0.884646,-0.8809071,-0.87670857,-0.8720503,-0.86831135,-0.8622433,-0.85522527,-0.8482378,-0.84449893,-0.84541833,-0.84449893,-0.84076,-0.834692,-0.82721424,-0.8220656,-0.81835735,-0.81507814,-0.80806005,-0.801992,-0.79779345,-0.79359484,-0.790806,-0.7851976,-0.77539074,-0.7651241,-0.75390744,-0.74456024,-0.7366227,-0.7305547,-0.7226172,-0.7118909,-0.69880474,-0.6843395,-0.6707938,-0.65911734,-0.6469813,-0.6334355,-0.6175605,-0.602605,-0.58673,-0.570855,-0.55684954,-0.54189396,-0.5278884,-0.5157523,-0.5068954,-0.498958,-0.49754828,-0.49800795,-0.50220656,-0.5106038,-0.5302175,-0.5601287,-0.59886605,-0.6413729,-0.68060064,-0.71654916,-0.7510879,-0.7837879,-0.8136684,-0.8370211,-0.856635,-0.8743794,-0.8935336,-0.90894884,-0.91593623,-0.9178057,-0.91501683,-0.9145265,-0.9182654,-0.92013484,-0.92013484,-0.9196751,-0.9196751,-0.9196751,-0.91593623,-0.9108183,-0.90334046,-0.900521,-0.901471,-0.90285015,-0.90101135,-0.89727247,-0.8925835,-0.88979465,-0.8865155,-0.88605577,-0.884646,-0.8832669,-0.8813975,-0.8809071,-0.8813975,-0.88277656,-0.88605577,-0.889335,-0.88746554,-0.88277656,-0.8776586,-0.87483907,-0.87483907,-0.8743794,-0.87483907,-0.87716824,-0.8781183,-0.8790377,-0.88044745,-0.8781183,-0.87483907,-0.8743794,-0.87483907,-0.87578917,-0.87670857,-0.8781183,-0.88044745,-0.8813975,-0.88044745,-0.87716824,-0.8729696,-0.87346,-0.8729696,-0.8729696,-0.8729696,-0.8711002,-0.8706405,-0.87159055,-0.8697211,-0.86923075,-0.8706405,-0.87346,-0.87624884,-0.8739197,-0.8673613,-0.8612933,-0.8594238,-0.8641128,-0.8678517,-0.8687711,-0.8650322,-0.8622433,-0.8594238,-0.856635,-0.85476553,-0.85384613,-0.85522527,-0.85896415,-0.8608336,-0.8594238,-0.85476553,-0.8491572,-0.8477781,-0.8491572,-0.85102665,-0.85384613,-0.8561753,-0.85430586,-0.850567,-0.8449586,-0.8435489,-0.8449586,-0.8482378,-0.8514863,-0.85102665,-0.84869754,-0.84682804,-0.8435489,-0.8356114,-0.8225559,-0.80714065,-0.79687405,-0.78893656,-0.7870671,-0.7870671,-0.78332824,-0.7744407,-0.7613852,-0.7478394,-0.7366227,-0.7328838,-0.73570335,-0.7384922,-0.7408213,-0.74131167,-0.7375728,-0.7370824,-0.7408213,-0.7576463,-0.790806,-0.8309531,-0.8678517,-0.88746554,-0.8865155,-0.87532943,-0.86457247,-0.8617836,-0.86316276,-0.8650322,-0.8655225,-0.862703,-0.8612933,-0.8612933,-0.8585044,-0.85896415,-0.8664419,-0.8879252,-0.9117377,-0.91639596,-0.87532943,-0.76837265,-0.59187865,-0.35513324,-0.06187558,0.2692002,0.580662,0.7842783,0.79313517,0.58020234,0.1958934,-0.23745018,-0.60073555,-0.8318725,-0.93368065,-0.9528348,-0.94069874,-0.92948204,-0.92715293,-0.92948204,-0.93135154,-0.92948204,-0.92856264,-0.92807233,-0.9238737,-0.9196751,-0.9140668,-0.90894884,-0.90799874,-0.9056696,-0.900521,-0.89307386,-0.884646,-0.878578,-0.8776586,-0.87578917,-0.8729696,-0.8687711,-0.86365306,-0.85896415,-0.8557156,-0.8524364,-0.8482378,-0.8449586,-0.8393503,-0.8318725,-0.82442534,-0.8169476,-0.81133926,-0.8061906,-0.801992,-0.7987435,-0.7954643,-0.7912657,-0.7870671,-0.78191847,-0.7758504,-0.7702421,-0.7613852,-0.752038,-0.7431505,-0.7342936,-0.72635615,-0.71513945,-0.7002145,-0.685259,-0.67358255,-0.66423535,-0.6539687,-0.6399632,-0.6231688,-0.6072939,-0.59512717,-0.58440083,-0.570855,-0.5540607,-0.53677595,-0.52368987,-0.5143426,-0.50827456,-0.5007968,-0.49800795,-0.50220656,-0.5134232,-0.5292982,-0.55124116,-0.5769231,-0.6105424,-0.6549188,-0.69880474,-0.7399019,-0.77539074,-0.80481154,-0.8314128,-0.8528961,-0.8706405,-0.8841863,-0.8967821,-0.90894884,-0.917346,-0.92013484,-0.917346,-0.91547656,-0.91593623,-0.91688627,-0.91875577,-0.91921544,-0.91688627,-0.91547656,-0.9131474,-0.91127795,-0.9094085,-0.90753907,-0.90334046,-0.89727247,-0.8916641,-0.88838494,-0.88979465,-0.88979465,-0.8879252,-0.8841863,-0.8790377,-0.87624884,-0.87624884,-0.87483907,-0.87532943,-0.8781183,-0.88044745,-0.87952805,-0.87346,-0.86690164,-0.862703,-0.8655225,-0.8720503,-0.87716824,-0.8790377,-0.87952805,-0.88044745,-0.8813975,-0.8809071,-0.8790377,-0.8790377,-0.878578,-0.8776586,-0.87532943,-0.87159055,-0.8678517,-0.8706405,-0.87483907,-0.8781183,-0.87670857,-0.8743794,-0.86923075,-0.86831135,-0.8711002,-0.8720503,-0.8711002,-0.8720503,-0.8720503,-0.87159055,-0.87346,-0.87250996,-0.8697211,-0.8664419,-0.8617836,-0.8594238,-0.8599142,-0.862703,-0.8655225,-0.86690164,-0.8655225,-0.8650322,-0.86598223,-0.86831135,-0.86690164,-0.8612933,-0.85522527,-0.85102665,-0.850567,-0.8519767,-0.8528961,-0.8524364,-0.85384613,-0.8557156,-0.8561753,-0.8557156,-0.85522527,-0.85522527,-0.8561753,-0.8575851,-0.8557156,-0.85384613,-0.8528961,-0.85384613,-0.85384613,-0.8557156,-0.8561753,-0.8561753,-0.85804474,-0.856635,-0.8514863,-0.84449893,-0.8384309,-0.8323629,-0.82301563,-0.8099295,-0.7940545,-0.7814588,-0.77539074,-0.7735213,-0.767913,-0.75482684,-0.74036163,-0.7296353,-0.72589636,-0.72868526,-0.73196447,-0.73475325,-0.7370824,-0.7399019,-0.7426908,-0.7436408,-0.74688935,-0.75997543,-0.7893962,-0.82954335,-0.8697211,-0.8996016,-0.90894884,-0.9023904,-0.8902544,-0.878578,-0.8739197,-0.8720503,-0.8706405,-0.86923075,-0.86831135,-0.86831135,-0.8706405,-0.87624884,-0.88838494,-0.9108183,-0.93040144,-0.9252835,-0.8706405,-0.7394422,-0.5349065,-0.2645418,0.07214224,0.43358886,0.74597,0.9182961,0.86972106,0.5993564,0.1865462,-0.24725705,-0.59512717,-0.81461847,-0.922464,-0.9556236,-0.95749307,-0.9547043,-0.9537542,-0.9547043,-0.9556236,-0.9565737,-0.9565737,-0.9565737,-0.9565737,-0.9547043,-0.9505057,-0.94394726,-0.93695986,-0.92856264,-0.91875577,-0.9094085,-0.90101135,-0.8981918,-0.9000613,-0.901471,-0.8981918,-0.89307386,-0.8865155,-0.8813975,-0.87670857,-0.87159055,-0.8650322,-0.86037385,-0.85522527,-0.8524364,-0.8482378,-0.84167945,-0.8370211,-0.83423233,-0.8304934,-0.8258045,-0.8197364,-0.81461847,-0.8085504,-0.8010726,-0.79359484,-0.7861171,-0.780049,-0.7730616,-0.7623046,-0.74688935,-0.7305547,-0.7170088,-0.7090714,-0.7034631,-0.6936561,-0.6819798,-0.669384,-0.6544284,-0.63763404,-0.6203494,-0.6011952,-0.5834508,-0.5713147,-0.5591787,-0.54891205,-0.53769535,-0.5278884,-0.5171621,-0.50922465,-0.50502604,-0.5064051,-0.51621205,-0.53628564,-0.56104803,-0.5904689,-0.6264174,-0.66659516,-0.7086117,-0.74688935,-0.78191847,-0.8108795,-0.8361017,-0.86037385,-0.8813975,-0.8991419,-0.91219735,-0.92013484,-0.9238737,-0.92433345,-0.92341405,-0.92433345,-0.9252835,-0.92433345,-0.91921544,-0.90986824,-0.90285015,-0.8996016,-0.8991419,-0.8996016,-0.8981918,-0.89399326,-0.8916641,-0.8916641,-0.8921238,-0.8902544,-0.88697517,-0.884646,-0.8832669,-0.88185716,-0.8799877,-0.87670857,-0.8739197,-0.87250996,-0.87346,-0.8743794,-0.8776586,-0.88185716,-0.88277656,-0.8813975,-0.87716824,-0.8720503,-0.8697211,-0.8706405,-0.87018085,-0.86923075,-0.8687711,-0.8697211,-0.8711002,-0.87250996,-0.8743794,-0.8743794,-0.8743794,-0.8729696,-0.86831135,-0.8641128,-0.8622433,-0.8650322,-0.8697211,-0.8720503,-0.8711002,-0.86831135,-0.8664419,-0.86598223,-0.86457247,-0.86037385,-0.8575851,-0.85804474,-0.86316276,-0.8678517,-0.86923075,-0.86831135,-0.8678517,-0.8673613,-0.8678517,-0.86457247,-0.8594238,-0.8561753,-0.856635,-0.8561753,-0.85384613,-0.850567,-0.84869754,-0.8496169,-0.8524364,-0.85430586,-0.8557156,-0.8575851,-0.85804474,-0.85430586,-0.850567,-0.84590864,-0.84541833,-0.8472878,-0.8491572,-0.8477781,-0.84682804,-0.8472878,-0.85010725,-0.85430586,-0.85384613,-0.8514863,-0.8482378,-0.8440392,-0.84076,-0.8379712,-0.83748084,-0.83981,-0.8440392,-0.8463684,-0.84682804,-0.84216976,-0.8309531,-0.8169476,-0.79920316,-0.7828685,-0.7758504,-0.7768005,-0.7781796,-0.7730616,-0.75718665,-0.73803246,-0.72540605,-0.72074777,-0.7221575,-0.72356725,-0.72448665,-0.7282256,-0.7328838,-0.735213,-0.7370824,-0.7464297,-0.77211154,-0.81133926,-0.85476553,-0.8832669,-0.8921238,-0.8879252,-0.8790377,-0.8743794,-0.8739197,-0.87346,-0.87346,-0.8743794,-0.8743794,-0.8739197,-0.8729696,-0.87250996,-0.87952805,-0.8958627,-0.9178057,-0.93135154,-0.90986824,-0.8281643,-0.66797423,-0.4387067,-0.14357948,0.20711017,0.5591787,0.8384309,0.9472265,0.8202268,0.48075402,0.028715968,-0.3990193,-0.7128103,-0.8879252,-0.9556236,-0.96543056,-0.9556236,-0.94814587,-0.94489735,-0.94814587,-0.9537542,-0.9570334,-0.9570334,-0.95424455,-0.9505057,-0.94722646,-0.9402084,-0.9322709,-0.9215446,-0.91593623,-0.9145265,-0.9103279,-0.9047196,-0.89632237,-0.88746554,-0.8832669,-0.8799877,-0.878578,-0.87532943,-0.87346,-0.8729696,-0.8687711,-0.8608336,-0.8519767,-0.8435489,-0.8393503,-0.8370211,-0.8337419,-0.8314128,-0.8290837,-0.8253448,-0.82301563,-0.817867,-0.8132087,-0.806681,-0.79779345,-0.78424764,-0.7702421,-0.7623046,-0.758106,-0.75623655,-0.75062823,-0.7394422,-0.72589636,-0.71422005,-0.7039534,-0.691327,-0.67686176,-0.6605271,-0.64649093,-0.63297576,-0.61707014,-0.6002758,-0.5825314,-0.56711614,-0.5554397,-0.54471344,-0.53395647,-0.5227704,-0.5148329,-0.51155376,-0.51155376,-0.5176219,-0.5302175,-0.55032176,-0.5778731,-0.61241186,-0.6511799,-0.69178665,-0.73475325,-0.7749311,-0.8090101,-0.8356114,-0.8570947,-0.87578917,-0.89307386,-0.90799874,-0.9215446,-0.93276125,-0.9402084,-0.94489735,-0.9444376,-0.9397487,-0.9341403,-0.9322709,-0.93276125,-0.9322709,-0.9308918,-0.9262029,-0.9210849,-0.91688627,-0.9140668,-0.91127795,-0.90986824,-0.9094085,-0.90753907,-0.90612936,-0.90193075,-0.900521,-0.900521,-0.90193075,-0.90101135,-0.89773214,-0.8944529,-0.8935336,-0.89491266,-0.895403,-0.8967821,-0.89727247,-0.8981918,-0.89773214,-0.8967821,-0.89307386,-0.8916641,-0.8921238,-0.89399326,-0.8944529,-0.8944529,-0.8912044,-0.89071405,-0.8916641,-0.89307386,-0.8958627,-0.895403,-0.8925835,-0.89071405,-0.88838494,-0.88838494,-0.889335,-0.8921238,-0.8935336,-0.89399326,-0.89307386,-0.8902544,-0.8879252,-0.8855961,-0.8837266,-0.8837266,-0.8851057,-0.8855961,-0.8865155,-0.8851057,-0.8823169,-0.88277656,-0.8851057,-0.88979465,-0.8921238,-0.8921238,-0.889335,-0.88605577,-0.8837266,-0.8823169,-0.8813975,-0.8809071,-0.8799877,-0.8781183,-0.87670857,-0.87483907,-0.8729696,-0.8739197,-0.8743794,-0.87346,-0.87346,-0.8711002,-0.86923075,-0.8678517,-0.86598223,-0.86365306,-0.862703,-0.8612933,-0.8612933,-0.8599142,-0.85804474,-0.85476553,-0.8524364,-0.8491572,-0.8403003,-0.8304934,-0.818817,-0.8090101,-0.80432117,-0.7996629,-0.7917254,-0.77863926,-0.76604354,-0.7585657,-0.7557769,-0.7566963,-0.7557769,-0.75531715,-0.75718665,-0.758106,-0.7618449,-0.7665032,-0.78099906,-0.8085504,-0.8449586,-0.88185716,-0.9052099,-0.9131474,-0.9084585,-0.9000613,-0.8935336,-0.8925835,-0.8944529,-0.8944529,-0.889335,-0.8832669,-0.8781183,-0.87624884,-0.8799877,-0.8879252,-0.9038002,-0.9229543,-0.9322709,-0.9056696,-0.817867,-0.6558382,-0.42981917,-0.14452958,0.18608654,0.5110941,0.75111866,0.8104199,0.6418327,0.28182662,-0.15807533,-0.5475023,-0.8136684,-0.9490959,-0.9873736,-0.97992647,-0.9616917,-0.9490959,-0.94581676,-0.9490959,-0.95516396,-0.95608336,-0.9537542,-0.9476862,-0.9397487,-0.92948204,-0.92341405,-0.9205945,-0.9205945,-0.92013484,-0.9145265,-0.90612936,-0.8967821,-0.8921238,-0.8916641,-0.8902544,-0.88697517,-0.8809071,-0.87670857,-0.8739197,-0.87018085,-0.8650322,-0.8585044,-0.8519767,-0.8463684,-0.8412197,-0.8384309,-0.8361017,-0.83423233,-0.8314128,-0.8253448,-0.8164879,-0.81041986,-0.8085504,-0.8061906,-0.8010726,-0.7917254,-0.780049,-0.77119213,-0.76417404,-0.7576463,-0.7482991,-0.735213,-0.7226172,-0.70953107,-0.69601595,-0.6833895,-0.67125344,-0.65911734,-0.6479007,-0.63389516,-0.6184799,-0.6040147,-0.5895495,-0.57318413,-0.5563898,-0.5391051,-0.52368987,-0.5143426,-0.510144,-0.5068954,-0.5064051,-0.5110941,-0.52463984,-0.5484524,-0.57879245,-0.6128715,-0.6507202,-0.6904076,-0.730095,-0.7655838,-0.79687405,-0.8253448,-0.85384613,-0.8799877,-0.895403,-0.90612936,-0.9094085,-0.9140668,-0.9205945,-0.9252835,-0.92482376,-0.922464,-0.9196751,-0.917346,-0.9145265,-0.9108183,-0.90753907,-0.90612936,-0.90799874,-0.90753907,-0.9056696,-0.901471,-0.8958627,-0.8916641,-0.88838494,-0.8851057,-0.8813975,-0.8809071,-0.88277656,-0.8841863,-0.88605577,-0.8851057,-0.8813975,-0.87578917,-0.8711002,-0.8697211,-0.86923075,-0.8706405,-0.8706405,-0.8664419,-0.8622433,-0.8608336,-0.8622433,-0.8673613,-0.8706405,-0.8706405,-0.86923075,-0.87018085,-0.8711002,-0.87159055,-0.8687711,-0.8664419,-0.8664419,-0.8678517,-0.86831135,-0.8678517,-0.8664419,-0.86923075,-0.87250996,-0.8720503,-0.8673613,-0.86037385,-0.8570947,-0.85896415,-0.86365306,-0.86598223,-0.86316276,-0.8617836,-0.8622433,-0.862703,-0.86457247,-0.8650322,-0.8641128,-0.862703,-0.862703,-0.8617836,-0.8594238,-0.8594238,-0.8585044,-0.8557156,-0.8524364,-0.8491572,-0.8496169,-0.85335577,-0.8557156,-0.8561753,-0.8514863,-0.84541833,-0.84167945,-0.8384309,-0.83748084,-0.83889055,-0.8412197,-0.8449586,-0.84682804,-0.84682804,-0.8463684,-0.8463684,-0.8482378,-0.85010725,-0.85102665,-0.8491572,-0.84590864,-0.84262943,-0.8379712,-0.8337419,-0.83282256,-0.8323629,-0.8309531,-0.8234753,-0.8094698,-0.7940545,-0.7828685,-0.780049,-0.7795893,-0.77631015,-0.7646338,-0.7487588,-0.73475325,-0.7216978,-0.7174686,-0.7184186,-0.7226172,-0.7305547,-0.73570335,-0.7370824,-0.7375728,-0.74036163,-0.75390744,-0.7837879,-0.8220656,-0.8575851,-0.8832669,-0.889335,-0.8837266,-0.87624884,-0.87159055,-0.8711002,-0.87250996,-0.86831135,-0.8617836,-0.8561753,-0.856635,-0.86037385,-0.8673613,-0.88044745,-0.89773214,-0.9145265,-0.9108183,-0.856635,-0.7305547,-0.526969,-0.25752372,0.07401168,0.42984998,0.74131167,0.9206253,0.88887525,0.63435495,0.23092258,-0.20150167,-0.55730915,-0.7879865,-0.90334046,-0.9397487,-0.94161814,-0.93741953,-0.9397487,-0.9467668,-0.95424455,-0.9556236,-0.9505057,-0.9434876,-0.9388293,-0.9346307,-0.9308918,-0.92433345,-0.91688627,-0.90986824,-0.90334046,-0.8981918,-0.895403,-0.89307386,-0.8902544,-0.8837266,-0.87346,-0.86316276,-0.8585044,-0.8585044,-0.8608336,-0.86316276,-0.8617836,-0.8570947,-0.8519767,-0.84308916,-0.83423233,-0.8267545,-0.8197364,-0.8164879,-0.8132087,-0.8094698,-0.80481154,-0.8001226,-0.7950046,-0.7870671,-0.77863926,-0.7688323,-0.76276433,-0.758106,-0.75016856,-0.7375728,-0.7221575,-0.71048117,-0.7025436,-0.69601595,-0.6843395,-0.66797423,-0.6502298,-0.6353049,-0.6198896,-0.6044744,-0.58768004,-0.57413423,-0.56383693,-0.5526509,-0.5391051,-0.5213607,-0.50922465,-0.50266623,-0.5007968,-0.50361633,-0.50827456,-0.5167024,-0.53349674,-0.5601287,-0.59420776,-0.63156605,-0.669384,-0.70628256,-0.7399019,-0.77165186,-0.8015323,-0.82954335,-0.85430586,-0.8720503,-0.88605577,-0.89491266,-0.90285015,-0.9126571,-0.9196751,-0.9252835,-0.9266932,-0.9238737,-0.91875577,-0.91219735,-0.9052099,-0.900521,-0.900521,-0.90101135,-0.90101135,-0.90101135,-0.8991419,-0.89865154,-0.9000613,-0.89632237,-0.8902544,-0.8832669,-0.8799877,-0.88044745,-0.8813975,-0.8809071,-0.8776586,-0.8743794,-0.87532943,-0.87670857,-0.8776586,-0.87578917,-0.87346,-0.87346,-0.87532943,-0.87624884,-0.87483907,-0.87250996,-0.8706405,-0.8687711,-0.8687711,-0.8706405,-0.87250996,-0.87532943,-0.87532943,-0.8711002,-0.8673613,-0.86690164,-0.87018085,-0.87346,-0.8739197,-0.8711002,-0.8687711,-0.8697211,-0.87159055,-0.8739197,-0.87483907,-0.87578917,-0.87578917,-0.87483907,-0.8729696,-0.8697211,-0.86923075,-0.8678517,-0.8650322,-0.8599142,-0.85476553,-0.85430586,-0.8570947,-0.862703,-0.86690164,-0.86831135,-0.86923075,-0.86923075,-0.8678517,-0.8641128,-0.8585044,-0.8528961,-0.8477781,-0.8449586,-0.84449893,-0.8463684,-0.850567,-0.85430586,-0.85430586,-0.8514863,-0.8477781,-0.84449893,-0.84449893,-0.84262943,-0.8393503,-0.8356114,-0.83423233,-0.8356114,-0.8379712,-0.8403003,-0.84167945,-0.84076,-0.84216976,-0.84076,-0.8361017,-0.834692,-0.8351517,-0.8370211,-0.8384309,-0.8351517,-0.8304934,-0.8267545,-0.8258045,-0.8220656,-0.81461847,-0.80248237,-0.7879865,-0.77539074,-0.7655838,-0.7590561,-0.758106,-0.7543671,-0.7441005,-0.7282256,-0.7123506,-0.7053325,-0.7090714,-0.71654916,-0.7226172,-0.72589636,-0.7268158,-0.72914493,-0.73334354,-0.74456024,-0.7688323,-0.80573094,-0.8477781,-0.88044745,-0.8935336,-0.88979465,-0.8809071,-0.8706405,-0.86457247,-0.8608336,-0.856635,-0.8528961,-0.85522527,-0.85896415,-0.8612933,-0.8655225,-0.87346,-0.8916641,-0.9140668,-0.9178057,-0.8729696,-0.75951576,-0.5680661,-0.30983752,0.013790965,0.37848616,0.7160895,0.9355501,0.94955564,0.7268158,0.3280418,-0.12629479,-0.51621205,-0.7772602,-0.90707934,-0.9476862,-0.94814587,-0.9425682,-0.9402084,-0.9402084,-0.9411584,-0.94302785,-0.9434876,-0.94394726,-0.9402084,-0.9350904,-0.92948204,-0.92574316,-0.9210849,-0.9136071,-0.90425986,-0.89491266,-0.8888446,-0.8855961,-0.8841863,-0.878578,-0.8711002,-0.86365306,-0.85804474,-0.85522527,-0.85476553,-0.8496169,-0.84167945,-0.8356114,-0.8309531,-0.82862395,-0.82721424,-0.82442534,-0.81927675,-0.8122893,-0.806681,-0.8010726,-0.7963837,-0.7917254,-0.7851976,-0.77863926,-0.77211154,-0.7651241,-0.75718665,-0.74688935,-0.735213,-0.72356725,-0.71513945,-0.7067422,-0.69506586,-0.6833895,-0.6698437,-0.65537846,-0.6422924,-0.6292369,-0.61615074,-0.6040147,-0.59092855,-0.57413423,-0.5526509,-0.53349674,-0.5185412,-0.5078149,-0.5003371,-0.49148023,-0.48167324,-0.47465515,-0.47793436,-0.48820102,-0.50502604,-0.5265093,-0.5540607,-0.5904689,-0.6353049,-0.6810603,-0.7240269,-0.76043516,-0.79313517,-0.82068646,-0.8440392,-0.8608336,-0.87346,-0.884646,-0.89632237,-0.9056696,-0.90894884,-0.90799874,-0.90799874,-0.90658903,-0.9052099,-0.90285015,-0.8991419,-0.89773214,-0.89865154,-0.8996016,-0.8981918,-0.8944529,-0.89071405,-0.8879252,-0.8841863,-0.88185716,-0.878578,-0.87578917,-0.8729696,-0.8697211,-0.8664419,-0.8641128,-0.86598223,-0.8687711,-0.8706405,-0.87159055,-0.8697211,-0.86923075,-0.8706405,-0.87018085,-0.8697211,-0.8697211,-0.86831135,-0.8673613,-0.8655225,-0.86365306,-0.862703,-0.8650322,-0.86923075,-0.8711002,-0.8697211,-0.8678517,-0.86316276,-0.8585044,-0.8561753,-0.85476553,-0.8561753,-0.8612933,-0.8655225,-0.8655225,-0.86316276,-0.8594238,-0.85896415,-0.8622433,-0.8664419,-0.8687711,-0.8711002,-0.8720503,-0.87250996,-0.8711002,-0.8678517,-0.8622433,-0.8585044,-0.8570947,-0.8575851,-0.85804474,-0.85896415,-0.8612933,-0.8608336,-0.8575851,-0.8514863,-0.8449586,-0.84167945,-0.84167945,-0.8412197,-0.8412197,-0.8403003,-0.84308916,-0.8477781,-0.8496169,-0.84682804,-0.84167945,-0.84167945,-0.8440392,-0.8472878,-0.8491572,-0.8463684,-0.8449586,-0.8449586,-0.8449586,-0.8412197,-0.8356114,-0.83423233,-0.83748084,-0.83981,-0.83889055,-0.8309531,-0.8141281,-0.7963837,-0.7805087,-0.77119213,-0.767913,-0.7697824,-0.7669935,-0.75295734,-0.7328838,-0.7155991,-0.70953107,-0.71513945,-0.7249464,-0.7328838,-0.735213,-0.73570335,-0.7375728,-0.74036163,-0.75482684,-0.78191847,-0.81927675,-0.8570947,-0.8823169,-0.8855961,-0.87532943,-0.8622433,-0.85384613,-0.8514863,-0.85384613,-0.8575851,-0.8612933,-0.862703,-0.8612933,-0.8575851,-0.85335577,-0.85896415,-0.87670857,-0.89865154,-0.9084585,-0.88044745,-0.79313517,-0.6311063,-0.40554702,-0.12163645,0.20989895,0.53070796,0.767913,0.83003366,0.66659534,0.3149557,-0.12117678,-0.5124731,-0.7795893,-0.91547656,-0.9556236,-0.9500153,-0.9341403,-0.9215446,-0.9136071,-0.9117377,-0.9136071,-0.9178057,-0.91875577,-0.91688627,-0.9117377,-0.90753907,-0.9038002,-0.89773214,-0.8902544,-0.88277656,-0.8776586,-0.87670857,-0.87624884,-0.8743794,-0.8687711,-0.8617836,-0.8557156,-0.8496169,-0.84590864,-0.84262943,-0.84076,-0.8403003,-0.83656144,-0.8304934,-0.82160586,-0.812749,-0.8090101,-0.806681,-0.80432117,-0.7996629,-0.79359484,-0.7870671,-0.7805087,-0.7744407,-0.7669935,-0.75951576,-0.75157833,-0.7436408,-0.73803246,-0.7328838,-0.72868526,-0.72356725,-0.7137603,-0.70159364,-0.6875881,-0.6740423,-0.6609868,-0.64557153,-0.63061595,-0.6166104,-0.60542446,-0.59512717,-0.5802022,-0.5652467,-0.5470426,-0.5311676,-0.5190315,-0.50827456,-0.4970885,-0.4858719,-0.48072326,-0.48354274,-0.49380934,-0.5157523,-0.5414343,-0.5703953,-0.6011952,-0.63297576,-0.6698437,-0.7114005,-0.7524977,-0.7879865,-0.8141281,-0.8351517,-0.85430586,-0.8743794,-0.8935336,-0.90425986,-0.90753907,-0.90658903,-0.90799874,-0.9103279,-0.9117377,-0.9126571,-0.90986824,-0.90658903,-0.9056696,-0.90425986,-0.90285015,-0.900521,-0.8981918,-0.895403,-0.89307386,-0.889335,-0.88605577,-0.8837266,-0.88185716,-0.8790377,-0.87483907,-0.87018085,-0.86831135,-0.8678517,-0.86831135,-0.8664419,-0.8612933,-0.856635,-0.85522527,-0.856635,-0.856635,-0.8557156,-0.85476553,-0.8575851,-0.8608336,-0.8650322,-0.8641128,-0.862703,-0.8622433,-0.8622433,-0.86365306,-0.86316276,-0.86316276,-0.86365306,-0.86365306,-0.86365306,-0.8617836,-0.86365306,-0.86457247,-0.8650322,-0.8664419,-0.8650322,-0.86598223,-0.86831135,-0.8678517,-0.86598223,-0.86365306,-0.8612933,-0.8608336,-0.8608336,-0.86037385,-0.8622433,-0.8650322,-0.8655225,-0.8650322,-0.86037385,-0.85522527,-0.8519767,-0.85102665,-0.8491572,-0.8463684,-0.8449586,-0.84682804,-0.8477781,-0.84869754,-0.85102665,-0.85010725,-0.8519767,-0.85476553,-0.85384613,-0.8496169,-0.8440392,-0.8403003,-0.83889055,-0.8393503,-0.84216976,-0.84308916,-0.8435489,-0.8440392,-0.84262943,-0.8403003,-0.8370211,-0.834692,-0.8361017,-0.8379712,-0.8412197,-0.84308916,-0.8412197,-0.8356114,-0.82442534,-0.81041986,-0.79592395,-0.78332824,-0.7744407,-0.77119213,-0.7693227,-0.7618449,-0.75016856,-0.735213,-0.7212075,-0.7160895,-0.7170088,-0.7226172,-0.7277658,-0.7268158,-0.72589636,-0.7282256,-0.73570335,-0.75295734,-0.7837879,-0.8202268,-0.85335577,-0.8776586,-0.88605577,-0.8809071,-0.8729696,-0.8664419,-0.8641128,-0.86365306,-0.862703,-0.8608336,-0.8585044,-0.8585044,-0.8608336,-0.86316276,-0.8711002,-0.8879252,-0.91127795,-0.92341405,-0.89865154,-0.81133926,-0.64603126,-0.4134845,-0.114649,0.23699057,0.58348143,0.84216976,0.91547644,0.7595159,0.4130249,-0.023107529,-0.421422,-0.7076616,-0.8678517,-0.9322709,-0.9444376,-0.94069874,-0.93833894,-0.9388293,-0.94161814,-0.94489735,-0.94863623,-0.94955564,-0.9434876,-0.9350904,-0.92715293,-0.922464,-0.922464,-0.92341405,-0.9196751,-0.9108183,-0.900521,-0.89632237,-0.8944529,-0.8912044,-0.8855961,-0.87716824,-0.87346,-0.87346,-0.8729696,-0.8697211,-0.86037385,-0.85010725,-0.84308916,-0.8370211,-0.8323629,-0.8290837,-0.8276739,-0.8276739,-0.82393503,-0.8164879,-0.80481154,-0.7950046,-0.7903156,-0.78657675,-0.7814588,-0.7744407,-0.7651241,-0.75623655,-0.7473797,-0.7370824,-0.7282256,-0.72074777,-0.71094084,-0.69926447,-0.68479925,-0.66751456,-0.6516396,-0.6399632,-0.62736744,-0.6138216,-0.59886605,-0.5829911,-0.5685259,-0.5540607,-0.53677595,-0.52182037,-0.50922465,-0.5017468,-0.4970885,-0.49800795,-0.50266623,-0.5106038,-0.52463984,-0.5437634,-0.570855,-0.60542446,-0.6451118,-0.6871284,-0.7240269,-0.758106,-0.79218507,-0.8220656,-0.8477781,-0.86457247,-0.8790377,-0.8921238,-0.9047196,-0.91547656,-0.9210849,-0.9210849,-0.917346,-0.91501683,-0.9136071,-0.91127795,-0.9103279,-0.9084585,-0.9038002,-0.9000613,-0.89491266,-0.8916641,-0.8916641,-0.89491266,-0.8981918,-0.89727247,-0.8925835,-0.8855961,-0.8813975,-0.8813975,-0.8823169,-0.8832669,-0.8809071,-0.8776586,-0.87483907,-0.87018085,-0.8673613,-0.86690164,-0.8673613,-0.8711002,-0.87159055,-0.8687711,-0.8655225,-0.86316276,-0.86316276,-0.8650322,-0.86690164,-0.86690164,-0.8687711,-0.87018085,-0.8711002,-0.8697211,-0.8650322,-0.862703,-0.8622433,-0.86316276,-0.8655225,-0.8664419,-0.86831135,-0.8706405,-0.8687711,-0.86365306,-0.8585044,-0.8561753,-0.8594238,-0.8641128,-0.8687711,-0.86923075,-0.8650322,-0.8599142,-0.85384613,-0.85010725,-0.8491572,-0.8524364,-0.8570947,-0.8575851,-0.85522527,-0.8519767,-0.8491572,-0.84869754,-0.8477781,-0.8477781,-0.8477781,-0.8496169,-0.8528961,-0.85384613,-0.8524364,-0.8482378,-0.84541833,-0.84449893,-0.8449586,-0.8440392,-0.8435489,-0.84449893,-0.84590864,-0.84590864,-0.84308916,-0.8370211,-0.8314128,-0.8304934,-0.8323629,-0.8356114,-0.83889055,-0.84167945,-0.8440392,-0.8435489,-0.8412197,-0.8384309,-0.8379712,-0.8379712,-0.8393503,-0.8384309,-0.8351517,-0.8290837,-0.8225559,-0.81041986,-0.7950046,-0.78099906,-0.77257127,-0.7697824,-0.7669935,-0.7618449,-0.7473797,-0.73150474,-0.71887827,-0.71048117,-0.7086117,-0.7090714,-0.71094084,-0.71513945,-0.71887827,-0.7221575,-0.72589636,-0.73196447,-0.75016856,-0.7823782,-0.8211462,-0.856635,-0.8799877,-0.8855961,-0.8790377,-0.8673613,-0.85804474,-0.85430586,-0.8561753,-0.8622433,-0.8673613,-0.86831135,-0.8650322,-0.86037385,-0.85896415,-0.86831135,-0.8921238,-0.91688627,-0.9205945,-0.87532943,-0.75390744,-0.55452037,-0.2888139,0.04459095,0.40882635,0.7371131,0.9411584,0.9350904,0.6992644,0.30095017,-0.14590865,-0.5232301,-0.7768005,-0.90658903,-0.9476862,-0.94814587,-0.94161814,-0.9425682,-0.94955564,-0.95844316,-0.9607723,-0.9579528,-0.95096534,-0.9434876,-0.9350904,-0.9290224,-0.9220043,-0.91639596,-0.9103279,-0.9052099,-0.8996016,-0.89399326,-0.89307386,-0.8921238,-0.8888446,-0.88277656,-0.87578917,-0.8697211,-0.86598223,-0.86316276,-0.8575851,-0.8524364,-0.8482378,-0.84541833,-0.84308916,-0.8393503,-0.8337419,-0.82721424,-0.8202268,-0.812749,-0.80248237,-0.7954643,-0.79267544,-0.7917254,-0.7884462,-0.78191847,-0.77165186,-0.7618449,-0.7543671,-0.7455102,-0.7338339,-0.72028804,-0.71002144,-0.69834507,-0.6875881,-0.675452,-0.6609868,-0.647441,-0.6353049,-0.6203494,-0.60355496,-0.5871897,-0.5718051,-0.55684954,-0.54238427,-0.5265093,-0.5110941,-0.498958,-0.49285936,-0.48774135,-0.4858719,-0.48679125,-0.49285936,-0.50827456,-0.53303707,-0.5666565,-0.6072939,-0.6502298,-0.6931964,-0.73196447,-0.7646338,-0.79218507,-0.8202268,-0.84449893,-0.8650322,-0.88044745,-0.8902544,-0.8981918,-0.90612936,-0.91127795,-0.9117377,-0.90753907,-0.9023904,-0.900521,-0.900521,-0.901471,-0.8996016,-0.89491266,-0.89071405,-0.88697517,-0.8851057,-0.8832669,-0.88277656,-0.8823169,-0.8799877,-0.8776586,-0.87532943,-0.87250996,-0.87018085,-0.86598223,-0.862703,-0.8608336,-0.862703,-0.8673613,-0.8687711,-0.8678517,-0.862703,-0.8599142,-0.8599142,-0.85804474,-0.8608336,-0.8622433,-0.86457247,-0.8664419,-0.8655225,-0.862703,-0.85804474,-0.8599142,-0.862703,-0.86365306,-0.8641128,-0.8622433,-0.8599142,-0.8594238,-0.85804474,-0.85896415,-0.8617836,-0.86316276,-0.8641128,-0.86037385,-0.85430586,-0.85102665,-0.8514863,-0.85476553,-0.856635,-0.85522527,-0.85522527,-0.85522527,-0.85476553,-0.85384613,-0.85102665,-0.84869754,-0.8491572,-0.85102665,-0.8514863,-0.8491572,-0.84682804,-0.8477781,-0.8491572,-0.85010725,-0.850567,-0.85010725,-0.8524364,-0.85804474,-0.8570947,-0.850567,-0.84076,-0.8318725,-0.8309531,-0.8337419,-0.83889055,-0.84308916,-0.8463684,-0.85102665,-0.85102665,-0.84682804,-0.8393503,-0.83328223,-0.8304934,-0.83328223,-0.8356114,-0.8361017,-0.8379712,-0.8379712,-0.83748084,-0.8370211,-0.83423233,-0.8318725,-0.83328223,-0.8323629,-0.8281643,-0.8211462,-0.8132087,-0.80573094,-0.7996629,-0.7917254,-0.7805087,-0.77165186,-0.7651241,-0.76043516,-0.75482684,-0.74131167,-0.7277658,-0.7146797,-0.7076616,-0.70628256,-0.7067422,-0.7090714,-0.71326995,-0.71654916,-0.7174686,-0.7174686,-0.72635615,-0.75157833,-0.78985596,-0.8309531,-0.8599142,-0.87346,-0.87250996,-0.86598223,-0.8599142,-0.8557156,-0.85476553,-0.8585044,-0.8608336,-0.8599142,-0.8557156,-0.85102665,-0.8496169,-0.8524364,-0.8655225,-0.88746554,-0.9038002,-0.8981918,-0.84076,-0.7090714,-0.5031566,-0.23558068,0.091296434,0.43824708,0.7375729,0.89445305,0.8290837,0.5386455,0.108581066,-0.328961,-0.6647257,-0.862703,-0.94489735,-0.9570334,-0.9402084,-0.922464,-0.9140668,-0.91501683,-0.92341405,-0.9322709,-0.93368065,-0.9318112,-0.92715293,-0.91921544,-0.91219735,-0.9052099,-0.89773214,-0.8935336,-0.8888446,-0.8832669,-0.88044745,-0.8776586,-0.87624884,-0.8729696,-0.8664419,-0.85896415,-0.85335577,-0.8491572,-0.84541833,-0.84167945,-0.83656144,-0.83328223,-0.8318725,-0.8276739,-0.8248851,-0.82393503,-0.8248851,-0.82393503,-0.8164879,-0.80432117,-0.7912657,-0.7814588,-0.7768005,-0.77211154,-0.76417404,-0.75623655,-0.7482991,-0.7426908,-0.736163,-0.7282256,-0.7184186,-0.7090714,-0.69785476,-0.68620896,-0.6731229,-0.65911734,-0.64603126,-0.6320257,-0.61569107,-0.6002758,-0.5862703,-0.5755133,-0.5661968,-0.5531106,-0.53677595,-0.5190315,-0.50876486,-0.5031566,-0.5003371,-0.4970885,-0.4961385,-0.5045357,-0.52368987,-0.55124116,-0.5829911,-0.61707014,-0.6549188,-0.69506586,-0.735213,-0.7697824,-0.8001226,-0.8267545,-0.85102665,-0.87250996,-0.8888446,-0.9000613,-0.90753907,-0.91127795,-0.91219735,-0.9117377,-0.9117377,-0.9131474,-0.9140668,-0.9117377,-0.90753907,-0.90101135,-0.8967821,-0.8944529,-0.8925835,-0.88979465,-0.88605577,-0.8841863,-0.8841863,-0.8841863,-0.8837266,-0.8809071,-0.8790377,-0.8776586,-0.87159055,-0.8664419,-0.8622433,-0.862703,-0.8641128,-0.8650322,-0.8622433,-0.8594238,-0.8617836,-0.8655225,-0.86598223,-0.86365306,-0.8575851,-0.85335577,-0.85384613,-0.85476553,-0.85522527,-0.85804474,-0.8622433,-0.8664419,-0.8673613,-0.8678517,-0.86457247,-0.86457247,-0.8655225,-0.8650322,-0.86457247,-0.862703,-0.8612933,-0.8622433,-0.8622433,-0.8617836,-0.862703,-0.86365306,-0.8655225,-0.8650322,-0.86365306,-0.8617836,-0.8608336,-0.862703,-0.86316276,-0.86457247,-0.8655225,-0.86457247,-0.8608336,-0.856635,-0.85384613,-0.85335577,-0.856635,-0.8612933,-0.86365306,-0.86365306,-0.8599142,-0.8561753,-0.850567,-0.8449586,-0.8435489,-0.84449893,-0.84682804,-0.8496169,-0.8482378,-0.8472878,-0.8477781,-0.8482378,-0.8482378,-0.8477781,-0.84682804,-0.84590864,-0.8463684,-0.84869754,-0.8491572,-0.84869754,-0.8472878,-0.8449586,-0.8412197,-0.8379712,-0.8314128,-0.82068646,-0.80714065,-0.79313517,-0.7781796,-0.7697824,-0.76745325,-0.76837265,-0.76604354,-0.75718665,-0.74456024,-0.730095,-0.72540605,-0.72635615,-0.72868526,-0.73150474,-0.73242414,-0.7342936,-0.73895186,-0.74456024,-0.76043516,-0.78985596,-0.8290837,-0.8678517,-0.88979465,-0.8925835,-0.8851057,-0.8776586,-0.8743794,-0.8729696,-0.8678517,-0.8650322,-0.8664419,-0.87250996,-0.87624884,-0.87483907,-0.87159055,-0.87624884,-0.89491266,-0.92013484,-0.9318112,-0.901471,-0.80806005,-0.6395035,-0.40462762,-0.1062212,0.23840034,0.5666565,0.7996628,0.8477782,0.66751456,0.30563903,-0.13098371,-0.5176219,-0.78191847,-0.9178057,-0.9603126,-0.95936257,-0.9490959,-0.9402084,-0.93741953,-0.93741953,-0.94161814,-0.94394726,-0.94394726,-0.9397487,-0.9341403,-0.9308918,-0.9299418,-0.9266932,-0.9196751,-0.90894884,-0.9000613,-0.89399326,-0.89071405,-0.88697517,-0.8837266,-0.88185716,-0.8799877,-0.8776586,-0.8739197,-0.8655225,-0.8575851,-0.8524364,-0.8463684,-0.84216976,-0.83889055,-0.8370211,-0.8323629,-0.8276739,-0.8234753,-0.8197364,-0.8169476,-0.8132087,-0.8085504,-0.8001226,-0.7945449,-0.78985596,-0.78473794,-0.7772602,-0.7665032,-0.75623655,-0.7478394,-0.7426908,-0.735213,-0.7249464,-0.7114005,-0.6969353,-0.685259,-0.6726632,-0.6572479,-0.6385535,-0.6208091,-0.6044744,-0.5913883,-0.5792522,-0.56478703,-0.55219126,-0.5405148,-0.52742875,-0.51529264,-0.50502604,-0.49941766,-0.5031566,-0.5138829,-0.52975786,-0.5517009,-0.57738274,-0.6105424,-0.64931047,-0.692277,-0.7366227,-0.77631015,-0.8122893,-0.8393503,-0.8599142,-0.8776586,-0.889335,-0.90193075,-0.9117377,-0.91875577,-0.92433345,-0.92715293,-0.9276126,-0.9276126,-0.92715293,-0.92574316,-0.92433345,-0.9220043,-0.9196751,-0.917346,-0.9131474,-0.9084585,-0.9023904,-0.89727247,-0.89491266,-0.895403,-0.89773214,-0.8981918,-0.89727247,-0.8958627,-0.8912044,-0.8865155,-0.88185716,-0.8781183,-0.87670857,-0.87716824,-0.8790377,-0.8813975,-0.88044745,-0.87952805,-0.87670857,-0.8743794,-0.87483907,-0.87670857,-0.8776586,-0.87578917,-0.87346,-0.87250996,-0.87250996,-0.87532943,-0.8776586,-0.87952805,-0.88044745,-0.87952805,-0.8776586,-0.8781183,-0.88044745,-0.88185716,-0.8799877,-0.8743794,-0.8697211,-0.8678517,-0.8697211,-0.8720503,-0.87346,-0.87483907,-0.87578917,-0.87670857,-0.87578917,-0.8739197,-0.87250996,-0.87018085,-0.8706405,-0.8687711,-0.8655225,-0.86457247,-0.8664419,-0.8687711,-0.86923075,-0.8687711,-0.86457247,-0.8622433,-0.8612933,-0.8612933,-0.8599142,-0.85804474,-0.85804474,-0.8594238,-0.8617836,-0.8622433,-0.86037385,-0.85804474,-0.85335577,-0.850567,-0.8482378,-0.8472878,-0.8496169,-0.85335577,-0.85430586,-0.85384613,-0.8528961,-0.8524364,-0.85430586,-0.8524364,-0.850567,-0.8496169,-0.8491572,-0.85010725,-0.8472878,-0.84308916,-0.8384309,-0.8370211,-0.8384309,-0.8379712,-0.8351517,-0.8300337,-0.82160586,-0.81133926,-0.7954643,-0.7791296,-0.7665032,-0.76043516,-0.75997543,-0.758106,-0.74924916,-0.7375728,-0.72635615,-0.71933806,-0.7179589,-0.72028804,-0.72356725,-0.7296353,-0.73334354,-0.7328838,-0.73242414,-0.7375728,-0.76043516,-0.8010726,-0.84308916,-0.87483907,-0.88746554,-0.8855961,-0.87624884,-0.86923075,-0.86598223,-0.8650322,-0.8664419,-0.86831135,-0.8673613,-0.8664419,-0.86365306,-0.8612933,-0.8650322,-0.87952805,-0.901471,-0.92013484,-0.9140668,-0.85384613,-0.7174686,-0.50502604,-0.22669321,0.11556852,0.47327614,0.7763102,0.9355501,0.8781184,0.6016855,0.18188787,-0.25473493,-0.60355496,-0.8220656,-0.9229543,-0.94863623,-0.9467668,-0.94161814,-0.9402084,-0.94394726,-0.95096534,-0.9565737,-0.95844316,-0.9570334,-0.9537542,-0.9467668,-0.93741953,-0.92948204,-0.9220043,-0.91593623,-0.91501683,-0.91219735,-0.90799874,-0.90285015,-0.89865154,-0.8944529,-0.889335,-0.88277656,-0.8743794,-0.86690164,-0.8608336,-0.85476553,-0.8491572,-0.8449586,-0.84216976,-0.83889055,-0.83328223,-0.8253448,-0.817867,-0.8141281,-0.8155378,-0.81461847,-0.812749,-0.80481154,-0.7954643,-0.7884462,-0.77771986,-0.77165186,-0.7669935,-0.75997543,-0.75531715,-0.7473797,-0.736163,-0.7216978,-0.708152,-0.6931964,-0.68152004,-0.6698437,-0.65678823,-0.6422924,-0.62782717,-0.6119522,-0.5969966,-0.5834508,-0.5699357,-0.55684954,-0.5405148,-0.5222801,-0.5073552,-0.49800795,-0.4961385,-0.498958,-0.5045357,-0.5134232,-0.526969,-0.55124116,-0.58158135,-0.6180202,-0.65865767,-0.6997242,-0.7394422,-0.7730616,-0.80386144,-0.82862395,-0.8528961,-0.8743794,-0.88979465,-0.9000613,-0.9052099,-0.90986824,-0.91501683,-0.91875577,-0.91688627,-0.9131474,-0.9084585,-0.9038002,-0.900521,-0.8991419,-0.8967821,-0.8958627,-0.89491266,-0.8916641,-0.88746554,-0.8841863,-0.8851057,-0.8888446,-0.8916641,-0.89399326,-0.89307386,-0.88979465,-0.8865155,-0.878578,-0.87250996,-0.86831135,-0.8687711,-0.87250996,-0.8743794,-0.87532943,-0.87346,-0.87346,-0.87346,-0.8729696,-0.87159055,-0.86923075,-0.8711002,-0.87578917,-0.8781183,-0.8776586,-0.8743794,-0.87346,-0.8781183,-0.8841863,-0.88746554,-0.8855961,-0.8813975,-0.8790377,-0.8781183,-0.8781183,-0.8776586,-0.87670857,-0.87716824,-0.87670857,-0.8743794,-0.87159055,-0.87018085,-0.87159055,-0.87346,-0.8739197,-0.8729696,-0.8720503,-0.8720503,-0.87159055,-0.8697211,-0.8664419,-0.86457247,-0.8641128,-0.8622433,-0.8594238,-0.8557156,-0.8557156,-0.85896415,-0.8612933,-0.86316276,-0.8650322,-0.8673613,-0.86831135,-0.86365306,-0.8570947,-0.8519767,-0.85010725,-0.8496169,-0.85010725,-0.8482378,-0.84682804,-0.8491572,-0.8514863,-0.8496169,-0.84449893,-0.8403003,-0.83981,-0.84308916,-0.8472878,-0.8482378,-0.8496169,-0.8519767,-0.85476553,-0.8561753,-0.85476553,-0.85010725,-0.8463684,-0.84449893,-0.8412197,-0.8370211,-0.8262948,-0.812749,-0.7996629,-0.78565735,-0.7749311,-0.7693227,-0.7693227,-0.76837265,-0.7608949,-0.74688935,-0.7296353,-0.71982837,-0.72028804,-0.72589636,-0.7338339,-0.73803246,-0.7399019,-0.7431505,-0.7455102,-0.75951576,-0.7893962,-0.8304934,-0.87159055,-0.89773214,-0.900521,-0.89071405,-0.88044745,-0.87578917,-0.87346,-0.8706405,-0.8664419,-0.8641128,-0.8622433,-0.86316276,-0.8608336,-0.8612933,-0.87018085,-0.88979465,-0.9136071,-0.9205945,-0.88697517,-0.79267544,-0.6240882,-0.3892123,-0.087097704,0.26221275,0.5998161,0.8430892,0.89399326,0.7095618,0.33505988,-0.11835724,-0.5190315,-0.7903156,-0.92574316,-0.96543056,-0.95982224,-0.9434876,-0.93135154,-0.92715293,-0.9290224,-0.93650013,-0.9425682,-0.9434876,-0.93741953,-0.92856264,-0.9210849,-0.91639596,-0.9117377,-0.9047196,-0.8991419,-0.8967821,-0.8967821,-0.8958627,-0.8912044,-0.8832669,-0.8743794,-0.8687711,-0.8641128,-0.8612933,-0.8585044,-0.8557156,-0.85384613,-0.84869754,-0.8412197,-0.83423233,-0.8290837,-0.8258045,-0.8220656,-0.8169476,-0.81041986,-0.80432117,-0.8001226,-0.7963837,-0.790806,-0.78424764,-0.7772602,-0.77070177,-0.76325464,-0.75718665,-0.75016856,-0.7408213,-0.7310144,-0.71654916,-0.7030034,-0.691327,-0.68152004,-0.6726632,-0.6595771,-0.6437021,-0.62828684,-0.61615074,-0.60680354,-0.5932577,-0.57646334,-0.5563898,-0.5391051,-0.52834815,-0.5199509,-0.5148329,-0.510144,-0.5064051,-0.50827456,-0.5124731,-0.52414954,-0.54189396,-0.5685259,-0.602605,-0.64183265,-0.6833895,-0.7226172,-0.7613852,-0.7963837,-0.8234753,-0.8482378,-0.86923075,-0.8855961,-0.8996016,-0.90986824,-0.91547656,-0.91921544,-0.9229543,-0.9252835,-0.92574316,-0.92482376,-0.922464,-0.92013484,-0.9178057,-0.9145265,-0.9117377,-0.90799874,-0.90658903,-0.90658903,-0.9052099,-0.9000613,-0.8912044,-0.8837266,-0.8799877,-0.8809071,-0.8841863,-0.88697517,-0.88697517,-0.8851057,-0.88185716,-0.8781183,-0.87483907,-0.87532943,-0.8776586,-0.8776586,-0.87578917,-0.8711002,-0.86598223,-0.86457247,-0.8664419,-0.86923075,-0.8720503,-0.8743794,-0.8743794,-0.87250996,-0.8678517,-0.86457247,-0.8650322,-0.8673613,-0.8706405,-0.8720503,-0.8720503,-0.87159055,-0.8729696,-0.87532943,-0.8776586,-0.878578,-0.87952805,-0.8781183,-0.87578917,-0.8729696,-0.8697211,-0.8706405,-0.8729696,-0.8720503,-0.86831135,-0.8641128,-0.8617836,-0.8617836,-0.8608336,-0.85804474,-0.85335577,-0.8514863,-0.8528961,-0.8561753,-0.85804474,-0.8557156,-0.85384613,-0.8519767,-0.850567,-0.85102665,-0.8524364,-0.8561753,-0.86037385,-0.86316276,-0.8594238,-0.85384613,-0.8482378,-0.8435489,-0.84216976,-0.8435489,-0.84449893,-0.8463684,-0.8482378,-0.84869754,-0.8472878,-0.84449893,-0.83889055,-0.82954335,-0.8155378,-0.8006129,-0.7879865,-0.78099906,-0.7795893,-0.7772602,-0.7693227,-0.7557769,-0.7408213,-0.73242414,-0.72914493,-0.73150474,-0.73334354,-0.7342936,-0.7342936,-0.73334354,-0.7328838,-0.7342936,-0.7482991,-0.7795893,-0.8197364,-0.85896415,-0.8813975,-0.8855961,-0.87670857,-0.8650322,-0.85804474,-0.85522527,-0.85804474,-0.8617836,-0.86316276,-0.8622433,-0.8585044,-0.8557156,-0.8570947,-0.86316276,-0.88044745,-0.90193075,-0.91593623,-0.8967821,-0.8169476,-0.6609868,-0.4396261,-0.16273367,0.15899491,0.4812137,0.73288393,0.8230156,0.68945754,0.35838187,-0.07027274,-0.46530795,-0.74131167,-0.8879252,-0.939289,-0.9425682,-0.933221,-0.92807233,-0.92715293,-0.9318112,-0.9350904,-0.9341403,-0.9322709,-0.92715293,-0.922464,-0.91688627,-0.9094085,-0.9038002,-0.90101135,-0.901471,-0.89865154,-0.8944529,-0.88838494,-0.8832669,-0.8809071,-0.878578,-0.87346,-0.8664419,-0.8608336,-0.8575851,-0.85522527,-0.85335577,-0.84682804,-0.8379712,-0.8300337,-0.82442534,-0.8220656,-0.82301563,-0.82301563,-0.82160586,-0.81835735,-0.81179893,-0.80340177,-0.79687405,-0.79267544,-0.7875268,-0.780049,-0.77070177,-0.7608949,-0.7524977,-0.7455102,-0.7375728,-0.7272755,-0.7170088,-0.708152,-0.69785476,-0.6866687,-0.6726632,-0.65770763,-0.64324236,-0.625498,-0.60680354,-0.5881397,-0.5722648,-0.55825925,-0.54609257,-0.5302175,-0.5167024,-0.5073552,-0.50361633,-0.504076,-0.50876486,-0.5148329,-0.526019,-0.54563284,-0.570855,-0.602605,-0.64091325,-0.6833895,-0.7268158,-0.7665032,-0.7987435,-0.82393503,-0.8449586,-0.8650322,-0.8823169,-0.89773214,-0.90986824,-0.91921544,-0.9238737,-0.92341405,-0.9178057,-0.9126571,-0.9103279,-0.9103279,-0.9136071,-0.91639596,-0.9145265,-0.9140668,-0.91127795,-0.9023904,-0.89491266,-0.8902544,-0.8888446,-0.8912044,-0.8921238,-0.89071405,-0.88746554,-0.884646,-0.8813975,-0.87716824,-0.87346,-0.87159055,-0.8729696,-0.87483907,-0.87159055,-0.8673613,-0.86457247,-0.86598223,-0.87250996,-0.878578,-0.87952805,-0.87532943,-0.8706405,-0.86923075,-0.8697211,-0.8711002,-0.87018085,-0.86831135,-0.86690164,-0.8673613,-0.8706405,-0.8711002,-0.87018085,-0.86831135,-0.86457247,-0.8622433,-0.8617836,-0.8650322,-0.8687711,-0.8739197,-0.87670857,-0.87670857,-0.87716824,-0.87716824,-0.87578917,-0.8720503,-0.8673613,-0.86457247,-0.8650322,-0.8673613,-0.8678517,-0.86457247,-0.8612933,-0.86037385,-0.8608336,-0.8612933,-0.8599142,-0.85896415,-0.8599142,-0.8617836,-0.8641128,-0.862703,-0.8622433,-0.862703,-0.8617836,-0.8608336,-0.8599142,-0.8599142,-0.8617836,-0.8612933,-0.85804474,-0.85384613,-0.8514863,-0.8519767,-0.8528961,-0.85384613,-0.8514863,-0.85010725,-0.8496169,-0.850567,-0.850567,-0.8482378,-0.84308916,-0.834692,-0.82068646,-0.80294204,-0.7870671,-0.7791296,-0.7791296,-0.7814588,-0.7768005,-0.7608949,-0.7431505,-0.7282256,-0.7216978,-0.7240269,-0.72635615,-0.7310144,-0.73570335,-0.7375728,-0.73803246,-0.73803246,-0.74970883,-0.77863926,-0.81835735,-0.8612933,-0.89071405,-0.90334046,-0.901471,-0.88979465,-0.878578,-0.86923075,-0.86690164,-0.8711002,-0.87670857,-0.878578,-0.87670857,-0.87159055,-0.86831135,-0.87670857,-0.8967821,-0.91875577,-0.9252835,-0.889335,-0.7861171,-0.60634387,-0.3588416,