0.18113518,0.15867567,0.12724471,0.09280288,0.04041779,-0.029940844,-0.11077654,-0.19612873,-0.27244794,-0.34732318,-0.4266534,-0.50300336,-0.56887627,-0.6167755,-0.65121746,-0.67963743,-0.70658267,-0.73054767,-0.7410247,-0.74403566,-0.74403566,-0.7455104,-0.7410247,-0.7290422,-0.7185652,-0.70959365,-0.70209694,-0.6946309,-0.6826485,-0.6766572,-0.6766572,-0.67963743,-0.6751517,-0.66169447,-0.6482065,-0.64372075,-0.64372075,-0.64221525,-0.636224,-0.62875795,-0.62574697,-0.62875795,-0.62875795,-0.62126124,-0.61527,-0.6137952,-0.6137952,-0.6122897,-0.60629845,-0.60479295,-0.60780394,-0.6092788,-0.60629845,-0.597327,-0.5913358,-0.594316,-0.6032875,-0.60629845,-0.6003072,-0.5958215,-0.6018127,-0.6137952,-0.6242722,-0.6242722,-0.618281,-0.6137952,-0.6122897,-0.6092788,-0.6032875,-0.59880173,-0.6018127,-0.6107843,-0.6137952,-0.6092788,-0.60479295,-0.6032875,-0.60780394,-0.60780394,-0.6018127,-0.5928105,-0.5898303,-0.5928105,-0.5913358,-0.58534455,-0.58085877,-0.58233356,-0.58534455,-0.58685005,-0.58233356,-0.573362,-0.5718565,-0.58085877,-0.5898303,-0.5898303,-0.5898303,-0.58383906,-0.58085877,-0.58085877,-0.5763423,-0.5748675,-0.5763423,-0.5778478,-0.5763423,-0.56137955,-0.552408,-0.5509025,-0.55689377,-0.56137955,-0.55987406,-0.5553883,-0.5553883,-0.56288505,-0.5658653,-0.55839926,-0.54042554,-0.5194715,-0.49701208,-0.46856135,-0.4326446,-0.4012136,-0.38622016,-0.37574315,-0.3578002,-0.31586146,-0.25899076,-0.20808053,-0.18264085,-0.18562102,-0.19910902,-0.20808053,-0.20808053,-0.21855754,-0.25450498,-0.32934946,-0.4446271,-0.5673708,-0.6691605,-0.72606194,-0.7365389,-0.72157615,-0.70658267,-0.6961057,-0.6901145,-0.68562865,-0.68713415,-0.6901145,-0.6931254,-0.6901145,-0.6721715,-0.6586835,-0.6557032,-0.6586835,-0.66169447,-0.6557032,-0.64522624,-0.63474923,-0.62126124,-0.6122897,-0.5913358,-0.5329288,-0.37875414,-0.11378753,0.2470082,0.6212611,0.8368231,0.87277055,0.78142715,0.5928105,0.33681536,0.010461688,-0.38173437,-0.7350334,-0.91618407,-0.88324755,-0.73205316,-0.58534455,-0.5194715,-0.5359398,-0.5793533,-0.6122897,-0.62276673,-0.618281,-0.60479295,-0.58534455,-0.57038176,-0.56288505,-0.56137955,-0.56137955,-0.54641676,-0.5314541,-0.51646054,-0.5074891,-0.4940318,-0.48204935,-0.47304714,-0.47157234,-0.4790383,-0.48054385,-0.47006685,-0.45359862,-0.44161612,-0.4311391,-0.4191566,-0.39970815,-0.38173437,-0.36978263,-0.36379147,-0.35629463,-0.33832097,-0.31887245,-0.30390966,-0.2814502,-0.26347643,-0.24402797,-0.22903448,-0.21855754,-0.20510024,-0.17815506,-0.13922733,-0.109301805,-0.09283358,-0.082325876,-0.06736308,-0.037437618,-0.0014901757,0.029940844,0.049389362,0.070343375,0.09280288,0.11077654,0.12724471,0.13474154,0.14521849,0.16316152,0.17962968,0.19010675,0.19609809,0.19910884,0.19760334,0.18562102,0.15419006,0.10478532,0.04640901,-0.013472617,-0.07784015,-0.15120977,-0.23653126,-0.31887245,-0.39522237,-0.46708655,-0.5284431,-0.58383906,-0.62875795,-0.660189,-0.68713415,-0.71109915,-0.73054767,-0.7380444,-0.7350334,-0.72756743,-0.72606194,-0.72756743,-0.72606194,-0.71407944,-0.70360243,-0.6961057,-0.6931254,-0.68713415,-0.67963743,-0.6721715,-0.6691605,-0.6691605,-0.66316926,-0.64971197,-0.63923496,-0.63324374,-0.636224,-0.636224,-0.62725246,-0.6167755,-0.6107843,-0.6092788,-0.6122897,-0.6092788,-0.6032875,-0.597327,-0.5928105,-0.5928105,-0.5898303,-0.5898303,-0.594316,-0.59880173,-0.6018127,-0.59880173,-0.594316,-0.6003072,-0.60629845,-0.60780394,-0.6032875,-0.597327,-0.5958215,-0.6018127,-0.60629845,-0.60629845,-0.60780394,-0.6137952,-0.62276673,-0.62725246,-0.62276673,-0.6167755,-0.6137952,-0.618281,-0.62126124,-0.618281,-0.60780394,-0.59880173,-0.59880173,-0.6018127,-0.60780394,-0.6137952,-0.61527,-0.61527,-0.6107843,-0.6018127,-0.5958215,-0.597327,-0.6018127,-0.60629845,-0.6003072,-0.5928105,-0.58685005,-0.58685005,-0.58534455,-0.5778478,-0.57038176,-0.56887627,-0.56887627,-0.57038176,-0.56288505,-0.54792225,-0.5299486,-0.50450885,-0.46856135,-0.42815888,-0.39522237,-0.38173437,-0.37574315,-0.3578002,-0.31586146,-0.25597978,-0.20958596,-0.19462323,-0.20510024,-0.22156852,-0.22903448,-0.22755975,-0.23502576,-0.27696443,-0.35629463,-0.47605807,-0.6018127,-0.70209694,-0.7530072,-0.7619786,-0.7515017,-0.7395191,-0.7380444,-0.7335279,-0.72305095,-0.71109915,-0.70808816,-0.71109915,-0.71109915,-0.7006222,-0.68863964,-0.6781627,-0.67367697,-0.6691605,-0.660189,-0.6586835,-0.6557032,-0.64522624,-0.6317382,-0.597327,-0.5254628,-0.37426835,-0.11827332,0.2230432,0.5718565,0.7574929,0.7544819,0.62574697,0.41765106,0.18562102,-0.07784015,-0.39371687,-0.6931254,-0.8592826,-0.8518166,-0.73054767,-0.6003072,-0.5434365,-0.55987406,-0.60479295,-0.6407405,-0.6541977,-0.6482065,-0.63324374,-0.618281,-0.6032875,-0.5928105,-0.5898303,-0.58233356,-0.56887627,-0.55689377,-0.54491127,-0.53892004,-0.5329288,-0.5194715,-0.5105001,-0.50300336,-0.49701208,-0.4895153,-0.47605807,-0.46558106,-0.45808434,-0.45660955,-0.44760734,-0.42963362,-0.40867966,-0.39221144,-0.38173437,-0.36978263,-0.35331434,-0.33684617,-0.32037795,-0.30688995,-0.28891617,-0.26498199,-0.24550277,-0.23053998,-0.22006303,-0.20359474,-0.17664957,-0.14672405,-0.11827332,-0.09581387,-0.07184887,-0.038912416,-0.0029956698,0.029940844,0.055380583,0.07485986,0.09728849,0.119748,0.13621616,0.14819872,0.15867567,0.17065823,0.18113518,0.18712652,0.18712652,0.18863201,0.18863201,0.17514408,0.1422075,0.08681154,0.022444129,-0.043428898,-0.11228204,-0.19013757,-0.27545893,-0.35927492,-0.4341501,-0.50149786,-0.56439054,-0.61975574,-0.66316926,-0.6931254,-0.71407944,-0.73054767,-0.7455104,-0.7499962,-0.7410247,-0.73205316,-0.72756743,-0.7290422,-0.73205316,-0.72756743,-0.7170904,-0.70808816,-0.7051079,-0.6991167,-0.68713415,-0.67367697,-0.66316926,-0.6572087,-0.6482065,-0.63772947,-0.62725246,-0.62276673,-0.62574697,-0.62574697,-0.618281,-0.6092788,-0.6018127,-0.6003072,-0.5958215,-0.5883248,-0.58534455,-0.58685005,-0.5928105,-0.594316,-0.5883248,-0.58233356,-0.58383906,-0.5913358,-0.5958215,-0.5883248,-0.5793533,-0.5748675,-0.5763423,-0.5793533,-0.5778478,-0.56887627,-0.56288505,-0.56439054,-0.57038176,-0.5718565,-0.5748675,-0.5763423,-0.5793533,-0.5778478,-0.5748675,-0.57038176,-0.573362,-0.58085877,-0.58085877,-0.5748675,-0.5673708,-0.56288505,-0.56887627,-0.5763423,-0.5748675,-0.56887627,-0.56887627,-0.56887627,-0.57038176,-0.5673708,-0.56137955,-0.55839926,-0.55987406,-0.55689377,-0.55391353,-0.552408,-0.55391353,-0.55987406,-0.56137955,-0.55689377,-0.5553883,-0.55987406,-0.56887627,-0.56887627,-0.56137955,-0.55391353,-0.5509025,-0.55689377,-0.55987406,-0.55839926,-0.55391353,-0.5493971,-0.5509025,-0.552408,-0.54193103,-0.5254628,-0.50149786,-0.46257013,-0.4191566,-0.37875414,-0.3578002,-0.35180885,-0.33982646,-0.29939324,-0.23355097,-0.18113536,-0.16319233,-0.18562102,-0.22307402,-0.24101704,-0.23355097,-0.23053998,-0.26049626,-0.32934946,-0.4371304,-0.5553883,-0.6586835,-0.73054767,-0.7634841,-0.7619786,-0.74403566,-0.72305095,-0.7051079,-0.69162,-0.6781627,-0.67367697,-0.6781627,-0.68562865,-0.68562865,-0.6766572,-0.66316926,-0.6557032,-0.66169447,-0.6661802,-0.6661802,-0.6541977,-0.6317382,-0.6122897,-0.58085877,-0.5059836,-0.33684617,-0.06287736,0.28443038,0.62725246,0.7919041,0.76796985,0.6227666,0.39522243,0.14819872,-0.11526233,-0.41467088,-0.6946309,-0.8518166,-0.8428143,-0.7290422,-0.6018127,-0.54792225,-0.573362,-0.62574697,-0.6586835,-0.660189,-0.63923496,-0.6122897,-0.597327,-0.58685005,-0.58233356,-0.58383906,-0.5883248,-0.58685005,-0.5748675,-0.5658653,-0.55689377,-0.552408,-0.54491127,-0.5299486,-0.51646054,-0.5089946,-0.5105001,-0.5089946,-0.50149786,-0.48502958,-0.46856135,-0.45958984,-0.4506184,-0.4341501,-0.41467088,-0.39820266,-0.38923115,-0.38173437,-0.36827713,-0.35030347,-0.33383518,-0.31586146,-0.29641294,-0.27545893,-0.25299948,-0.23502576,-0.22006303,-0.20208925,-0.17815506,-0.14970428,-0.12426454,-0.10180515,-0.07485986,-0.041923404,-0.008986831,0.016452909,0.03442657,0.05387509,0.076334596,0.09280288,0.10327983,0.10927105,0.12125349,0.13772166,0.15419006,0.16316152,0.15419006,0.14070201,0.12423372,0.09581375,0.055380583,0.0014901161,-0.065888345,-0.13624704,-0.21256626,-0.29343265,-0.37426835,-0.4506184,-0.5224518,-0.58685005,-0.646701,-0.69162,-0.72157615,-0.7380444,-0.7499962,-0.7634841,-0.7754666,-0.7754666,-0.7619786,-0.7499962,-0.7499962,-0.7605039,-0.7679699,-0.7589984,-0.7395191,-0.72305095,-0.72305095,-0.72606194,-0.72455645,-0.71407944,-0.70658267,-0.72305095,-0.7410247,-0.7380444,-0.71109915,-0.6691605,-0.63474923,-0.62126124,-0.62875795,-0.64221525,-0.6482065,-0.6526922,-0.65121746,-0.64221525,-0.63772947,-0.63772947,-0.64372075,-0.64522624,-0.6407405,-0.63474923,-0.63324374,-0.6407405,-0.646701,-0.6482065,-0.6482065,-0.6482065,-0.64971197,-0.65121746,-0.65121746,-0.6526922,-0.66169447,-0.6781627,-0.69162,-0.6946309,-0.68863964,-0.67963743,-0.670666,-0.66169447,-0.6557032,-0.6572087,-0.66316926,-0.6751517,-0.6781627,-0.67367697,-0.6661802,-0.6676857,-0.6721715,-0.6751517,-0.6676857,-0.6572087,-0.6526922,-0.6572087,-0.66169447,-0.6586835,-0.65121746,-0.646701,-0.64971197,-0.6557032,-0.6557032,-0.64971197,-0.63474923,-0.6092788,-0.5673708,-0.5149858,-0.46856135,-0.4431216,-0.4356249,-0.4236731,-0.39073664,-0.33982646,-0.29641294,-0.27843922,-0.28295577,-0.29939324,-0.31137568,-0.31137568,-0.30990094,-0.33383518,-0.38622016,-0.48204935,-0.60479295,-0.72606194,-0.81288886,-0.8518166,-0.8547968,-0.8428143,-0.83534837,-0.8383286,-0.8308626,-0.8173746,-0.79940087,-0.79491514,-0.79940087,-0.81288886,-0.8203549,-0.8173746,-0.8098779,-0.79642063,-0.78443813,-0.7769414,-0.7739611,-0.7664644,-0.7470159,-0.7170904,-0.660189,-0.5284431,-0.28593594,0.05387509,0.44161606,0.7110684,0.7634841,0.66618013,0.47753274,0.24550271,-0.0074813366,-0.32037795,-0.6586835,-0.89523005,-0.95658654,-0.86975956,-0.7335279,-0.6482065,-0.63923496,-0.67367697,-0.71257395,-0.73054767,-0.7290422,-0.71407944,-0.6931254,-0.6766572,-0.6646747,-0.6661802,-0.66169447,-0.6541977,-0.6407405,-0.62875795,-0.6242722,-0.6137952,-0.6003072,-0.58534455,-0.573362,-0.57038176,-0.56137955,-0.5434365,-0.520977,-0.50450885,-0.4940318,-0.4910208,-0.48204935,-0.46856135,-0.45660955,-0.44760734,-0.4386359,-0.4251479,-0.4101851,-0.39970815,-0.39371687,-0.38025963,-0.35478914,-0.32636917,-0.29791844,-0.27843922,-0.25899076,-0.23803675,-0.21256626,-0.18562102,-0.16018134,-0.13025576,-0.09581387,-0.06438285,-0.038912416,-0.02096945,0.0014901161,0.029940844,0.05986631,0.08082032,0.08831704,0.09581375,0.10478532,0.116767764,0.1287502,0.13323605,0.13022506,0.12125349,0.09728849,0.05839157,0.0059758425,-0.053905845,-0.11676782,-0.18113536,-0.25748527,-0.3428067,-0.4251479,-0.50300336,-0.5748675,-0.64372075,-0.70360243,-0.7455104,-0.7664644,-0.7739611,-0.7799524,-0.79340965,-0.80689764,-0.81586915,-0.81288886,-0.80689764,-0.80539215,-0.80090636,-0.79642063,-0.79340965,-0.79340965,-0.79491514,-0.79193485,-0.7814579,-0.7694754,-0.7634841,-0.7634841,-0.7634841,-0.7574929,-0.7470159,-0.7380444,-0.7365389,-0.7335279,-0.72606194,-0.7185652,-0.7170904,-0.7185652,-0.7200707,-0.71109915,-0.70360243,-0.7006222,-0.70658267,-0.71257395,-0.71109915,-0.7051079,-0.70209694,-0.70658267,-0.71257395,-0.71109915,-0.7051079,-0.6961057,-0.6961057,-0.6976112,-0.6991167,-0.70209694,-0.70808816,-0.71257395,-0.70959365,-0.7006222,-0.68713415,-0.6826485,-0.68562865,-0.7006222,-0.70808816,-0.71109915,-0.71109915,-0.70959365,-0.70658267,-0.7006222,-0.70209694,-0.70658267,-0.71407944,-0.71407944,-0.7051079,-0.6931254,-0.69162,-0.6991167,-0.70658267,-0.70658267,-0.6976112,-0.69162,-0.6946309,-0.6961057,-0.6961057,-0.6946309,-0.6946309,-0.6946309,-0.68863964,-0.684154,-0.6781627,-0.681143,-0.69162,-0.6931254,-0.68562865,-0.6721715,-0.6646747,-0.6691605,-0.67367697,-0.6751517,-0.6691605,-0.6661802,-0.6646747,-0.6646747,-0.66169447,-0.6572087,-0.6572087,-0.6541977,-0.64372075,-0.62126124,-0.5778478,-0.5359398,-0.50300336,-0.48054385,-0.47006685,-0.45359862,-0.4206621,-0.37276286,-0.32185268,-0.28593594,-0.28295577,-0.30538446,-0.32784396,-0.33085495,-0.32037795,-0.32185268,-0.37125736,-0.46708655,-0.5883248,-0.6991167,-0.7754666,-0.81586915,-0.8278516,-0.8173746,-0.7979261,-0.7784469,-0.7739611,-0.7769414,-0.7799524,-0.7769414,-0.7679699,-0.7619786,-0.7619786,-0.7589984,-0.75451267,-0.7499962,-0.7470159,-0.7470159,-0.7395191,-0.70959365,-0.681143,-0.670666,-0.6526922,-0.57038176,-0.36978263,-0.04942006,0.33232963,0.6242415,0.73801374,0.7260618,0.6077732,0.39669716,0.10029948,-0.27696443,-0.66169447,-0.9206698,-0.9835318,-0.88475305,-0.7365389,-0.636224,-0.6137952,-0.64221525,-0.6826485,-0.7051079,-0.6991167,-0.684154,-0.67367697,-0.6691605,-0.6691605,-0.66316926,-0.6557032,-0.64971197,-0.64221525,-0.6317382,-0.61527,-0.6003072,-0.5928105,-0.594316,-0.5913358,-0.58085877,-0.5658653,-0.55391353,-0.5493971,-0.5434365,-0.5314541,-0.5134803,-0.50149786,-0.4940318,-0.48204935,-0.46856135,-0.44911283,-0.4326446,-0.4206621,-0.4116906,-0.39970815,-0.38173437,-0.36827713,-0.35629463,-0.33982646,-0.31736696,-0.29042166,-0.26498199,-0.25299948,-0.23653126,-0.21708274,-0.19013757,-0.15867585,-0.13474154,-0.10478532,-0.07184887,-0.041923404,-0.017958403,-0.0014901757,0.011967182,0.02843535,0.050894856,0.06585753,0.06886852,0.06886852,0.067363024,0.06585753,0.05986631,0.04640901,0.023949623,-0.008986831,-0.053905845,-0.11676782,-0.19910902,-0.27994472,-0.35927492,-0.42963362,-0.50149786,-0.57038176,-0.63324374,-0.69162,-0.7395191,-0.78293264,-0.8188801,-0.8383286,-0.8398341,-0.83534837,-0.8368231,-0.8443198,-0.8518166,-0.8503111,-0.8428143,-0.8368231,-0.83534837,-0.8323374,-0.8233658,-0.81138337,-0.8039174,-0.8024119,-0.8024119,-0.79193485,-0.7739611,-0.7605039,-0.7559874,-0.7499962,-0.74253017,-0.7380444,-0.7365389,-0.74253017,-0.7470159,-0.7395191,-0.7290422,-0.72157615,-0.72606194,-0.73205316,-0.72756743,-0.7185652,-0.71257395,-0.71558493,-0.72157615,-0.72455645,-0.72157615,-0.7185652,-0.72305095,-0.7290422,-0.7290422,-0.72756743,-0.7200707,-0.71558493,-0.7185652,-0.7185652,-0.72157615,-0.72606194,-0.72756743,-0.72606194,-0.72157615,-0.7185652,-0.72305095,-0.7350334,-0.7380444,-0.7350334,-0.72455645,-0.7200707,-0.72305095,-0.72606194,-0.72455645,-0.71407944,-0.71109915,-0.7200707,-0.73054767,-0.7380444,-0.7395191,-0.7380444,-0.7410247,-0.74403566,-0.7410247,-0.73205316,-0.72305095,-0.7185652,-0.7200707,-0.7200707,-0.7200707,-0.72305095,-0.72756743,-0.72606194,-0.7185652,-0.70808816,-0.7051079,-0.71109915,-0.7170904,-0.7170904,-0.71407944,-0.71407944,-0.7200707,-0.72157615,-0.71558493,-0.70360243,-0.7006222,-0.70808816,-0.71407944,-0.71407944,-0.70209694,-0.68863964,-0.6781627,-0.66316926,-0.636224,-0.597327,-0.56288505,-0.54193103,-0.5254628,-0.50450885,-0.46558106,-0.41467088,-0.37276286,-0.34879798,-0.35030347,-0.36228597,-0.37574315,-0.38323987,-0.37875414,-0.38025963,-0.40867966,-0.47605807,-0.5778478,-0.6901145,-0.78443813,-0.8398341,-0.8622936,-0.8607881,-0.8428143,-0.8218603,-0.8039174,-0.7979261,-0.8039174,-0.8084031,-0.80689764,-0.8024119,-0.8039174,-0.81288886,-0.8218603,-0.8203549,-0.81288886,-0.8024119,-0.7979261,-0.78892386,-0.7664644,-0.74403566,-0.72606194,-0.6991167,-0.5928105,-0.36526614,-0.029940844,0.34879792,0.60479295,0.6751517,0.6242415,0.47753274,0.25597978,-0.02843535,-0.38025963,-0.72606194,-0.9416238,-0.97757125,-0.88023657,-0.7589984,-0.68863964,-0.68562865,-0.72606194,-0.7679699,-0.78293264,-0.77245563,-0.74852145,-0.73205316,-0.72455645,-0.72455645,-0.7170904,-0.70360243,-0.6931254,-0.68713415,-0.67963743,-0.6721715,-0.6646747,-0.6557032,-0.6557032,-0.65121746,-0.63923496,-0.62276673,-0.6122897,-0.6092788,-0.6003072,-0.58534455,-0.56288505,-0.5434365,-0.5299486,-0.5194715,-0.5059836,-0.48804057,-0.47304714,-0.46407562,-0.4506184,-0.4311391,-0.40720487,-0.38622016,-0.37574315,-0.36228597,-0.34732318,-0.32037795,-0.29343265,-0.27097315,-0.24700826,-0.22156852,-0.18712652,-0.15120977,-0.11827332,-0.091328025,-0.06886858,-0.050894856,-0.035932124,-0.019463897,-0.0014901757,0.020969272,0.041923285,0.049389362,0.049389362,0.050894856,0.055380583,0.06438279,0.06585753,0.050894856,0.022444129,-0.016483605,-0.06287736,-0.12125361,-0.19013757,-0.26347643,-0.33832097,-0.4116906,-0.48804057,-0.57038176,-0.6407405,-0.6991167,-0.7410247,-0.7754666,-0.8039174,-0.8233658,-0.8323374,-0.8323374,-0.8338429,-0.8368231,-0.8383286,-0.8323374,-0.8203549,-0.81138337,-0.80689764,-0.8039174,-0.80090636,-0.78892386,-0.7799524,-0.7754666,-0.7709809,-0.7634841,-0.7530072,-0.74403566,-0.7395191,-0.7365389,-0.7335279,-0.72455645,-0.7185652,-0.7185652,-0.7185652,-0.71407944,-0.70658267,-0.7006222,-0.7006222,-0.7006222,-0.6991167,-0.6931254,-0.68713415,-0.68713415,-0.68562865,-0.6826485,-0.6766572,-0.6766572,-0.684154,-0.6901145,-0.6961057,-0.6946309,-0.6946309,-0.6991167,-0.70360243,-0.70209694,-0.6946309,-0.69162,-0.6961057,-0.7006222,-0.7051079,-0.70360243,-0.70209694,-0.70658267,-0.70808816,-0.7006222,-0.6901145,-0.684154,-0.6826485,-0.68713415,-0.6901145,-0.68863964,-0.68713415,-0.69162,-0.69162,-0.68713415,-0.6781627,-0.67367697,-0.6751517,-0.67963743,-0.6781627,-0.670666,-0.66316926,-0.6586835,-0.6557032,-0.65121746,-0.64372075,-0.64372075,-0.6482065,-0.6557032,-0.660189,-0.6572087,-0.6526922,-0.65121746,-0.646701,-0.63923496,-0.63324374,-0.63026345,-0.636224,-0.64522624,-0.6482065,-0.64221525,-0.63474923,-0.62875795,-0.62126124,-0.62126124,-0.62126124,-0.62725246,-0.63923496,-0.64221525,-0.63923496,-0.63026345,-0.62875795,-0.6317382,-0.63324374,-0.62725246,-0.6167755,-0.60780394,-0.60780394,-0.60479295,-0.6018127,-0.5958215,-0.594316,-0.6018127,-0.60629845,-0.60629845,-0.597327,-0.5928105,-0.59880173,-0.6032875,-0.6032875,-0.594316,-0.5898303,-0.594316,-0.6003072,-0.60629845,-0.6003072,-0.5913358,-0.58383906,-0.57038176,-0.5493971,-0.5134803,-0.47006685,-0.42963362,-0.39672786,-0.37875414,-0.36228597,-0.34133196,-0.30390966,-0.25001925,-0.20808053,-0.19462323,-0.21256626,-0.24851376,-0.26796228,-0.26796228,-0.26347643,-0.28443044,-0.34732318,-0.4431216,-0.54792225,-0.64221525,-0.7051079,-0.74253017,-0.7530072,-0.7470159,-0.7335279,-0.72305095,-0.7200707,-0.7170904,-0.71257395,-0.70658267,-0.7051079,-0.70658267,-0.70209694,-0.68863964,-0.67367697,-0.6661802,-0.6676857,-0.67367697,-0.6661802,-0.64221525,-0.6167755,-0.5898303,-0.5374453,-0.40569937,-0.15867585,0.17363858,0.5329288,0.76796985,0.80987775,0.7155849,0.52546275,0.29042172,0.038912296,-0.25001925,-0.5314541,-0.72305095,-0.7694754,-0.6961057,-0.5898303,-0.5254628,-0.5299486,-0.5718565,-0.60780394,-0.61527,-0.59880173,-0.5793533,-0.56439054,-0.552408,-0.5434365,-0.5314541,-0.5239573,-0.520977,-0.5119748,-0.50002307,-0.48653507,-0.47756356,-0.47304714,-0.46708655,-0.4551041,-0.4386359,-0.42815888,-0.4251479,-0.4191566,-0.40867966,-0.39073664,-0.38025963,-0.37724864,-0.37125736,-0.35927492,-0.33534068,-0.31887245,-0.31137568,-0.30688995,-0.29791844,-0.27545893,-0.25450498,-0.23803675,-0.22605425,-0.21256626,-0.19311774,-0.17065829,-0.15271527,-0.13323605,-0.109301805,-0.08085114,-0.050894856,-0.025455117,0.0014901161,0.02843535,0.056886077,0.07784009,0.09280288,0.11077654,0.13772166,0.1661725,0.18562102,0.19609809,0.20359468,0.21407175,0.23352027,0.25149393,0.25447428,0.24998844,0.23352027,0.21256626,0.18264067,0.13922715,0.08982253,0.032921076,-0.02843535,-0.09430832,-0.16319233,-0.22454876,-0.27395344,-0.30990094,-0.34732318,-0.38323987,-0.4131961,-0.4311391,-0.42963362,-0.4251479,-0.4221676,-0.41768187,-0.41768187,-0.4101851,-0.40268838,-0.39672786,-0.39221144,-0.38173437,-0.36677164,-0.3578002,-0.35030347,-0.3458177,-0.33982646,-0.33085495,-0.32185268,-0.31736696,-0.31288117,-0.30688995,-0.29641294,-0.29641294,-0.30089873,-0.30240422,-0.30240422,-0.29343265,-0.28593594,-0.28593594,-0.28891617,-0.28443044,-0.27097315,-0.26347643,-0.26648748,-0.27395344,-0.27994472,-0.27395344,-0.26498199,-0.26498199,-0.26946777,-0.27395344,-0.27545893,-0.27395344,-0.2814502,-0.29042166,-0.29939324,-0.30089873,-0.29791844,-0.29641294,-0.29490745,-0.29641294,-0.29791844,-0.30240422,-0.31137568,-0.31586146,-0.31586146,-0.31137568,-0.31438667,-0.32335818,-0.33684617,-0.3428067,-0.3428067,-0.33982646,-0.33982646,-0.34133196,-0.3428067,-0.3428067,-0.3458177,-0.35180885,-0.35478914,-0.35331434,-0.3443122,-0.33684617,-0.33982646,-0.34732318,-0.35629463,-0.35927492,-0.35927492,-0.36078048,-0.36078048,-0.35927492,-0.35629463,-0.35478914,-0.36078048,-0.36827713,-0.37426835,-0.37426835,-0.37276286,-0.37276286,-0.37875414,-0.38323987,-0.38474536,-0.38323987,-0.38622016,-0.38622016,-0.38474536,-0.37875414,-0.37426835,-0.37426835,-0.37574315,-0.37875414,-0.38173437,-0.38772565,-0.39820266,-0.40419388,-0.39820266,-0.38323987,-0.37724864,-0.38173437,-0.39371687,-0.39970815,-0.39672786,-0.39820266,-0.40720487,-0.41617638,-0.4236731,-0.41617638,-0.40720487,-0.40419388,-0.40419388,-0.40569937,-0.39970815,-0.39371687,-0.39371687,-0.39371687,-0.4012136,-0.40419388,-0.4101851,-0.41467088,-0.40867966,-0.38923115,-0.3458177,-0.29490745,-0.251494,-0.22605425,-0.22006303,-0.21109146,-0.18712652,-0.14220756,-0.08982253,-0.05240035,-0.041923404,-0.053905845,-0.07636535,-0.08383137,-0.085336864,-0.09879416,-0.15120977,-0.24851376,-0.37276286,-0.49550658,-0.5778478,-0.62574697,-0.6407405,-0.6317382,-0.6122897,-0.58685005,-0.573362,-0.57038176,-0.57038176,-0.5748675,-0.573362,-0.5778478,-0.58383906,-0.58383906,-0.573362,-0.5553883,-0.5434365,-0.54042554,-0.54193103,-0.5299486,-0.50450885,-0.48355484,-0.45808434,-0.38323987,-0.19760352,0.11228204,0.50300324,0.85031104,1.0,0.97456026,0.829357,0.60178196,0.33534062,0.020969272,-0.32185268,-0.59880173,-0.72157615,-0.681143,-0.56137955,-0.45808434,-0.4221676,-0.44911283,-0.49550658,-0.5239573,-0.5284431,-0.5074891,-0.4940318,-0.4895153,-0.4895153,-0.48204935,-0.46856135,-0.45808434,-0.4551041,-0.46109533,-0.46109533,-0.45359862,-0.4431216,-0.4326446,-0.4266534,-0.41768187,-0.4012136,-0.38772565,-0.37724864,-0.36526614,-0.35927492,-0.35030347,-0.34133196,-0.33534068,-0.32934946,-0.31586146,-0.29791844,-0.27994472,-0.26946777,-0.26049626,-0.251494,-0.23653126,-0.21557724,-0.19161224,-0.17514408,-0.15867585,-0.14371306,-0.13025576,-0.11378753,-0.091328025,-0.061371863,-0.025455117,0.0045011044,0.029940844,0.05387509,0.076334596,0.10180497,0.12423372,0.13922715,0.15867567,0.18411553,0.21106076,0.23053992,0.23204541,0.22752893,0.22605419,0.23204541,0.23653126,0.23053992,0.21407175,0.19010675,0.16018116,0.119748,0.061371803,-0.008986831,-0.08383137,-0.15867585,-0.23355097,-0.31736696,-0.39970815,-0.4790383,-0.54792225,-0.60629845,-0.65121746,-0.684154,-0.70360243,-0.70658267,-0.71109915,-0.7185652,-0.72606194,-0.72455645,-0.71407944,-0.7051079,-0.7006222,-0.7006222,-0.70209694,-0.6961057,-0.68562865,-0.6766572,-0.67367697,-0.6661802,-0.6526922,-0.63923496,-0.62875795,-0.62875795,-0.6317382,-0.6317382,-0.63026345,-0.63026345,-0.62725246,-0.6242722,-0.6167755,-0.60780394,-0.60780394,-0.6092788,-0.6107843,-0.6137952,-0.6167755,-0.62574697,-0.63772947,-0.64522624,-0.64221525,-0.64221525,-0.6482065,-0.6586835,-0.6691605,-0.6751517,-0.68713415,-0.70808816,-0.73205316,-0.7410247,-0.7395191,-0.7350334,-0.7410247,-0.7589984,-0.7769414,-0.7799524,-0.7784469,-0.7784469,-0.78293264,-0.7859436,-0.79340965,-0.8024119,-0.8173746,-0.8308626,-0.8338429,-0.8203549,-0.81439435,-0.81439435,-0.8218603,-0.8293571,-0.8278516,-0.8248713,-0.8203549,-0.8218603,-0.8203549,-0.81586915,-0.81288886,-0.8173746,-0.8233658,-0.8218603,-0.8188801,-0.81586915,-0.8188801,-0.8263461,-0.8308626,-0.8248713,-0.8173746,-0.81288886,-0.8084031,-0.80539215,-0.79491514,-0.78443813,-0.7769414,-0.7664644,-0.75451267,-0.74253017,-0.7380444,-0.74403566,-0.7499962,-0.74852145,-0.7350334,-0.72157615,-0.71407944,-0.71558493,-0.7185652,-0.7185652,-0.7200707,-0.7185652,-0.71407944,-0.70360243,-0.6901145,-0.684154,-0.68562865,-0.68713415,-0.67963743,-0.6586835,-0.63324374,-0.60479295,-0.5748675,-0.54641676,-0.5194715,-0.5059836,-0.49550658,-0.47605807,-0.4326446,-0.36827713,-0.31736696,-0.29791844,-0.30390966,-0.31887245,-0.31736696,-0.31137568,-0.33383518,-0.40268838,-0.51646054,-0.64221525,-0.7530072,-0.8173746,-0.8368231,-0.8263461,-0.80539215,-0.79193485,-0.7874491,-0.79042935,-0.7859436,-0.7739611,-0.7664644,-0.7649896,-0.7664644,-0.7649896,-0.7589984,-0.7530072,-0.7499962,-0.7455104,-0.7365389,-0.72305095,-0.70209694,-0.6826485,-0.67367697,-0.6541977,-0.58534455,-0.4236731,-0.15867585,0.18113518,0.47903824,0.6167755,0.6137645,0.50149775,0.3038789,0.04640901,-0.27395344,-0.62725246,-0.8967048,-0.98503727,-0.9012213,-0.74403566,-0.62725246,-0.5958215,-0.63026345,-0.6751517,-0.6946309,-0.6946309,-0.67963743,-0.670666,-0.66169447,-0.646701,-0.63923496,-0.636224,-0.636224,-0.62875795,-0.61527,-0.6018127,-0.5928105,-0.5883248,-0.58085877,-0.5658653,-0.55391353,-0.5493971,-0.54792225,-0.53892004,-0.5224518,-0.50450885,-0.49701208,-0.4940318,-0.4895153,-0.47455257,-0.45958984,-0.4431216,-0.42815888,-0.41467088,-0.39820266,-0.38323987,-0.36978263,-0.35478914,-0.33534068,-0.30688995,-0.28443044,-0.26946777,-0.25450498,-0.23653126,-0.21407175,-0.18863207,-0.16767806,-0.15120977,-0.13025576,-0.10180515,-0.07184887,-0.047914565,-0.026960611,-0.004501164,0.020969272,0.04041779,0.05240035,0.055380583,0.05839157,0.070343375,0.07784009,0.08082032,0.07485986,0.06585753,0.05240035,0.02843535,-0.010492325,-0.06886858,-0.13474154,-0.20208925,-0.27843922,-0.36078048,-0.4386359,-0.5074891,-0.56439054,-0.62276673,-0.684154,-0.7395191,-0.7754666,-0.78892386,-0.7979261,-0.8084031,-0.8248713,-0.83534837,-0.8323374,-0.8248713,-0.8218603,-0.8248713,-0.8248713,-0.81288886,-0.8024119,-0.7979261,-0.79940087,-0.8039174,-0.79642063,-0.7859436,-0.7754666,-0.7709809,-0.77245563,-0.7679699,-0.7619786,-0.7559874,-0.7515017,-0.74403566,-0.7335279,-0.72305095,-0.7170904,-0.7200707,-0.72157615,-0.7170904,-0.71257395,-0.70360243,-0.70209694,-0.6991167,-0.6976112,-0.70209694,-0.7051079,-0.71109915,-0.70959365,-0.70360243,-0.70209694,-0.70360243,-0.70658267,-0.7051079,-0.6991167,-0.6991167,-0.70658267,-0.7170904,-0.72157615,-0.7170904,-0.71109915,-0.70959365,-0.71407944,-0.7170904,-0.71257395,-0.7051079,-0.70209694,-0.70209694,-0.7051079,-0.70209694,-0.6991167,-0.70209694,-0.70658267,-0.70808816,-0.7006222,-0.6946309,-0.6931254,-0.6946309,-0.6961057,-0.69162,-0.68562865,-0.6826485,-0.68562865,-0.684154,-0.67367697,-0.6691605,-0.660189,-0.66169447,-0.6646747,-0.66169447,-0.6646747,-0.6676857,-0.6721715,-0.6691605,-0.66169447,-0.6586835,-0.6586835,-0.6676857,-0.6721715,-0.6646747,-0.6557032,-0.64971197,-0.64971197,-0.6482065,-0.64522624,-0.64221525,-0.64221525,-0.64372075,-0.636224,-0.62276673,-0.6003072,-0.5718565,-0.53892004,-0.50450885,-0.47605807,-0.46708655,-0.46558106,-0.44760734,-0.40268838,-0.33534068,-0.27994472,-0.27097315,-0.29343265,-0.32185268,-0.32784396,-0.31438667,-0.31438667,-0.35478914,-0.4371304,-0.54641676,-0.66169447,-0.7515017,-0.81138337,-0.83534837,-0.8278516,-0.8098779,-0.78892386,-0.7799524,-0.77245563,-0.7649896,-0.7589984,-0.7574929,-0.7589984,-0.7559874,-0.74852145,-0.7365389,-0.73054767,-0.7290422,-0.7290422,-0.72305095,-0.70658267,-0.684154,-0.6646747,-0.63026345,-0.5374453,-0.34133196,-0.041923404,0.32486355,0.6377295,0.7619786,0.73054755,0.58832467,0.36677158,0.113756776,-0.18562102,-0.51796603,-0.78293264,-0.8892388,-0.83534837,-0.70959365,-0.6092788,-0.5913358,-0.6317382,-0.6781627,-0.6961057,-0.6901145,-0.6751517,-0.660189,-0.64522624,-0.63026345,-0.6122897,-0.60479295,-0.60479295,-0.6003072,-0.58534455,-0.5718565,-0.55689377,-0.552408,-0.54641676,-0.5344343,-0.520977,-0.5134803,-0.5134803,-0.5105001,-0.50300336,-0.4925263,-0.48054385,-0.47157234,-0.46109533,-0.4446271,-0.4251479,-0.40720487,-0.39970815,-0.39221144,-0.37875414,-0.36379147,-0.34879798,-0.33085495,-0.30688995,-0.27994472,-0.25450498,-0.23355097,-0.22307402,-0.20958596,-0.18562102,-0.15720105,-0.12573934,-0.10029966,-0.07636535,-0.04942006,-0.025455117,-0.0014901757,0.017958403,0.038912296,0.0628773,0.079345584,0.08831704,0.08831704,0.08982253,0.10029948,0.11077654,0.113756776,0.11077654,0.10180497,0.08681154,0.05839157,0.013472676,-0.043428898,-0.103310645,-0.16168684,-0.22454876,-0.29939324,-0.38622016,-0.46558106,-0.5329288,-0.594316,-0.64372075,-0.69162,-0.7365389,-0.7634841,-0.7814579,-0.79642063,-0.8039174,-0.8039174,-0.7979261,-0.79193485,-0.79042935,-0.79491514,-0.7979261,-0.79042935,-0.7814579,-0.77245563,-0.7634841,-0.75451267,-0.74403566,-0.7365389,-0.7350334,-0.7380444,-0.7335279,-0.72157615,-0.70808816,-0.7006222,-0.7006222,-0.70209694,-0.7006222,-0.6976112,-0.6946309,-0.6961057,-0.6931254,-0.68562865,-0.6766572,-0.67367697,-0.6751517,-0.681143,-0.6826485,-0.67963743,-0.6781627,-0.6751517,-0.6661802,-0.6586835,-0.6557032,-0.6586835,-0.6676857,-0.6691605,-0.66169447,-0.65121746,-0.65121746,-0.6586835,-0.6646747,-0.6661802,-0.6661802,-0.6661802,-0.6676857,-0.6646747,-0.6557032,-0.64522624,-0.64522624,-0.6526922,-0.66316926,-0.660189,-0.6482065,-0.6407405,-0.63923496,-0.63923496,-0.64221525,-0.64221525,-0.64372075,-0.646701,-0.646701,-0.6407405,-0.636224,-0.63324374,-0.63772947,-0.63772947,-0.636224,-0.63474923,-0.63474923,-0.63923496,-0.636224,-0.6317382,-0.6242722,-0.62276673,-0.62875795,-0.636224,-0.636224,-0.636224,-0.6317382,-0.62725246,-0.61975574,-0.6107843,-0.60629845,-0.60479295,-0.60479295,-0.6003072,-0.58685005,-0.5793533,-0.5793533,-0.58685005,-0.5928105,-0.5883248,-0.5793533,-0.5718565,-0.573362,-0.5793533,-0.58085877,-0.5763423,-0.56887627,-0.5509025,-0.51796603,-0.46856135,-0.4206621,-0.38323987,-0.36978263,-0.36526614,-0.3443122,-0.29939324,-0.25001925,-0.22006303,-0.21557724,-0.23204547,-0.24700826,-0.24851376,-0.24252248,-0.24700826,-0.28744143,-0.37125736,-0.4895153,-0.6167755,-0.71257395,-0.7634841,-0.7769414,-0.77245563,-0.7634841,-0.75451267,-0.74253017,-0.73205316,-0.72455645,-0.72455645,-0.72305095,-0.71558493,-0.70808816,-0.70209694,-0.6961057,-0.6931254,-0.68562865,-0.6826485,-0.6781627,-0.66316926,-0.6407405,-0.60629845,-0.5493971,-0.4191566,-0.19013757,0.13173056,0.4910208,0.7200707,0.74400496,0.62875795,0.42364228,0.19462323,-0.041923404,-0.32037795,-0.6032875,-0.79193485,-0.8173746,-0.72455645,-0.6107843,-0.552408,-0.56288505,-0.6032875,-0.6317382,-0.6407405,-0.63772947,-0.62126124,-0.6032875,-0.5928105,-0.58685005,-0.5883248,-0.58534455,-0.56887627,-0.54792225,-0.5344343,-0.5284431,-0.52696824,-0.51796603,-0.5074891,-0.49701208,-0.4910208,-0.48653507,-0.47605807,-0.46558106,-0.45660955,-0.4506184,-0.44760734,-0.4386359,-0.4251479,-0.4116906,-0.39522237,-0.37875414,-0.36078048,-0.3458177,-0.33832097,-0.33085495,-0.31137568,-0.28295577,-0.25597978,-0.23653126,-0.23053998,-0.22454876,-0.20958596,-0.18562102,-0.16018134,-0.13173056,-0.103310645,-0.07037407,-0.04041791,-0.016483605,0.0029956102,0.022444129,0.050894856,0.07784009,0.10327983,0.11827326,0.13173056,0.143713,0.15268457,0.15717018,0.15867567,0.1661725,0.17216372,0.17065823,0.15268457,0.113756776,0.0628773,0.010461688,-0.053905845,-0.12724477,-0.20958596,-0.29343265,-0.36677164,-0.4341501,-0.49550658,-0.55839926,-0.6107843,-0.64971197,-0.681143,-0.70360243,-0.72157615,-0.73205316,-0.73205316,-0.7365389,-0.74403566,-0.7499962,-0.7455104,-0.73054767,-0.71407944,-0.70808816,-0.71257395,-0.71257395,-0.6976112,-0.6826485,-0.6691605,-0.6691605,-0.6661802,-0.6586835,-0.64522624,-0.63923496,-0.646701,-0.6557032,-0.6572087,-0.6526922,-0.6482065,-0.6526922,-0.6572087,-0.6572087,-0.6541977,-0.64971197,-0.6557032,-0.66316926,-0.6661802,-0.6661802,-0.66316926,-0.66316926,-0.66316926,-0.66169447,-0.6661802,-0.6766572,-0.6931254,-0.70808816,-0.71558493,-0.7170904,-0.7170904,-0.72305095,-0.72606194,-0.73054767,-0.74253017,-0.7589984,-0.7754666,-0.7814579,-0.7784469,-0.7664644,-0.7574929,-0.7619786,-0.7664644,-0.7649896,-0.7649896,-0.7679699,-0.77245563,-0.7754666,-0.77245563,-0.7649896,-0.7605039,-0.7619786,-0.7605039,-0.7530072,-0.74253017,-0.7395191,-0.74403566,-0.74253017,-0.7350334,-0.72455645,-0.7200707,-0.72305095,-0.7290422,-0.72305095,-0.71558493,-0.70360243,-0.6961057,-0.68562865,-0.67367697,-0.6676857,-0.670666,-0.6826485,-0.68562865,-0.6781627,-0.6661802,-0.6586835,-0.66169447,-0.66169447,-0.6482065,-0.63026345,-0.6107843,-0.60629845,-0.6032875,-0.597327,-0.597327,-0.60780394,-0.62574697,-0.6407405,-0.64522624,-0.63324374,-0.61975574,-0.6167755,-0.60780394,-0.594316,-0.56439054,-0.5194715,-0.46856135,-0.4206621,-0.38622016,-0.37276286,-0.37426835,-0.36677164,-0.33085495,-0.26796228,-0.21407175,-0.19161224,-0.20208925,-0.22006303,-0.22006303,-0.20208925,-0.20061451,-0.251494,-0.35331434,-0.48804057,-0.6137952,-0.70209694,-0.7455104,-0.7470159,-0.72455645,-0.6991167,-0.6826485,-0.67963743,-0.6826485,-0.684154,-0.6826485,-0.6781627,-0.67963743,-0.6751517,-0.6676857,-0.66169447,-0.6572087,-0.6572087,-0.6526922,-0.63772947,-0.60479295,-0.5778478,-0.55839926,-0.5224518,-0.40268838,-0.15720105,0.18712652,0.56137943,0.8009064,0.84880555,0.76796985,0.58983016,0.34581757,0.05240035,-0.30240422,-0.64372075,-0.8488056,-0.8607881,-0.7335279,-0.5778478,-0.4910208,-0.50002307,-0.56288505,-0.62126124,-0.64372075,-0.6317382,-0.6137952,-0.6003072,-0.5883248,-0.5793533,-0.5673708,-0.55987406,-0.55987406,-0.5493971,-0.5314541,-0.5089946,-0.49550658,-0.49550658,-0.4910208,-0.48054385,-0.46407562,-0.44911283,-0.4446271,-0.44161612,-0.4326446,-0.4206621,-0.40867966,-0.39970815,-0.38923115,-0.37125736,-0.35180885,-0.33684617,-0.3323297,-0.32185268,-0.30538446,-0.28295577,-0.26347643,-0.25001925,-0.23803675,-0.21407175,-0.18264085,-0.15271527,-0.13624704,-0.12724477,-0.11378753,-0.09430832,-0.065888345,-0.037437618,-0.006006658,0.022444129,0.047914505,0.07184887,0.08982253,0.10927105,0.13474154,0.15867567,0.17065823,0.17216372,0.17363858,0.17664957,0.18113518,0.18562102,0.18264067,0.17962968,0.16915274,0.14970422,0.10629082,0.041923285,-0.03442663,-0.11378753,-0.19161224,-0.27395344,-0.35629463,-0.4311391,-0.50002307,-0.5553883,-0.6003072,-0.64372075,-0.6766572,-0.6991167,-0.71257395,-0.72455645,-0.7380444,-0.74253017,-0.7395191,-0.7290422,-0.71407944,-0.70808816,-0.7006222,-0.6931254,-0.684154,-0.6751517,-0.6691605,-0.66316926,-0.6526922,-0.64221525,-0.63474923,-0.63474923,-0.63772947,-0.636224,-0.63026345,-0.6242722,-0.62276673,-0.618281,-0.61527,-0.6122897,-0.60780394,-0.60780394,-0.6137952,-0.6122897,-0.60629845,-0.60479295,-0.60629845,-0.6092788,-0.6107843,-0.6092788,-0.60780394,-0.6107843,-0.61527,-0.61527,-0.6122897,-0.6122897,-0.6167755,-0.62276673,-0.62276673,-0.62276673,-0.6242722,-0.63026345,-0.63026345,-0.62574697,-0.618281,-0.618281,-0.62725246,-0.63474923,-0.63923496,-0.63772947,-0.636224,-0.63772947,-0.63474923,-0.62574697,-0.6122897,-0.6092788,-0.6167755,-0.62276673,-0.62574697,-0.62126124,-0.61975574,-0.6242722,-0.62725246,-0.6242722,-0.6167755,-0.6137952,-0.62276673,-0.63324374,-0.636224,-0.62875795,-0.62126124,-0.61975574,-0.61975574,-0.618281,-0.618281,-0.62126124,-0.62725246,-0.63026345,-0.62725246,-0.618281,-0.61527,-0.6167755,-0.6137952,-0.6018127,-0.58233356,-0.56288505,-0.54641676,-0.5224518,-0.4910208,-0.46558106,-0.44760734,-0.4326446,-0.40268838,-0.3443122,-0.27244794,-0.22307402,-0.21708274,-0.23954225,-0.25899076,-0.25450498,-0.24700826,-0.25748527,-0.32037795,-0.42963362,-0.56137955,-0.6766572,-0.74852145,-0.7709809,-0.7574929,-0.73054767,-0.71257395,-0.70959365,-0.70658267,-0.7006222,-0.69162,-0.684154,-0.68713415,-0.6901145,-0.68562865,-0.6751517,-0.6646747,-0.66316926,-0.66169447,-0.6572087,-0.64221525,-0.61527,-0.5898303,-0.5718565,-0.54193103,-0.44911283,-0.25597978,0.03442657,0.37875414,0.6212611,0.6916199,0.63471854,0.48653495,0.27395344,0.016452909,-0.30538446,-0.63772947,-0.8547968,-0.8817421,-0.7649896,-0.6107843,-0.51796603,-0.5149858,-0.55987406,-0.6018127,-0.6107843,-0.6003072,-0.5883248,-0.5763423,-0.5673708,-0.55839926,-0.5493971,-0.54491127,-0.5344343,-0.51646054,-0.50002307,-0.49550658,-0.50002307,-0.50300336,-0.49851757,-0.48054385,-0.46407562,-0.45808434,-0.45359862,-0.44760734,-0.4356249,-0.4236731,-0.41617638,-0.40867966,-0.39522237,-0.37724864,-0.36379147,-0.35629463,-0.34732318,-0.33534068,-0.31586146,-0.29641294,-0.28443044,-0.27097315,-0.25597978,-0.23502576,-0.21407175,-0.19910902,-0.17815506,-0.15419006,-0.122759044,-0.09430832,-0.07485986,-0.053905845,-0.02843535,0.0029956102,0.032921076,0.056886077,0.07784009,0.09581375,0.11228204,0.12125349,0.122758985,0.13173056,0.14819872,0.16764724,0.17664957,0.17216372,0.15717018,0.1422075,0.122758985,0.091328025,0.043398023,-0.017958403,-0.085336864,-0.15867585,-0.23803675,-0.32486367,-0.40419388,-0.47455257,-0.5314541,-0.58233356,-0.6317382,-0.670666,-0.6961057,-0.71257395,-0.72305095,-0.7350334,-0.7395191,-0.7350334,-0.72455645,-0.7185652,-0.7185652,-0.72157615,-0.7200707,-0.70808816,-0.6991167,-0.6946309,-0.69162,-0.68562865,-0.6751517,-0.6676857,-0.6646747,-0.66169447,-0.6572087,-0.646701,-0.63923496,-0.63474923,-0.636224,-0.6317382,-0.62276673,-0.618281,-0.6167755,-0.6167755,-0.6122897,-0.6092788,-0.6092788,-0.6167755,-0.62126124,-0.62276673,-0.61527,-0.6122897,-0.6137952,-0.6122897,-0.60629845,-0.6003072,-0.59880173,-0.6092788,-0.62276673,-0.62574697,-0.61975574,-0.6122897,-0.6122897,-0.61527,-0.62126124,-0.62276673,-0.6242722,-0.62875795,-0.62875795,-0.62725246,-0.62126124,-0.62276673,-0.63026345,-0.636224,-0.636224,-0.62574697,-0.61975574,-0.62126124,-0.62126124,-0.62126124,-0.6167755,-0.6167755,-0.62126124,-0.62574697,-0.6242722,-0.618281,-0.6122897,-0.6167755,-0.62126124,-0.6242722,-0.62126124,-0.6167755,-0.618281,-0.618281,-0.61975574,-0.618281,-0.61527,-0.6107843,-0.597327,-0.5673708,-0.5254628,-0.48653507,-0.46558106,-0.45808434,-0.44760734,-0.4206621,-0.37276286,-0.32185268,-0.28443044,-0.27244794,-0.27696443,-0.29042166,-0.29641294,-0.29490745,-0.30538446,-0.35030347,-0.44161612,-0.56887627,-0.68562865,-0.7694754,-0.8084031,-0.8173746,-0.8098779,-0.79491514,-0.7784469,-0.7679699,-0.7634841,-0.7664644,-0.7664644,-0.7589984,-0.7470159,-0.7410247,-0.7455104,-0.7499962,-0.74852145,-0.7395191,-0.73054767,-0.72455645,-0.71257395,-0.69162,-0.6721715,-0.646701,-0.5778478,-0.40268838,-0.109301805,0.27094245,0.6227666,0.7919041,0.7964206,0.69312537,0.5059835,0.25597978,-0.06736308,-0.4371304,-0.7470159,-0.89074427,-0.8607881,-0.74253017,-0.636224,-0.5928105,-0.60629845,-0.64372075,-0.6721715,-0.67963743,-0.6691605,-0.64971197,-0.63923496,-0.63923496,-0.63923496,-0.63324374,-0.62276673,-0.61527,-0.6107843,-0.6018127,-0.5883248,-0.5673708,-0.55391353,-0.5493971,-0.5493971,-0.54193103,-0.5254628,-0.5119748,-0.50450885,-0.49550658,-0.48502958,-0.46856135,-0.45359862,-0.4446271,-0.4386359,-0.4266534,-0.40419388,-0.38772565,-0.37426835,-0.36078048,-0.3443122,-0.32037795,-0.29791844,-0.27994472,-0.26197094,-0.23954225,-0.20958596,-0.18712652,-0.17065829,-0.15419006,-0.13173056,-0.10029966,-0.06886858,-0.04041791,-0.014978111,0.011967182,0.041923285,0.06585753,0.082325816,0.09728849,0.11228204,0.13323605,0.14669323,0.15419006,0.15419006,0.15120971,0.14970422,0.13922715,0.119748,0.09280288,0.056886077,0.008986831,-0.055380642,-0.13922733,-0.22755975,-0.31887245,-0.4012136,-0.48204935,-0.55689377,-0.62276673,-0.67367697,-0.70959365,-0.7410247,-0.7664644,-0.7814579,-0.7874491,-0.7859436,-0.7874491,-0.79340965,-0.79642063,-0.79491514,-0.7814579,-0.7709809,-0.7679699,-0.7679699,-0.7649896,-0.7574929,-0.7515017,-0.7499962,-0.74403566,-0.7365389,-0.72606194,-0.7185652,-0.72157615,-0.72305095,-0.71558493,-0.7006222,-0.6901145,-0.68562865,-0.68562865,-0.684154,-0.6751517,-0.6691605,-0.670666,-0.67367697,-0.6751517,-0.670666,-0.6646747,-0.660189,-0.660189,-0.66316926,-0.66169447,-0.6676857,-0.6721715,-0.67367697,-0.670666,-0.6646747,-0.6646747,-0.67367697,-0.6826485,-0.6826485,-0.670666,-0.6661802,-0.6676857,-0.670666,-0.670666,-0.6586835,-0.6541977,-0.6586835,-0.6691605,-0.67963743,-0.67963743,-0.6766572,-0.6766572,-0.67367697,-0.670666,-0.6586835,-0.64971197,-0.64522624,-0.64522624,-0.64372075,-0.64221525,-0.63923496,-0.6407405,-0.64372075,-0.64372075,-0.63772947,-0.6317382,-0.63474923,-0.63923496,-0.646701,-0.6482065,-0.646701,-0.64522624,-0.64221525,-0.63474923,-0.62276673,-0.618281,-0.6167755,-0.61527,-0.61527,-0.6092788,-0.6107843,-0.6122897,-0.6122897,-0.597327,-0.56439054,-0.5224518,-0.4790383,-0.44161612,-0.41768187,-0.39221144,-0.36379147,-0.32486367,-0.27696443,-0.24402797,-0.23204547,-0.24700826,-0.26946777,-0.2814502,-0.27395344,-0.26796228,-0.29490745,-0.36978263,-0.47756356,-0.5928105,-0.68562865,-0.7455104,-0.7769414,-0.7799524,-0.7634841,-0.7410247,-0.72606194,-0.72606194,-0.7290422,-0.7290422,-0.7185652,-0.71109915,-0.70658267,-0.7006222,-0.6946309,-0.681143,-0.6721715,-0.67367697,-0.6751517,-0.6661802,-0.63923496,-0.6137952,-0.58233356,-0.51646054,-0.36379147,-0.09879416,0.2485137,0.59880173,0.7949151,0.80539215,0.6946002,0.4925263,0.25447428,-0.008986831,-0.31586146,-0.59880173,-0.7739611,-0.79340965,-0.70209694,-0.5913358,-0.5344343,-0.5434365,-0.5883248,-0.62276673,-0.62875795,-0.6137952,-0.5958215,-0.5883248,-0.58685005,-0.58233356,-0.57038176,-0.55689377,-0.54641676,-0.53892004,-0.52696824,-0.5089946,-0.4940318,-0.48653507,-0.48054385,-0.47455257,-0.46407562,-0.45660955,-0.45359862,-0.45209312,-0.44911283,-0.4341501,-0.4206621,-0.40867966,-0.39820266,-0.38923115,-0.37574315,-0.36379147,-0.34879798,-0.33534068,-0.31736696,-0.29490745,-0.27545893,-0.26197094,-0.24550277,-0.22605425,-0.20359474,-0.17815506,-0.15867585,-0.14220756,-0.122759044,-0.09581387,-0.06886858,-0.04640913,-0.02096945,0.0045011044,0.037406802,0.06438279,0.08681154,0.10629082,0.12573922,0.15120971,0.1661725,0.16915274,0.16764724,0.1661725,0.17514408,0.18113518,0.17664957,0.16168666,0.13474154,0.09879398,0.049389362,-0.014978111,-0.091328025,-0.16915274,-0.24402797,-0.32335818,-0.40569937,-0.48355484,-0.5509025,-0.5958215,-0.63474923,-0.67367697,-0.70808816,-0.7365389,-0.7515017,-0.7589984,-0.7605039,-0.7619786,-0.7574929,-0.74403566,-0.7365389,-0.7335279,-0.7365389,-0.7380444,-0.73054767,-0.7200707,-0.71558493,-0.70959365,-0.7006222,-0.6901145,-0.6826485,-0.681143,-0.67963743,-0.6781627,-0.6691605,-0.66316926,-0.66316926,-0.6661802,-0.6661802,-0.6586835,-0.64971197,-0.64372075,-0.6407405,-0.6407405,-0.63923496,-0.6407405,-0.6482065,-0.6541977,-0.6541977,-0.646701,-0.64372075,-0.64522624,-0.6541977,-0.660189,-0.6586835,-0.6572087,-0.6586835,-0.6586835,-0.6572087,-0.6557032,-0.6572087,-0.6646747,-0.6721715,-0.6721715,-0.6661802,-0.66169447,-0.66316926,-0.6661802,-0.6661802,-0.6586835,-0.64971197,-0.65121746,-0.65121746,-0.6526922,-0.64971197,-0.6482065,-0.6482065,-0.64971197,-0.64522624,-0.63923496,-0.636224,-0.63923496,-0.64372075,-0.64221525,-0.636224,-0.636224,-0.64522624,-0.6541977,-0.6557032,-0.64372075,-0.63324374,-0.6317382,-0.63772947,-0.64522624,-0.6482065,-0.6482065,-0.6482065,-0.64522624,-0.6407405,-0.636224,-0.636224,-0.646701,-0.6557032,-0.6557032,-0.6482065,-0.6407405,-0.63772947,-0.6407405,-0.64522624,-0.64372075,-0.64221525,-0.64522624,-0.64522624,-0.64221525,-0.63474923,-0.6317382,-0.6317382,-0.63324374,-0.636224,-0.62875795,-0.62574697,-0.62574697,-0.62574697,-0.6242722,-0.6137952,-0.6003072,-0.58085877,-0.5509025,-0.5134803,-0.47304714,-0.45209312,-0.44760734,-0.44014138,-0.4101851,-0.34879798,-0.28744143,-0.25299948,-0.25001925,-0.26796228,-0.2814502,-0.28443044,-0.28295577,-0.30390966,-0.35331434,-0.4371304,-0.5509025,-0.6676857,-0.7574929,-0.8039174,-0.8039174,-0.78293264,-0.7619786,-0.74852145,-0.7470159,-0.74403566,-0.74403566,-0.7470159,-0.74852145,-0.74852145,-0.74253017,-0.7395191,-0.7365389,-0.7350334,-0.73205316,-0.72455645,-0.72455645,-0.72157615,-0.71109915,-0.6961057,-0.6721715,-0.61527,-0.47006685,-0.20660573,0.16168666,0.552408,0.7859436,0.83083177,0.7425302,0.55538833,0.3053844,-0.010492325,-0.39970815,-0.7589984,-0.95658654,-0.9491205,-0.81439435,-0.6781627,-0.61975574,-0.6317382,-0.6721715,-0.7006222,-0.70658267,-0.6991167,-0.68562865,-0.6691605,-0.6586835,-0.6541977,-0.65121746,-0.64372075,-0.63474923,-0.6242722,-0.61975574,-0.61527,-0.60780394,-0.5913358,-0.5793533,-0.5748675,-0.5658653,-0.55391353,-0.5344343,-0.5194715,-0.5149858,-0.5134803,-0.5059836,-0.4895153,-0.47304714,-0.46407562,-0.45660955,-0.4446271,-0.4266534,-0.40867966,-0.39672786,-0.38772565,-0.37125736,-0.3428067,-0.31736696,-0.29641294,-0.28295577,-0.26498199,-0.23803675,-0.21256626,-0.18863207,-0.16466707,-0.14371306,-0.11378753,-0.082325876,-0.04942006,-0.019463897,0.010461688,0.04041779,0.05986631,0.070343375,0.082325816,0.09280288,0.10629082,0.116767764,0.12423372,0.1287502,0.13474154,0.13922715,0.12573922,0.09581375,0.05240035,0.0014901161,-0.050894856,-0.11077654,-0.18712652,-0.27395344,-0.36078048,-0.4386359,-0.5089946,-0.57038176,-0.62725246,-0.6781627,-0.7185652,-0.7515017,-0.7769414,-0.79642063,-0.8084031,-0.80539215,-0.7979261,-0.7979261,-0.7979261,-0.79491514,-0.7859436,-0.7754666,-0.77245563,-0.7754666,-0.7754666,-0.7619786,-0.74253017,-0.7200707,-0.70808816,-0.7006222,-0.69162,-0.68863964,-0.68713415,-0.68863964,-0.6931254,-0.68562865,-0.6766572,-0.6721715,-0.6721715,-0.6721715,-0.67367697,-0.6766572,-0.6766572,-0.67963743,-0.6766572,-0.6751517,-0.67367697,-0.681143,-0.68713415,-0.6901145,-0.6826485,-0.6766572,-0.6721715,-0.67367697,-0.67367697,-0.6721715,-0.67367697,-0.681143,-0.68713415,-0.68713415,-0.67963743,-0.67367697,-0.6721715,-0.6766572,-0.6781627,-0.6691605,-0.66316926,-0.66316926,-0.670666,-0.6826485,-0.68863964,-0.69162,-0.6961057,-0.6976112,-0.69162,-0.6826485,-0.6781627,-0.6781627,-0.681143,-0.681143,-0.6721715,-0.66169447,-0.660189,-0.6646747,-0.670666,-0.670666,-0.6661802,-0.660189,-0.6557032,-0.64971197,-0.64221525,-0.63772947,-0.63923496,-0.6407405,-0.646701,-0.64522624,-0.64522624,-0.64522624,-0.64221525,-0.63772947,-0.6317382,-0.63324374,-0.63772947,-0.646701,-0.6482065,-0.63772947,-0.62725246,-0.62126124,-0.618281,-0.618281,-0.6122897,-0.6092788,-0.6167755,-0.62574697,-0.6317382,-0.62725246,-0.61975574,-0.6107843,-0.6018127,-0.58085877,-0.54042554,-0.49851757,-0.46708655,-0.46109533,-0.45808434,-0.4356249,-0.38772565,-0.32784396,-0.28593594,-0.27244794,-0.2814502,-0.29791844,-0.30538446,-0.30240422,-0.30089873,-0.33383518,-0.40569937,-0.5134803,-0.6317382,-0.72606194,-0.7739611,-0.78892386,-0.78293264,-0.7739611,-0.7649896,-0.7559874,-0.7499962,-0.74403566,-0.74403566,-0.7410247,-0.7380444,-0.7350334,-0.7335279,-0.7365389,-0.7350334,-0.72606194,-0.7185652,-0.7170904,-0.7170904,-0.70808816,-0.684154,-0.660189,-0.64372075,-0.6018127,-0.47605807,-0.23954225,0.08831704,0.40569925,0.5628849,0.57483673,0.4895153,0.3263384,0.10478532,-0.18414623,-0.52696824,-0.81439435,-0.9401183,-0.89523005,-0.7589984,-0.6317382,-0.5778478,-0.594316,-0.6407405,-0.6781627,-0.68863964,-0.6721715,-0.6526922,-0.63923496,-0.63474923,-0.62574697,-0.6122897,-0.6018127,-0.5958215,-0.597327,-0.5928105,-0.5778478,-0.56288505,-0.55391353,-0.5509025,-0.54641676,-0.5344343,-0.520977,-0.5119748,-0.5105001,-0.5059836,-0.4895153,-0.47157234,-0.45660955,-0.44610184,-0.4356249,-0.4191566,-0.40419388,-0.39522237,-0.38474536,-0.36827713,-0.3443122,-0.32185268,-0.30839545,-0.30240422,-0.29042166,-0.26498199,-0.23653126,-0.20958596,-0.18863207,-0.16767806,-0.14073282,-0.11378753,-0.08684236,-0.065888345,-0.043428898,-0.010492325,0.017958403,0.04041779,0.05387509,0.05986631,0.070343375,0.08082032,0.08831704,0.09430826,0.10180497,0.11228204,0.113756776,0.10029948,0.07335436,0.04041779,0.0059758425,-0.038912416,-0.09879416,-0.17664957,-0.25748527,-0.33085495,-0.40419388,-0.47605807,-0.5509025,-0.618281,-0.670666,-0.70808816,-0.7350334,-0.7589984,-0.7754666,-0.7874491,-0.79940087,-0.81138337,-0.8203549,-0.8203549,-0.81138337,-0.7979261,-0.7859436,-0.78293264,-0.7754666,-0.7634841,-0.75451267,-0.7499962,-0.7470159,-0.74253017,-0.73205316,-0.72305095,-0.72157615,-0.72455645,-0.72455645,-0.7200707,-0.71257395,-0.70658267,-0.70209694,-0.6991167,-0.69162,-0.68562865,-0.67963743,-0.6766572,-0.67367697,-0.6676857,-0.670666,-0.6781627,-0.684154,-0.6826485,-0.67367697,-0.6661802,-0.66316926,-0.6691605,-0.67367697,-0.670666,-0.670666,-0.67367697,-0.6781627,-0.6826485,-0.6781627,-0.6721715,-0.6676857,-0.6751517,-0.6826485,-0.6826485,-0.6826485,-0.6826485,-0.6826485,-0.6781627,-0.6661802,-0.6586835,-0.6557032,-0.66316926,-0.6691605,-0.6676857,-0.660189,-0.6586835,-0.660189,-0.66169447,-0.66169447,-0.660189,-0.6646747,-0.670666,-0.6721715,-0.6646747,-0.6586835,-0.6586835,-0.6661802,-0.670666,-0.6661802,-0.6572087,-0.65121746,-0.6557032,-0.6557032,-0.6557032,-0.6541977,-0.6572087,-0.6676857,-0.6751517,-0.67367697,-0.6661802,-0.6572087,-0.65121746,-0.64522624,-0.636224,-0.6317382,-0.63474923,-0.64372075,-0.65121746,-0.65121746,-0.646701,-0.6407405,-0.6407405,-0.636224,-0.6137952,-0.5778478,-0.5374453,-0.50300336,-0.48204935,-0.47304714,-0.45958984,-0.42815888,-0.38173437,-0.32934946,-0.29641294,-0.29641294,-0.32185268,-0.34879798,-0.35180885,-0.3443122,-0.34732318,-0.38622016,-0.46558106,-0.56439054,-0.6586835,-0.7395191,-0.79491514,-0.8278516,-0.8368231,-0.8278516,-0.8098779,-0.80090636,-0.8024119,-0.80539215,-0.8039174,-0.79940087,-0.79340965,-0.79193485,-0.7859436,-0.7739611,-0.7649896,-0.7589984,-0.7574929,-0.7574929,-0.7499962,-0.7335279,-0.7170904,-0.70360243,-0.6586835,-0.5299486,-0.28295577,0.061371803,0.44161606,0.7110684,0.7934096,0.7335279,0.56586516,0.33534062,0.06438279,-0.26197094,-0.58383906,-0.8098779,-0.88023657,-0.81439435,-0.71257395,-0.6526922,-0.6557032,-0.6931254,-0.72305095,-0.72305095,-0.71109915,-0.6976112,-0.6931254,-0.68562865,-0.6766572,-0.66316926,-0.6526922,-0.646701,-0.636224,-0.62126124,-0.60780394,-0.6003072,-0.6003072,-0.594316,-0.58233356,-0.5718565,-0.56288505,-0.56137955,-0.55839926,-0.54641676,-0.5329288,-0.51796603,-0.5074891,-0.49550658,-0.47756356,-0.46257013,-0.44760734,-0.4386359,-0.4311391,-0.4131961,-0.39820266,-0.38173437,-0.36978263,-0.35030347,-0.32784396,-0.30839545,-0.28744143,-0.27097315,-0.24700826,-0.21407175,-0.18264085,-0.16168684,-0.14819878,-0.12875026,-0.09879416,-0.06438285,-0.03295183,-0.0074813366,0.008986831,0.025455117,0.04041779,0.05240035,0.06585753,0.07784009,0.091328025,0.09879398,0.09728849,0.08831704,0.07485986,0.056886077,0.025455117,-0.023949623,-0.08831704,-0.15867585,-0.22903448,-0.30390966,-0.38474536,-0.46856135,-0.5434365,-0.6032875,-0.6526922,-0.6991167,-0.7410247,-0.77245563,-0.78892386,-0.79340965,-0.79940087,-0.8039174,-0.8084031,-0.80689764,-0.8039174,-0.8039174,-0.80689764,-0.8024119,-0.79193485,-0.7799524,-0.77245563,-0.7709809,-0.7709809,-0.7664644,-0.7619786,-0.7605039,-0.7605039,-0.7574929,-0.7455104,-0.7290422,-0.7200707,-0.7170904,-0.71558493,-0.71109915,-0.70360243,-0.6961057,-0.6946309,-0.6946309,-0.69162,-0.68562865,-0.6826485,-0.67963743,-0.6781627,-0.6781627,-0.6721715,-0.6721715,-0.6766572,-0.6781627,-0.6781627,-0.6781627,-0.681143,-0.69162,-0.6991167,-0.7006222,-0.6976112,-0.69162,-0.6931254,-0.6961057,-0.6961057,-0.6976112,-0.6991167,-0.7051079,-0.70959365,-0.70959365,-0.7051079,-0.7006222,-0.7006222,-0.6946309,-0.68863964,-0.684154,-0.6826485,-0.6901145,-0.6946309,-0.6931254,-0.69162,-0.69162,-0.6946309,-0.69162,-0.6826485,-0.6751517,-0.6781627,-0.68863964,-0.6946309,-0.68863964,-0.6751517,-0.660189,-0.660189,-0.6661802,-0.6691605,-0.6721715,-0.6721715,-0.6721715,-0.6691605,-0.6661802,-0.660189,-0.66169447,-0.670666,-0.6766572,-0.6766572,-0.6721715,-0.660189,-0.6572087,-0.6541977,-0.65121746,-0.6526922,-0.6586835,-0.6646747,-0.6646747,-0.6541977,-0.63923496,-0.63324374,-0.636224,-0.646701,-0.65121746,-0.64971197,-0.64971197,-0.6541977,-0.6541977,-0.65121746,-0.646701,-0.646701,-0.6541977,-0.6572087,-0.6541977,-0.6482065,-0.646701,-0.6526922,-0.660189,-0.6586835,-0.6526922,-0.64522624,-0.6407405,-0.63474923,-0.6242722,-0.6018127,-0.5763423,-0.5434365,-0.50450885,-0.47157234,-0.44760734,-0.42963362,-0.40419388,-0.35478914,-0.29791844,-0.25748527,-0.25597978,-0.28593594,-0.32037795,-0.3323297,-0.32486367,-0.32185268,-0.35180885,-0.41617638,-0.5089946,-0.6137952,-0.70959365,-0.7799524,-0.81586915,-0.8188801,-0.8039174,-0.78892386,-0.7874491,-0.79042935,-0.7874491,-0.7769414,-0.7679699,-0.7649896,-0.7634841,-0.7619786,-0.7574929,-0.7515017,-0.7499962,-0.7470159,-0.7410247,-0.73054767,-0.71407944,-0.6931254,-0.6781627,-0.646701,-0.55987406,-0.36677164,-0.065888345,0.3068899,0.6302327,0.7559874,0.70658267,0.5404254,0.3128811,0.07485986,-0.19462323,-0.4925263,-0.74253017,-0.8503111,-0.80539215,-0.6901145,-0.6018127,-0.5898303,-0.6317382,-0.6766572,-0.6946309,-0.68863964,-0.6781627,-0.6676857,-0.6557032,-0.64522624,-0.63772947,-0.6317382,-0.61975574,-0.6032875,-0.5883248,-0.58085877,-0.58233356,-0.58085877,-0.56887627,-0.552408,-0.54193103,-0.53892004,-0.53892004,-0.5359398,-0.52696824,-0.5134803,-0.50300336,-0.4895153,-0.47006685,-0.45808434,-0.45209312,-0.45209312,-0.44911283,-0.4371304,-0.41617638,-0.39221144,-0.37276286,-0.35629463,-0.33684617,-0.31887245,-0.29939324,-0.28744143,-0.26946777,-0.25001925,-0.22903448,-0.20808053,-0.18712652,-0.16018134,-0.12573934,-0.09430832,-0.06886858,-0.04942006,-0.029940844,-0.0029956698,0.029940844,0.05387509,0.06886852,0.08082032,0.08982253,0.10029948,0.10629082,0.10779631,0.10927105,0.113756776,0.11077654,0.09280288,0.05240035,-0.0029956698,-0.06287736,-0.12426454,-0.19161224,-0.27097315,-0.35478914,-0.4341501,-0.5089946,-0.5778478,-0.64221525,-0.6931254,-0.7290422,-0.7499962,-0.7694754,-0.78892386,-0.79940087,-0.8024119,-0.7979261,-0.79491514,-0.79940087,-0.80090636,-0.79340965,-0.7814579,-0.7709809,-0.7664644,-0.7649896,-0.7605039,-0.7559874,-0.7530072,-0.7499962,-0.7455104,-0.7350334,-0.72455645,-0.72455645,-0.7290422,-0.7290422,-0.72606194,-0.7200707,-0.71558493,-0.71558493,-0.71407944,-0.70360243,-0.6961057,-0.6931254,-0.6931254,-0.6946309,-0.6901145,-0.6826485,-0.6766572,-0.67963743,-0.6826485,-0.681143,-0.681143,-0.68713415,-0.6991167,-0.71257395,-0.7185652,-0.7170904,-0.71407944,-0.7170904,-0.7200707,-0.7170904,-0.70808816,-0.7006222,-0.7006222,-0.70360243,-0.71109915,-0.71109915,-0.71109915,-0.71257395,-0.71257395,-0.71257395,-0.71109915,-0.71109915,-0.71109915,-0.70658267,-0.6991167,-0.6901145,-0.68863964,-0.6901145,-0.6946309,-0.6961057,-0.6931254,-0.68863964,-0.68863964,-0.684154,-0.681143,-0.67963743,-0.67963743,-0.681143,-0.67367697,-0.66316926,-0.6526922,-0.65121746,-0.6557032,-0.660189,-0.66169447,-0.6572087,-0.6572087,-0.6586835,-0.6572087,-0.6482065,-0.63772947,-0.63324374,-0.63923496,-0.64971197,-0.64971197,-0.64372075,-0.63324374,-0.63026345,-0.6317382,-0.63772947,-0.63923496,-0.6407405,-0.64221525,-0.6407405,-0.6407405,-0.6407405,-0.64522624,-0.6482065,-0.64372075,-0.63923496,-0.6317382,-0.636224,-0.64522624,-0.6526922,-0.6526922,-0.6482065,-0.64522624,-0.64522624,-0.64372075,-0.63772947,-0.63026345,-0.62574697,-0.6317382,-0.62875795,-0.62276673,-0.61975574,-0.62276673,-0.63324374,-0.63923496,-0.63026345,-0.60479295,-0.57038176,-0.5329288,-0.4895153,-0.45359862,-0.42815888,-0.41768187,-0.4012136,-0.35927492,-0.29939324,-0.24851376,-0.23204547,-0.25001925,-0.28295577,-0.29791844,-0.29192716,-0.29641294,-0.33085495,-0.40268838,-0.50002307,-0.60780394,-0.70658267,-0.78443813,-0.8293571,-0.8413396,-0.8263461,-0.80689764,-0.79642063,-0.79193485,-0.79042935,-0.7859436,-0.7784469,-0.7754666,-0.7709809,-0.7664644,-0.7574929,-0.7470159,-0.74403566,-0.7395191,-0.7365389,-0.7290422,-0.70658267,-0.68562865,-0.6661802,-0.63026345,-0.5284431,-0.31288117,0.014978051,0.4101851,0.7155849,0.8233659,0.76947534,0.594316,0.34581757,0.06438279,-0.27395344,-0.61975574,-0.8607881,-0.9221753,-0.8293571,-0.68713415,-0.6003072,-0.59880173,-0.64522624,-0.68863964,-0.70360243,-0.6946309,-0.681143,-0.6691605,-0.66169447,-0.6572087,-0.65121746,-0.6482065,-0.63923496,-0.62276673,-0.6032875,-0.5883248,-0.58233356,-0.5763423,-0.56887627,-0.55987406,-0.5493971,-0.54641676,-0.54042554,-0.5314541,-0.51796603,-0.50450885,-0.4925263,-0.48355484,-0.46856135,-0.4506184,-0.4356249,-0.4236731,-0.4116906,-0.39970815,-0.38474536,-0.36827713,-0.35331434,-0.33534068,-0.31288117,-0.28744143,-0.26796228,-0.25001925,-0.23204547,-0.21256626,-0.18863207,-0.16767806,-0.14819878,-0.12426454,-0.09581387,-0.065888345,-0.035932124,-0.011967123,0.0029956102,0.017958403,0.037406802,0.05387509,0.07184887,0.091328025,0.11077654,0.12573922,0.13323605,0.13173056,0.12724471,0.122758985,0.11228204,0.08982253,0.050894856,0.0045011044,-0.050894856,-0.11526233,-0.19462323,-0.28744143,-0.37574315,-0.45660955,-0.52696824,-0.5883248,-0.65121746,-0.70209694,-0.7365389,-0.7605039,-0.7784469,-0.79491514,-0.80539215,-0.8039174,-0.79491514,-0.78892386,-0.78892386,-0.78892386,-0.7859436,-0.78293264,-0.7799524,-0.78293264,-0.78293264,-0.7709809,-0.7530072,-0.7410247,-0.7335279,-0.73054767,-0.7290422,-0.72157615,-0.71257395,-0.71109915,-0.70658267,-0.70209694,-0.6976112,-0.6946309,-0.6946309,-0.6946309,-0.6901145,-0.684154,-0.6826485,-0.681143,-0.6781627,-0.6691605,-0.6646747,-0.6676857,-0.6781627,-0.68562865,-0.6826485,-0.6751517,-0.670666,-0.670666,-0.6781627,-0.684154,-0.68562865,-0.6901145,-0.6946309,-0.6961057,-0.68863964,-0.6751517,-0.6691605,-0.6751517,-0.684154,-0.6931254,-0.69162,-0.69162,-0.6961057,-0.6961057,-0.6931254,-0.6826485,-0.67367697,-0.67367697,-0.6751517,-0.67367697,-0.6661802,-0.66316926,-0.6661802,-0.6691605,-0.6721715,-0.670666,-0.6676857,-0.6721715,-0.6721715,-0.6676857,-0.6646747,-0.6661802,-0.6676857,-0.6646747,-0.6572087,-0.646701,-0.6407405,-0.64221525,-0.64372075,-0.6407405,-0.636224,-0.63474923,-0.63474923,-0.63772947,-0.63923496,-0.6407405,-0.646701,-0.646701,-0.63923496,-0.63026345,-0.62276673,-0.6242722,-0.63026345,-0.6317382,-0.6242722,-0.6122897,-0.60780394,-0.6092788,-0.6137952,-0.61527,-0.6122897,-0.6092788,-0.6137952,-0.6167755,-0.6122897,-0.597327,-0.5718565,-0.5359398,-0.50002307,-0.47455257,-0.46109533,-0.45660955,-0.44161612,-0.39970815,-0.3428067,-0.29042166,-0.26648748,-0.27545893,-0.29791844,-0.30990094,-0.30688995,-0.31586146,-0.36228597,-0.4446271,-0.5553883,-0.6646747,-0.74852145,-0.79642063,-0.81138337,-0.80539215,-0.78892386,-0.7799524,-0.7799524,-0.7799524,-0.7754666,-0.7664644,-0.7619786,-0.7649896,-0.7694754,-0.7679699,-0.7619786,-0.7559874,-0.7515017,-0.74852145,-0.7410247,-0.72455645,-0.70209694,-0.6826485,-0.6646747,-0.62126124,-0.49701208,-0.27696443,0.031446338,0.3518089,0.5299485,0.5568938,0.47455263,0.3053844,0.085336804,-0.18863207,-0.5194715,-0.8188801,-0.97305477,-0.94610953,-0.80689764,-0.6676857,-0.60479295,-0.62276673,-0.6721715,-0.70808816,-0.71109915,-0.6976112,-0.681143,-0.6661802,-0.6557032,-0.64221525,-0.63474923,-0.62875795,-0.6242722,-0.618281,-0.6107843,-0.6018127,-0.5958215,-0.58685005,-0.573362,-0.55987406,-0.5493971,-0.5493971,-0.54491127,-0.5374453,-0.5224518,-0.5105001,-0.50002307,-0.4910208,-0.48054385,-0.46407562,-0.4506184,-0.4386359,-0.42815888,-0.41467088,-0.39672786,-0.38474536,-0.36978263,-0.35331434,-0.33085495,-0.29939324,-0.26946777,-0.25299948,-0.23653126,-0.22605425,-0.21109146,-0.19311774,-0.17216378,-0.14371306,-0.11077654,-0.07335436,-0.044903636,-0.023949623,-0.010492325,0.0045011044,0.023949623,0.043398023,0.056886077,0.06585753,0.07485986,0.08383131,0.08982253,0.085336804,0.07784009,0.0628773,0.041923285,0.014978051,-0.03442663,-0.097319365,-0.17065829,-0.24700826,-0.32486367,-0.40720487,-0.48653507,-0.56288505,-0.63026345,-0.6901145,-0.7410247,-0.7814579,-0.81138337,-0.8278516,-0.8383286,-0.8518166,-0.8607881,-0.86527383,-0.8578078,-0.8503111,-0.8458253,-0.8443198,-0.8413396,-0.8293571,-0.8173746,-0.8098779,-0.80539215,-0.8024119,-0.79642063,-0.79193485,-0.78443813,-0.7769414,-0.7634841,-0.7515017,-0.7455104,-0.7499962,-0.75451267,-0.74852145,-0.7350334,-0.72455645,-0.7185652,-0.7170904,-0.7170904,-0.71109915,-0.7051079,-0.7051079,-0.70808816,-0.71109915,-0.71407944,-0.71558493,-0.71109915,-0.70658267,-0.6991167,-0.6946309,-0.6976112,-0.70360243,-0.70658267,-0.70209694,-0.6946309,-0.69162,-0.6961057,-0.70360243,-0.70360243,-0.6946309,-0.68863964,-0.6931254,-0.70209694,-0.70959365,-0.70959365,-0.70658267,-0.7051079,-0.7051079,-0.6991167,-0.69162,-0.684154,-0.6826485,-0.68562865,-0.68713415,-0.6826485,-0.6781627,-0.6781627,-0.681143,-0.684154,-0.68713415,-0.69162,-0.6946309,-0.6901145,-0.67963743,-0.6661802,-0.660189,-0.6646747,-0.670666,-0.6691605,-0.6691605,-0.6676857,-0.670666,-0.67367697,-0.6691605,-0.66169447,-0.6572087,-0.6661802,-0.670666,-0.6691605,-0.66169447,-0.6586835,-0.66169447,-0.6691605,-0.670666,-0.6691605,-0.6691605,-0.67367697,-0.6751517,-0.6751517,-0.6646747,-0.6541977,-0.64221525,-0.61975574,-0.5778478,-0.5329288,-0.49701208,-0.48204935,-0.47455257,-0.4506184,-0.39672786,-0.33684617,-0.30089873,-0.30240422,-0.32185268,-0.33982646,-0.3443122,-0.34133196,-0.3458177,-0.38173437,-0.44760734,-0.54641676,-0.6646747,-0.7694754,-0.8383286,-0.8622936,-0.8563023,-0.8368231,-0.8188801,-0.8039174,-0.79042935,-0.79042935,-0.79642063,-0.7979261,-0.79193485,-0.7769414,-0.7664644,-0.7664644,-0.77245563,-0.7739611,-0.7679699,-0.7574929,-0.7455104,-0.7290422,-0.71257395,-0.6751517,-0.5793533,-0.37724864,-0.07037407,0.29939306,0.60629845,0.7036023,0.6332437,0.45958984,0.23053992,-1.5437603e-05,-0.27395344,-0.5778478,-0.8188801,-0.9131731,-0.8592826,-0.7455104,-0.6691605,-0.66169447,-0.6976112,-0.73205316,-0.7470159,-0.7395191,-0.72756743,-0.71109915,-0.6931254,-0.67963743,-0.6766572,-0.6751517,-0.6676857,-0.65121746,-0.636224,-0.62574697,-0.61975574,-0.6122897,-0.6018127,-0.5913358,-0.58685005,-0.58383906,-0.5793533,-0.55987406,-0.5434365,-0.52696824,-0.5149858,-0.5059836,-0.4925263,-0.48054385,-0.47006685,-0.45958984,-0.44610184,-0.42815888,-0.4116906,-0.39522237,-0.37724864,-0.35478914,-0.32784396,-0.30839545,-0.29939324,-0.29343265,-0.28295577,-0.26049626,-0.23204547,-0.20510024,-0.17664957,-0.14819878,-0.11526233,-0.085336864,-0.06736308,-0.053905845,-0.037437618,-0.014978111,0.010461688,0.03442657,0.05387509,0.07335436,0.085336804,0.09280288,0.09430826,0.09430826,0.09581375,0.09581375,0.085336804,0.05387509,0.008986831,-0.043428898,-0.10180515,-0.16767806,-0.24550277,-0.32636917,-0.40867966,-0.48204935,-0.54792225,-0.6167755,-0.6781627,-0.72756743,-0.7589984,-0.78293264,-0.79940087,-0.81138337,-0.8218603,-0.8233658,-0.8248713,-0.8278516,-0.8308626,-0.8323374,-0.8248713,-0.8173746,-0.81138337,-0.80090636,-0.79042935,-0.7769414,-0.7709809,-0.77245563,-0.7754666,-0.7769414,-0.7679699,-0.7589984,-0.7530072,-0.74852145,-0.7455104,-0.7365389,-0.72756743,-0.72455645,-0.72305095,-0.72305095,-0.7200707,-0.7185652,-0.71558493,-0.70808816,-0.6976112,-0.68863964,-0.68562865,-0.69162,-0.7006222,-0.7006222,-0.6961057,-0.6931254,-0.6946309,-0.6931254,-0.69162,-0.681143,-0.6766572,-0.67963743,-0.681143,-0.6826485,-0.67963743,-0.67963743,-0.6901145,-0.7006222,-0.70360243,-0.6961057,-0.68713415,-0.6826485,-0.684154,-0.68562865,-0.681143,-0.6781627,-0.6766572,-0.6751517,-0.67367697,-0.6721715,-0.67367697,-0.681143,-0.68562865,-0.68562865,-0.67963743,-0.6766572,-0.67963743,-0.6826485,-0.6766572,-0.660189,-0.6482065,-0.64372075,-0.646701,-0.65121746,-0.65121746,-0.6526922,-0.6572087,-0.660189,-0.660189,-0.6541977,-0.6526922,-0.6541977,-0.6541977,-0.6482065,-0.63772947,-0.6317382,-0.62875795,-0.6317382,-0.63324374,-0.62875795,-0.62875795,-0.62875795,-0.63026345,-0.62574697,-0.6167755,-0.6137952,-0.61527,-0.618281,-0.62276673,-0.62126124,-0.62276673,-0.62725246,-0.62574697,-0.618281,-0.5958215,-0.573362,-0.5374453,-0.49701208,-0.46257013,-0.4356249,-0.4221676,-0.40867966,-0.36978263,-0.30538446,-0.24550277,-0.22156852,-0.23653126,-0.27395344,-0.30240422,-0.30089873,-0.29192716,-0.30240422,-0.34732318,-0.42963362,-0.5314541,-0.64221525,-0.7365389,-0.79940087,-0.8263461,-0.8218603,-0.8024119,-0.78293264,-0.7709809,-0.7664644,-0.7605039,-0.7559874,-0.75451267,-0.7530072,-0.7499962,-0.7455104,-0.7380444,-0.7335279,-0.7290422,-0.72157615,-0.70360243,-0.681143,-0.6572087,-0.62574697,-0.55839926,-0.39820266,-0.13025576,0.21557724,0.55538833,0.7260618,0.70959365,0.56737065,0.34431207,0.10327983,-0.15569556,-0.45209312,-0.72305095,-0.87126505,-0.8622936,-0.7470159,-0.62574697,-0.5778478,-0.6018127,-0.6526922,-0.68562865,-0.681143,-0.6676857,-0.6557032,-0.64971197,-0.6482065,-0.63923496,-0.62875795,-0.62126124,-0.6122897,-0.6018127,-0.58383906,-0.573362,-0.56887627,-0.5673708,-0.56439054,-0.5509025,-0.5344343,-0.5239573,-0.51646054,-0.5089946,-0.49851757,-0.48653507,-0.47455257,-0.46407562,-0.45359862,-0.4356249,-0.4221676,-0.4131961,-0.40419388,-0.39371687,-0.37724864,-0.35927492,-0.33982646,-0.32335818,-0.30240422,-0.27994472,-0.26049626,-0.24402797,-0.22454876,-0.19910902,-0.16168684,-0.12724477,-0.10180515,-0.07636535,-0.05240035,-0.02096945,0.011967182,0.035932064,0.055380583,0.07485986,0.09581375,0.116767764,0.13173056,0.13772166,0.1422075,0.14669323,0.15569556,0.16168666,0.16168666,0.15569556,0.1422075,0.113756776,0.06585753,0.0014901161,-0.07037407,-0.14220756,-0.22156852,-0.30240422,-0.38622016,-0.46407562,-0.5284431,-0.58233356,-0.63324374,-0.6781627,-0.71558493,-0.7395191,-0.7559874,-0.77245563,-0.7799524,-0.7814579,-0.7769414,-0.77245563,-0.7739611,-0.7769414,-0.7709809,-0.7559874,-0.74403566,-0.7380444,-0.7380444,-0.7365389,-0.72756743,-0.7170904,-0.71109915,-0.70808816,-0.70209694,-0.68713415,-0.6751517,-0.67367697,-0.6781627,-0.6826485,-0.681143,-0.6766572,-0.670666,-0.6691605,-0.6646747,-0.6572087,-0.6526922,-0.65121746,-0.6526922,-0.6572087,-0.64971197,-0.64372075,-0.64221525,-0.64221525,-0.64522624,-0.64522624,-0.6482065,-0.6541977,-0.6586835,-0.66169447,-0.6572087,-0.6526922,-0.6526922,-0.6557032,-0.6541977,-0.65121746,-0.64971197,-0.6557032,-0.6646747,-0.6691605,-0.66316926,-0.6557032,-0.64971197,-0.6526922,-0.6586835,-0.6586835,-0.6586835,-0.66169447,-0.66169447,-0.66316926,-0.66169447,-0.6557032,-0.6526922,-0.64971197,-0.64372075,-0.63474923,-0.6317382,-0.63324374,-0.63923496,-0.64372075,-0.64221525,-0.64221525,-0.64221525,-0.646701,-0.646701,-0.6407405,-0.63772947,-0.636224,-0.63474923,-0.6317382,-0.62126124,-0.61527,-0.60780394,-0.60629845,-0.6092788,-0.6092788,-0.6122897,-0.6167755,-0.61527,-0.6092788,-0.6003072,-0.6003072,-0.6032875,-0.6107843,-0.6107843,-0.60780394,-0.6032875,-0.59880173,-0.5928105,-0.5763423,-0.5434365,-0.50450885,-0.47157234,-0.4506184,-0.4326446,-0.40867966,-0.36677164,-0.30839545,-0.25450498,-0.22903448,-0.22903448,-0.25450498,-0.27994472,-0.29042166,-0.28593594,-0.28443044,-0.31887245,-0.39522237,-0.50300336,-0.61527,-0.7051079,-0.7619786,-0.7874491,-0.78892386,-0.7709809,-0.7470159,-0.72756743,-0.7200707,-0.7290422,-0.7380444,-0.7380444,-0.7335279,-0.72157615,-0.70658267,-0.6976112,-0.69162,-0.6901145,-0.68562865,-0.6766572,-0.6526922,-0.62725246,-0.6107843,-0.5778478,-0.46558106,-0.23653126,0.10927105,0.49400103,0.74999607,0.8158691,0.74701583,0.58233345,0.34130108,0.038912296,-0.33085495,-0.68863964,-0.9026961,-0.91768956,-0.79340965,-0.64522624,-0.55839926,-0.54792225,-0.5883248,-0.6317382,-0.6541977,-0.6526922,-0.63474923,-0.61975574,-0.6107843,-0.60479295,-0.59880173,-0.5883248,-0.5763423,-0.5658653,-0.55391353,-0.54193103,-0.52696824,-0.520977,-0.51796603,-0.5119748,-0.49550658,-0.4790383,-0.46856135,-0.46407562,-0.46856135,-0.46708655,-0.45808434,-0.44911283,-0.44014138,-0.4266534,-0.4101851,-0.38923115,-0.37426835,-0.36228597,-0.35629463,-0.3458177,-0.3323297,-0.31887245,-0.30240422,-0.28295577,-0.25748527,-0.22903448,-0.20359474,-0.18562102,-0.16767806,-0.14073282,-0.11077654,-0.08383137,-0.059897125,-0.043428898,-0.022474945,0.0074813366,0.03442657,0.055380583,0.07335436,0.08982253,0.10478532,0.116767764,0.12573922,0.13323605,0.1422075,0.15569556,0.15569556,0.14070201,0.113756776,0.07784009,0.038912296,-0.008986831,-0.07335436,-0.15120977,-0.23502576,-0.31586146,-0.39371687,-0.47006685,-0.54042554,-0.6003072,-0.64971197,-0.68863964,-0.72455645,-0.7530072,-0.7679699,-0.7739611,-0.7769414,-0.7799524,-0.7874491,-0.7874491,-0.78293264,-0.7754666,-0.7664644,-0.7619786,-0.7589984,-0.7499962,-0.74852145,-0.7455104,-0.7395191,-0.73054767,-0.7170904,-0.71109915,-0.71257395,-0.71558493,-0.70808816,-0.6946309,-0.67963743,-0.6721715,-0.6751517,-0.6766572,-0.6721715,-0.670666,-0.670666,-0.6766572,-0.6826485,-0.6781627,-0.6721715,-0.670666,-0.67367697,-0.6766572,-0.6721715,-0.6691605,-0.6691605,-0.6751517,-0.681143,-0.6826485,-0.684154,-0.68713415,-0.6901145,-0.69162,-0.68713415,-0.6826485,-0.68562865,-0.6931254,-0.7006222,-0.6976112,-0.6946309,-0.6901145,-0.68562865,-0.684154,-0.6781627,-0.6781627,-0.68562865,-0.6946309,-0.7006222,-0.6976112,-0.6901145,-0.684154,-0.684154,-0.68713415,-0.68863964,-0.68562865,-0.6826485,-0.684154,-0.68562865,-0.68562865,-0.6826485,-0.6826485,-0.6826485,-0.6826485,-0.67963743,-0.67963743,-0.681143,-0.684154,-0.68562865,-0.67963743,-0.6721715,-0.6661802,-0.6676857,-0.67367697,-0.6751517,-0.67963743,-0.68562865,-0.68863964,-0.68863964,-0.6826485,-0.6751517,-0.670666,-0.6676857,-0.66169447,-0.64522624,-0.62276673,-0.594316,-0.5553883,-0.5149858,-0.4790383,-0.45808434,-0.4431216,-0.4191566,-0.37276286,-0.31438667,-0.28443044,-0.28891617,-0.31887245,-0.3428067,-0.33684617,-0.32636917,-0.33085495,-0.37276286,-0.45359862,-0.5509025,-0.6557032,-0.74852145,-0.81439435,-0.8413396,-0.8368231,-0.8173746,-0.80090636,-0.79340965,-0.79340965,-0.79340965,-0.79340965,-0.79642063,-0.79940087,-0.7979261,-0.79042935,-0.7799524,-0.7754666,-0.7769414,-0.7769414,-0.7679699,-0.7455104,-0.72305095,-0.70658267,-0.6676857,-0.54792225,-0.31137568,0.025455117,0.39669716,0.6541977,0.7155849,0.6377295,0.46256995,0.22752893,-0.041923404,-0.36677164,-0.6961057,-0.91768956,-0.96257776,-0.86527383,-0.72455645,-0.6407405,-0.63923496,-0.6826485,-0.72606194,-0.7380444,-0.72756743,-0.71558493,-0.70808816,-0.7006222,-0.68713415,-0.6751517,-0.6646747,-0.6541977,-0.64372075,-0.62725246,-0.6167755,-0.6122897,-0.6092788,-0.6032875,-0.5898303,-0.5763423,-0.5673708,-0.56288505,-0.55391353,-0.5359398,-0.51796603,-0.5059836,-0.50149786,-0.50002307,-0.48804057,-0.47304714,-0.45660955,-0.44161612,-0.4221676,-0.40419388,-0.38923115,-0.37875414,-0.37426835,-0.36228597,-0.33832097,-0.30990094,-0.28443044,-0.26498199,-0.24252248,-0.21557724,-0.18712652,-0.15867585,-0.13624704,-0.11228204,-0.08383137,-0.050894856,-0.019463897,0.0014901161,0.020969272,0.037406802,0.05240035,0.0628773,0.07485986,0.08681154,0.10327983,0.113756776,0.11827326,0.10927105,0.09879398,0.08681154,0.061371803,0.019463778,-0.041923404,-0.11228204,-0.18414623,-0.26347643,-0.34879798,-0.44014138,-0.5254628,-0.5928105,-0.6482065,-0.6976112,-0.74403566,-0.78293264,-0.80689764,-0.8203549,-0.8263461,-0.8323374,-0.8338429,-0.8308626,-0.8308626,-0.8338429,-0.8398341,-0.8413396,-0.8323374,-0.8188801,-0.80689764,-0.79940087,-0.79042935,-0.7784469,-0.7694754,-0.7634841,-0.7649896,-0.7649896,-0.7559874,-0.7499962,-0.7455104,-0.74403566,-0.74403566,-0.7335279,-0.72305095,-0.7185652,-0.7185652,-0.7170904,-0.70808816,-0.7006222,-0.6991167,-0.70658267,-0.71558493,-0.71558493,-0.71407944,-0.71407944,-0.7185652,-0.7185652,-0.71257395,-0.70808816,-0.70808816,-0.71109915,-0.71109915,-0.70360243,-0.6961057,-0.6931254,-0.6976112,-0.7006222,-0.6991167,-0.6976112,-0.7006222,-0.70658267,-0.70808816,-0.70360243,-0.6961057,-0.6946309,-0.70209694,-0.70808816,-0.70808816,-0.70658267,-0.70209694,-0.7006222,-0.6961057,-0.68863964,-0.684154,-0.6826485,-0.684154,-0.684154,-0.6781627,-0.6721715,-0.6721715,-0.6751517,-0.6781627,-0.670666,-0.6646747,-0.66169447,-0.6661802,-0.670666,-0.6691605,-0.6646747,-0.660189,-0.6541977,-0.6526922,-0.65121746,-0.6526922,-0.6572087,-0.66316926,-0.66316926,-0.6572087,-0.6526922,-0.64971197,-0.65121746,-0.64971197,-0.64372075,-0.63772947,-0.6407405,-0.65121746,-0.6586835,-0.6586835,-0.6526922,-0.64522624,-0.64372075,-0.6407405,-0.6317382,-0.6167755,-0.5928105,-0.55987406,-0.5149858,-0.46856135,-0.44161612,-0.4326446,-0.4236731,-0.38923115,-0.32784396,-0.26946777,-0.24700826,-0.26796228,-0.30390966,-0.32486367,-0.32335818,-0.31887245,-0.33684617,-0.39371687,-0.48355484,-0.5883248,-0.6946309,-0.7769414,-0.8248713,-0.83534837,-0.8248713,-0.80689764,-0.7979261,-0.79340965,-0.79042935,-0.7859436,-0.78293264,-0.7799524,-0.7769414,-0.7694754,-0.7649896,-0.7649896,-0.7679699,-0.7709809,-0.7634841,-0.7470159,-0.72305095,-0.7051079,-0.6751517,-0.597327,-0.4221676,-0.13922733,0.21705186,0.55987394,0.72154534,0.6946002,0.54340565,0.31586146,0.07335436,-0.19013757,-0.4940318,-0.7694754,-0.92365,-0.9146786,-0.79642063,-0.6781627,-0.62875795,-0.64971197,-0.6961057,-0.72157615,-0.72305095,-0.70959365,-0.6976112,-0.68713415,-0.6751517,-0.66316926,-0.6526922,-0.64971197,-0.64372075,-0.6317382,-0.618281,-0.6092788,-0.60629845,-0.6003072,-0.58685005,-0.5718565,-0.55839926,-0.552408,-0.54792225,-0.5359398,-0.5224518,-0.5089946,-0.49851757,-0.48502958,-0.47455257,-0.46708655,-0.46257013,-0.45958984,-0.4446271,-0.4191566,-0.39221144,-0.37125736,-0.35927492,-0.34732318,-0.32784396,-0.30538446,-0.28295577,-0.26197094,-0.23803675,-0.20808053,-0.18113536,-0.15720105,-0.13474154,-0.11526233,-0.082325876,-0.053905845,-0.02843535,-0.010492325,0.0059758425,0.031446338,0.056886077,0.079345584,0.091328025,0.10029948,0.10927105,0.119748,0.12724471,0.12573922,0.119748,0.11228204,0.09430826,0.05839157,0.0059758425,-0.059897125,-0.13025576,-0.20510024,-0.28443044,-0.36677164,-0.44610184,-0.5194715,-0.5898303,-0.6557032,-0.71109915,-0.74852145,-0.77245563,-0.7859436,-0.80090636,-0.8203549,-0.8323374,-0.83534837,-0.8338429,-0.8278516,-0.8233658,-0.81586915,-0.80689764,-0.79940087,-0.79491514,-0.79193485,-0.78443813,-0.7679699,-0.7530072,-0.7470159,-0.7470159,-0.7470159,-0.7365389,-0.7185652,-0.70658267,-0.70360243,-0.70808816,-0.71407944,-0.71558493,-0.70959365,-0.7051079,-0.6991167,-0.68863964,-0.67963743,-0.681143,-0.68713415,-0.69162,-0.6931254,-0.69162,-0.6901145,-0.6961057,-0.6991167,-0.6931254,-0.68562865,-0.681143,-0.684154,-0.68863964,-0.68863964,-0.68562865,-0.6826485,-0.68562865,-0.68713415,-0.6826485,-0.6781627,-0.6781627,-0.684154,-0.68863964,-0.68713415,-0.681143,-0.6781627,-0.681143,-0.684154,-0.6826485,-0.67963743,-0.6751517,-0.6826485,-0.68863964,-0.6901145,-0.68713415,-0.6826485,-0.6826485,-0.684154,-0.67963743,-0.67367697,-0.6676857,-0.6646747,-0.660189,-0.6526922,-0.64372075,-0.64221525,-0.65121746,-0.660189,-0.660189,-0.6541977,-0.646701,-0.6482065,-0.6526922,-0.6572087,-0.6526922,-0.6482065,-0.64522624,-0.64221525,-0.6407405,-0.64221525,-0.646701,-0.65121746,-0.65121746,-0.646701,-0.64372075,-0.64372075,-0.64971197,-0.6526922,-0.6482065,-0.64221525,-0.6407405,-0.64372075,-0.64372075,-0.63923496,-0.63474923,-0.63474923,-0.6407405,-0.64372075,-0.63923496,-0.6317382,-0.6242722,-0.618281,-0.6092788,-0.58685005,-0.5509025,-0.5059836,-0.46558106,-0.4326446,-0.41467088,-0.38923115,-0.35180885,-0.29791844,-0.25001925,-0.23053998,-0.24402797,-0.27395344,-0.29939324,-0.29641294,-0.28744143,-0.30089873,-0.35629463,-0.4506184,-0.56288505,-0.6661802,-0.7410247,-0.78293264,-0.80090636,-0.79042935,-0.7664644,-0.7470159,-0.7335279,-0.73205316,-0.7365389,-0.7395191,-0.73205316,-0.72606194,-0.72157615,-0.71558493,-0.70959365,-0.70360243,-0.7006222,-0.6991167,-0.68713415,-0.6572087,-0.63026345,-0.6018127,-0.54792225,-0.40268838,-0.13323605,0.23502576,0.6107842,0.8173746,0.8368231,0.7320224,0.5299485,0.26796222,-0.050894856,-0.4206621,-0.7455104,-0.9116983,-0.8892388,-0.7559874,-0.62126124,-0.55391353,-0.56137955,-0.6107843,-0.6541977,-0.67367697,-0.6646747,-0.64372075,-0.62276673,-0.6137952,-0.6092788,-0.60629845,-0.5958215,-0.5898303,-0.58085877,-0.57038176,-0.55689377,-0.54042554,-0.52696824,-0.52696824,-0.5284431,-0.52696824,-0.5224518,-0.5119748,-0.50002307,-0.48054385,-0.46257013,-0.44161612,-0.4311391,-0.4326446,-0.4311391,-0.4251479,-0.4101851,-0.39221144,-0.38173437,-0.36827713,-0.35180885,-0.3323297,-0.31288117,-0.30089873,-0.28593594,-0.26498199,-0.24402797,-0.22156852,-0.20808053,-0.19013757,-0.16168684,-0.12573934,-0.08982253,-0.059897125,-0.03295183,-0.0074813366,0.019463778,0.04041779,0.055380583,0.06438279,0.076334596,0.08831704,0.09728849,0.10180497,0.10927105,0.119748,0.12724471,0.12423372,0.10927105,0.08681154,0.056886077,0.017958403,-0.03295183,-0.09879416,-0.16915274,-0.23954225,-0.31438667,-0.39371687,-0.48502958,-0.5658653,-0.62875795,-0.6766572,-0.71558493,-0.7499962,-0.7784469,-0.79042935,-0.79193485,-0.79193485,-0.80090636,-0.8084031,-0.8098779,-0.8039174,-0.79042935,-0.7874491,-0.7814579,-0.7799524,-0.7739611,-0.7679699,-0.7634841,-0.7574929,-0.74403566,-0.7365389,-0.73054767,-0.73054767,-0.72305095,-0.7185652,-0.71407944,-0.7170904,-0.72157615,-0.7170904,-0.7051079,-0.6901145,-0.68562865,-0.6931254,-0.6976112,-0.6961057,-0.68562865,-0.6781627,-0.684154,-0.6961057,-0.70360243,-0.70360243,-0.6991167,-0.6946309,-0.6946309,-0.6946309,-0.69162,-0.6931254,-0.6961057,-0.6976112,-0.6961057,-0.6901145,-0.68863964,-0.69162,-0.6976112,-0.70360243,-0.7051079,-0.7006222,-0.6961057,-0.6961057,-0.6946309,-0.6976112,-0.7051079,-0.70808816,-0.70658267,-0.7006222,-0.6931254,-0.69162,-0.6946309,-0.69162,-0.684154,-0.67367697,-0.6691605,-0.6751517,-0.6826485,-0.68863964,-0.68713415,-0.684154,-0.684154,-0.681143,-0.6721715,-0.6691605,-0.6721715,-0.681143,-0.68562865,-0.6781627,-0.6676857,-0.6586835,-0.6586835,-0.66316926,-0.6661802,-0.66316926,-0.66169447,-0.66169447,-0.6572087,-0.64971197,-0.6407405,-0.63923496,-0.646701,-0.65121746,-0.6482065,-0.6407405,-0.63474923,-0.6407405,-0.64522624,-0.646701,-0.64221525,-0.636224,-0.62725246,-0.6137952,-0.5883248,-0.5493971,-0.5134803,-0.4895153,-0.47756356,-0.46708655,-0.4431216,-0.39820266,-0.35180885,-0.31438667,-0.30390966,-0.30990094,-0.32486367,-0.33085495,-0.32335818,-0.31887245,-0.35030347,-0.4236731,-0.5374453,-0.6572087,-0.7470159,-0.79491514,-0.8084031,-0.8024119,-0.7874491,-0.7649896,-0.75451267,-0.7530072,-0.7619786,-0.7694754,-0.7664644,-0.7530072,-0.7410247,-0.7395191,-0.7395191,-0.7410247,-0.7365389,-0.73054767,-0.72305095,-0.70658267,-0.6781627,-0.6557032,-0.636224,-0.5898303,-0.44760734,-0.19013757,0.15717018,0.4685613,0.6107842,0.6092787,0.50748897,0.3278439,0.08831704,-0.22903448,-0.58685005,-0.8667793,-0.96408325,-0.89074427,-0.74403566,-0.6242722,-0.58383906,-0.60780394,-0.6557032,-0.68562865,-0.68562865,-0.6586835,-0.62875795,-0.60780394,-0.60780394,-0.60629845,-0.59880173,-0.58685005,-0.5763423,-0.5763423,-0.5763423,-0.5718565,-0.56288505,-0.55391353,-0.5493971,-0.54641676,-0.5344343,-0.520977,-0.5059836,-0.49701208,-0.4925263,-0.48804057,-0.48054385,-0.47455257,-0.46558106,-0.44911283,-0.42963362,-0.40569937,-0.39073664,-0.38025963,-0.36827713,-0.35331434,-0.33383518,-0.31586146,-0.29939324,-0.28295577,-0.26498199,-0.24402797,-0.22903448,-0.21256626,-0.18863207,-0.16319233,-0.13323605,-0.11077654,-0.09581387,-0.07335436,-0.044903636,-0.008986831,0.022444129,0.037406802,0.047914505,0.05387509,0.061371803,0.070343375,0.07485986,0.079345584,0.085336804,0.09430826,0.09280288,0.07784009,0.050894856,0.011967182,-0.029940844,-0.08383137,-0.15569556,-0.23653126,-0.32185268,-0.40569937,-0.48502958,-0.55987406,-0.62276673,-0.670666,-0.71407944,-0.7530072,-0.7874491,-0.81138337,-0.8218603,-0.8188801,-0.81586915,-0.8173746,-0.8173746,-0.81439435,-0.80539215,-0.79940087,-0.79940087,-0.79940087,-0.79491514,-0.7814579,-0.7694754,-0.7649896,-0.7589984,-0.7530072,-0.7455104,-0.7380444,-0.7380444,-0.7350334,-0.73054767,-0.7185652,-0.71109915,-0.70959365,-0.71109915,-0.70658267,-0.6991167,-0.6976112,-0.6976112,-0.7006222,-0.6976112,-0.69162,-0.68713415,-0.68863964,-0.69162,-0.69162,-0.68562865,-0.684154,-0.6901145,-0.6946309,-0.7006222,-0.6991167,-0.6946309,-0.6961057,-0.6976112,-0.7006222,-0.7006222,-0.7006222,-0.6991167,-0.6931254,-0.68863964,-0.681143,-0.681143,-0.69162,-0.6991167,-0.7051079,-0.70209694,-0.70209694,-0.70658267,-0.70808816,-0.70658267,-0.70360243,-0.7006222,-0.7051079,-0.7051079,-0.6991167,-0.68863964,-0.6826485,-0.684154,-0.68863964,-0.6901145,-0.68562865,-0.681143,-0.68562865,-0.68863964,-0.6901145,-0.68562865,-0.681143,-0.6826485,-0.68713415,-0.68863964,-0.68863964,-0.69162,-0.6931254,-0.6931254,-0.68863964,-0.6826485,-0.67963743,-0.684154,-0.68863964,-0.68713415,-0.681143,-0.6751517,-0.6646747,-0.64372075,-0.60629845,-0.56288505,-0.5314541,-0.51646054,-0.5074891,-0.48355484,-0.4356249,-0.37724864,-0.33534068,-0.32335818,-0.33383518,-0.35030347,-0.36379147,-0.36677164,-0.36978263,-0.39073664,-0.44014138,-0.5224518,-0.63026345,-0.7350334,-0.81138337,-0.8488056,-0.85329133,-0.8443198,-0.8278516,-0.81439435,-0.8098779,-0.8098779,-0.81288886,-0.81439435,-0.81138337,-0.80090636,-0.79340965,-0.79042935,-0.7859436,-0.7814579,-0.7754666,-0.7739611,-0.7754666,-0.7649896,-0.7515017,-0.72305095,-0.6586835,-0.5059836,-0.23954225,0.119748,0.4880098,0.7005913,0.74102473,0.6586834,0.48054373,0.24550271,-0.056886137,-0.4221676,-0.7530072,-0.9356325,-0.9386435,-0.8308626,-0.7200707,-0.6661802,-0.6721715,-0.7006222,-0.72305095,-0.73054767,-0.72305095,-0.71558493,-0.70658267,-0.7006222,-0.6991167,-0.6931254,-0.681143,-0.6676857,-0.6557032,-0.65121746,-0.6482065,-0.63923496,-0.62725246,-0.6137952,-0.60479295,-0.5958215,-0.58233356,-0.56288505,-0.5509025,-0.5434365,-0.53892004,-0.5314541,-0.5149858,-0.49851757,-0.4895153,-0.48204935,-0.47006685,-0.44760734,-0.42963362,-0.41768187,-0.40720487,-0.39522237,-0.37724864,-0.3578002,-0.3428067,-0.31887245,-0.29192716,-0.26197094,-0.23653126,-0.22156852,-0.20660573,-0.18562102,-0.15720105,-0.12573934,-0.09581387,-0.06736308,-0.04041791,-0.010492325,0.008986831,0.023949623,0.037406802,0.047914505,0.061371803,0.06886852,0.070343375,0.070343375,0.07335436,0.07184887,0.061371803,0.03442657,-0.0029956698,-0.04942006,-0.09581387,-0.15867585,-0.23803675,-0.32335818,-0.40867966,-0.48355484,-0.552408,-0.618281,-0.6766572,-0.73054767,-0.7694754,-0.8039174,-0.8323374,-0.8503111,-0.8578078,-0.85329133,-0.8458253,-0.8428143,-0.8413396,-0.8368231,-0.8293571,-0.8233658,-0.8218603,-0.8173746,-0.81288886,-0.8039174,-0.79491514,-0.79193485,-0.7874491,-0.7799524,-0.7679699,-0.7589984,-0.7574929,-0.7559874,-0.74852145,-0.7410247,-0.7380444,-0.7395191,-0.74253017,-0.74253017,-0.7350334,-0.7290422,-0.72606194,-0.72606194,-0.72455645,-0.72157615,-0.72157615,-0.72455645,-0.72455645,-0.72157615,-0.7170904,-0.71558493,-0.72157615,-0.72305095,-0.72157615,-0.71257395,-0.70658267,-0.71109915,-0.71558493,-0.72305095,-0.72455645,-0.72157615,-0.7200707,-0.7200707,-0.7170904,-0.71257395,-0.71109915,-0.71257395,-0.71558493,-0.71407944,-0.70959365,-0.7051079,-0.70658267,-0.70808816,-0.70959365,-0.70658267,-0.70658267,-0.70658267,-0.70360243,-0.6991167,-0.6931254,-0.6931254,-0.70209694,-0.71109915,-0.71109915,-0.7006222,-0.69162,-0.68713415,-0.68863964,-0.6931254,-0.6931254,-0.6931254,-0.6946309,-0.6931254,-0.684154,-0.67367697,-0.670666,-0.6751517,-0.681143,-0.67963743,-0.6691605,-0.66169447,-0.6586835,-0.660189,-0.66169447,-0.6572087,-0.6572087,-0.66169447,-0.6646747,-0.66169447,-0.6541977,-0.65121746,-0.6541977,-0.660189,-0.660189,-0.6557032,-0.65121746,-0.64971197,-0.646701,-0.63474923,-0.6122897,-0.5763423,-0.5344343,-0.4925263,-0.45958984,-0.4356249,-0.4191566,-0.39073664,-0.33832097,-0.28443044,-0.25597978,-0.26347643,-0.29939324,-0.33383518,-0.34133196,-0.32934946,-0.3323297,-0.37276286,-0.4551041,-0.56439054,-0.67367697,-0.7649896,-0.8248713,-0.8518166,-0.8488056,-0.8293571,-0.81288886,-0.8039174,-0.7979261,-0.79193485,-0.7859436,-0.7859436,-0.79193485,-0.79340965,-0.78443813,-0.7679699,-0.7559874,-0.7515017,-0.7455104,-0.7350334,-0.70959365,-0.68562865,-0.6676857,-0.6242722,-0.50300336,-0.26347643,0.067363024,0.42665327,0.66467464,0.70808816,0.61527,0.42514777,0.19010675,-0.065888345,-0.35927492,-0.64971197,-0.8443198,-0.89372456,-0.8188801,-0.7170904,-0.65121746,-0.6541977,-0.6946309,-0.72606194,-0.7335279,-0.7170904,-0.6976112,-0.68863964,-0.6826485,-0.6751517,-0.660189,-0.64522624,-0.63772947,-0.6317382,-0.61975574,-0.6018127,-0.5928105,-0.5928105,-0.59880173,-0.6032875,-0.5913358,-0.5718565,-0.552408,-0.5434365,-0.5359398,-0.5284431,-0.5224518,-0.51646054,-0.5074891,-0.4910208,-0.47006685,-0.4506184,-0.4371304,-0.4266534,-0.41467088,-0.39970815,-0.38323987,-0.37276286,-0.35927492,-0.34133196,-0.31586146,-0.29192716,-0.27545893,-0.25450498,-0.23204547,-0.20061451,-0.17216378,-0.14970428,-0.13025576,-0.109301805,-0.07784015,-0.04942006,-0.023949623,-0.0014901757,0.019463778,0.04041779,0.05387509,0.061371803,0.06438279,0.07184887,0.08383131,0.09280288,0.091328025,0.08082032,0.06585753,0.04041779,0.0014901161,-0.055380642,-0.12125361,-0.19013757,-0.26197094,-0.33982646,-0.4221676,-0.50149786,-0.57038176,-0.62276673,-0.67367697,-0.72157615,-0.7619786,-0.78892386,-0.80090636,-0.80689764,-0.81138337,-0.8173746,-0.8203549,-0.8188801,-0.81586915,-0.8098779,-0.8039174,-0.79340965,-0.7814579,-0.7754666,-0.7739611,-0.7709809,-0.7664644,-0.7530072,-0.7455104,-0.7410247,-0.7410247,-0.7350334,-0.72157615,-0.71257395,-0.70959365,-0.71109915,-0.71257395,-0.70808816,-0.6991167,-0.6931254,-0.6901145,-0.68713415,-0.684154,-0.68863964,-0.7006222,-0.71257395,-0.71558493,-0.70959365,-0.70209694,-0.7006222,-0.7051079,-0.70808816,-0.70209694,-0.6991167,-0.7006222,-0.7006222,-0.7006222,-0.6961057,-0.6931254,-0.6976112,-0.70360243,-0.7051079,-0.70360243,-0.7006222,-0.70658267,-0.71109915,-0.71257395,-0.70658267,-0.6991167,-0.70209694,-0.70959365,-0.71407944,-0.71109915,-0.70658267,-0.70360243,-0.70209694,-0.70360243,-0.6991167,-0.6946309,-0.6961057,-0.69162,-0.68562865,-0.67963743,-0.6766572,-0.68562865,-0.6946309,-0.6976112,-0.69162,-0.68713415,-0.684154,-0.6766572,-0.6721715,-0.66169447,-0.660189,-0.6676857,-0.6766572,-0.6826485,-0.67963743,-0.6751517,-0.6691605,-0.66316926,-0.6572087,-0.64971197,-0.64971197,-0.6541977,-0.66169447,-0.660189,-0.65121746,-0.64522624,-0.646701,-0.6526922,-0.6557032,-0.64971197,-0.63923496,-0.6317382,-0.6317382,-0.63474923,-0.636224,-0.63772947,-0.63772947,-0.6317382,-0.61975574,-0.59880173,-0.573362,-0.54042554,-0.50450885,-0.47157234,-0.44610184,-0.4266534,-0.39970815,-0.35030347,-0.29192716,-0.25299948,-0.25299948,-0.28593594,-0.32335818,-0.33982646,-0.3323297,-0.32784396,-0.35629463,-0.4251479,-0.5254628,-0.636224,-0.7350334,-0.80539215,-0.8428143,-0.8443198,-0.8248713,-0.8039174,-0.79193485,-0.78443813,-0.7784469,-0.7694754,-0.7605039,-0.7589984,-0.7574929,-0.7499962,-0.7350334,-0.72455645,-0.72606194,-0.7335279,-0.7380444,-0.72455645,-0.6991167,-0.6751517,-0.63772947,-0.55391353,-0.36078048,-0.065888345,0.29939306,0.6212611,0.7544819,0.7260618,0.58082795,0.35478914,0.09879398,-0.20359474,-0.5359398,-0.80539215,-0.9221753,-0.87575084,-0.74403566,-0.63026345,-0.597327,-0.63026345,-0.6781627,-0.70959365,-0.70808816,-0.6991167,-0.68713415,-0.6781627,-0.6691605,-0.6526922,-0.64221525,-0.63474923,-0.63026345,-0.6242722,-0.6107843,-0.6018127,-0.5958215,-0.5913358,-0.58233356,-0.5658653,-0.54491127,-0.5329288,-0.5254628,-0.520977,-0.5149858,-0.5105001,-0.5059836,-0.49701208,-0.48054385,-0.4551041,-0.4356249,-0.4251479,-0.4206621,-0.4131961,-0.39820266,-0.37426835,-0.35331434,-0.3323297,-0.30839545,-0.28443044,-0.26049626,-0.24252248,-0.22903448,-0.20808053,-0.18113536,-0.15569556,-0.13474154,-0.11378753,-0.08831704,-0.056886137,-0.022474945,0.0059758425,0.02843535,0.049389362,0.076334596,0.09728849,0.113756776,0.12423372,0.13323605,0.14521849,0.15268457,0.14970422,0.13772166,0.122758985,0.10478532,0.07485986,0.029940844,-0.03442663,-0.10779631,-0.18414623,-0.26648748,-0.34732318,-0.42963362,-0.50450885,-0.5658653,-0.62276673,-0.6751517,-0.72157615,-0.7589984,-0.78293264,-0.80090636,-0.8098779,-0.81138337,-0.8098779,-0.8024119,-0.80090636,-0.8039174,-0.80539215,-0.7979261,-0.78293264,-0.7664644,-0.7605039,-0.7589984,-0.7559874,-0.7395191,-0.72606194,-0.7185652,-0.72157615,-0.72756743,-0.72606194,-0.7185652,-0.70808816,-0.7006222,-0.6946309,-0.69162,-0.68863964,-0.68713415,-0.684154,-0.681143,-0.6766572,-0.6751517,-0.6766572,-0.6766572,-0.6691605,-0.6586835,-0.6557032,-0.66169447,-0.67367697,-0.6781627,-0.6766572,-0.6721715,-0.670666,-0.6781627,-0.6826485,-0.684154,-0.68562865,-0.68562865,-0.68713415,-0.68863964,-0.684154,-0.684154,-0.68713415,-0.6931254,-0.69162,-0.68562865,-0.684154,-0.68562865,-0.68863964,-0.68713415,-0.6826485,-0.681143,-0.68713415,-0.6946309,-0.6946309,-0.684154,-0.67367697,-0.6676857,-0.6676857,-0.6691605,-0.6721715,-0.67963743,-0.6946309,-0.70360243,-0.70209694,-0.68713415,-0.67367697,-0.6676857,-0.670666,-0.6721715,-0.6691605,-0.66316926,-0.6646747,-0.6691605,-0.67367697,-0.670666,-0.66316926,-0.6557032,-0.64971197,-0.646701,-0.64372075,-0.6407405,-0.6407405,-0.63923496,-0.63772947,-0.63324374,-0.63324374,-0.63772947,-0.6407405,-0.6407405,-0.63324374,-0.62875795,-0.62725246,-0.6167755,-0.5883248,-0.53892004,-0.4895153,-0.45958984,-0.44911283,-0.4431216,-0.41617638,-0.36827713,-0.31438667,-0.27696443,-0.26946777,-0.28295577,-0.30390966,-0.31438667,-0.31586146,-0.32335818,-0.36078048,-0.44014138,-0.55391353,-0.67367697,-0.7679699,-0.8188801,-0.83534837,-0.8308626,-0.8188801,-0.80539215,-0.7859436,-0.7754666,-0.77245563,-0.7754666,-0.7799524,-0.7754666,-0.7664644,-0.7634841,-0.7605039,-0.75451267,-0.7410247,-0.72305095,-0.70959365,-0.69162,-0.6691605,-0.65121746,-0.62875795,-0.55987406,-0.39221144,-0.109301805,0.25597978,0.5763422,0.7200707,0.7200707,0.61527,0.43411934,0.17962968,-0.16168684,-0.54641676,-0.8458253,-0.947615,-0.86975956,-0.71558493,-0.5958215,-0.552408,-0.57038176,-0.6092788,-0.6407405,-0.6541977,-0.6482065,-0.62725246,-0.60780394,-0.59880173,-0.597327,-0.597327,-0.5913358,-0.58233356,-0.5763423,-0.573362,-0.56887627,-0.5553883,-0.5374453,-0.5224518,-0.5149858,-0.5089946,-0.50149786,-0.4910208,-0.4790383,-0.46257013,-0.44161612,-0.4221676,-0.4101851,-0.40720487,-0.40720487,-0.39970815,-0.37724864,-0.35927492,-0.3443122,-0.3323297,-0.32185268,-0.30240422,-0.28443044,-0.27097315,-0.25748527,-0.23502576,-0.20660573,-0.17664957,-0.15271527,-0.13474154,-0.11977881,-0.09879416,-0.07784015,-0.053905845,-0.03442663,-0.010492325,0.020969272,0.047914505,0.067363024,0.08082032,0.09280288,0.10779631,0.11827326,0.12573922,0.1287502,0.13173056,0.13621616,0.13621616,0.119748,0.08681154,0.041923285,-0.010492325,-0.07184887,-0.13922733,-0.21256626,-0.28593594,-0.3578002,-0.4356249,-0.5134803,-0.5883248,-0.6526922,-0.6976112,-0.73054767,-0.7574929,-0.7754666,-0.78443813,-0.78293264,-0.7799524,-0.7784469,-0.78443813,-0.78892386,-0.7874491,-0.7859436,-0.7799524,-0.7769414,-0.77245563,-0.7649896,-0.7634841,-0.7634841,-0.7634841,-0.7574929,-0.74403566,-0.73205316,-0.72157615,-0.72157615,-0.72157615,-0.7185652,-0.71407944,-0.71109915,-0.70808816,-0.70658267,-0.6961057,-0.68863964,-0.68562865,-0.68562865,-0.68562865,-0.67963743,-0.6766572,-0.6781627,-0.684154,-0.6901145,-0.68863964,-0.68713415,-0.68713415,-0.68713415,-0.684154,-0.6766572,-0.6781627,-0.68562865,-0.6961057,-0.7051079,-0.70209694,-0.7006222,-0.70360243,-0.70808816,-0.71109915,-0.70360243,-0.6976112,-0.6931254,-0.68863964,-0.684154,-0.6751517,-0.6691605,-0.67367697,-0.684154,-0.68863964,-0.68863964,-0.68562865,-0.68713415,-0.69162,-0.69162,-0.684154,-0.6721715,-0.6646747,-0.670666,-0.67367697,-0.6766572,-0.6781627,-0.681143,-0.684154,-0.684154,-0.6826485,-0.67963743,-0.68562865,-0.68863964,-0.68562865,-0.6751517,-0.6646747,-0.66316926,-0.670666,-0.67963743,-0.6781627,-0.6781627,-0.67963743,-0.681143,-0.681143,-0.6676857,-0.646701,-0.61527,-0.5763423,-0.5374453,-0.50450885,-0.4940318,-0.4895153,-0.47605807,-0.4326446,-0.37426835,-0.3323297,-0.32636917,-0.3458177,-0.36526614,-0.36526614,-0.35478914,-0.35478914,-0.38923115,-0.46109533,-0.55839926,-0.6676857,-0.7605039,-0.8248713,-0.8518166,-0.8488056,-0.8308626,-0.81138337,-0.7979261,-0.7874491,-0.7784469,-0.7784469,-0.7814579,-0.78443813,-0.7859436,-0.7784469,-0.7709809,-0.7694754,-0.7694754,-0.7694754,-0.7649896,-0.7515017,-0.7335279,-0.72157615,-0.6931254,-0.6137952,-0.4311391,-0.14220756,0.22156835,0.55388284,0.70959365,0.70959365,0.594316,0.3937168,0.14669323,-0.16018134,-0.5119748,-0.8084031,-0.94463474,-0.9071818,-0.7754666,-0.66169447,-0.62276673,-0.65121746,-0.6961057,-0.7200707,-0.72157615,-0.71407944,-0.70658267,-0.6976112,-0.6826485,-0.6661802,-0.6586835,-0.660189,-0.6586835,-0.65121746,-0.63474923,-0.61527,-0.6003072,-0.58685005,-0.5718565,-0.56288505,-0.55987406,-0.55987406,-0.55689377,-0.5434365,-0.5239573,-0.5089946,-0.49701208,-0.48502958,-0.47006685,-0.45359862,-0.4446271,-0.4386359,-0.42815888,-0.41467088,-0.39672786,-0.38323987,-0.37125736,-0.35629463,-0.33383518,-0.30839545,-0.28744143,-0.27097315,-0.251494,-0.22454876,-0.19910902,-0.17366928,-0.15120977,-0.12724477,-0.10029966,-0.07335436,-0.05240035,-0.03442663,-0.017958403,0.0074813366,0.029940844,0.047914505,0.061371803,0.07184887,0.085336804,0.09430826,0.091328025,0.082325816,0.07184887,0.061371803,0.043398023,0.013472676,-0.035932124,-0.091328025,-0.15271527,-0.22605425,-0.30688995,-0.39522237,-0.48054385,-0.552408,-0.6137952,-0.6691605,-0.71407944,-0.7499962,-0.7739611,-0.79042935,-0.8039174,-0.81439435,-0.81439435,-0.8084031,-0.8039174,-0.8024119,-0.8024119,-0.79642063,-0.78293264,-0.7739611,-0.7694754,-0.77245563,-0.77245563,-0.7649896,-0.7589984,-0.7574929,-0.7589984,-0.7574929,-0.7470159,-0.7350334,-0.73205316,-0.73054767,-0.7290422,-0.7200707,-0.70959365,-0.70360243,-0.70209694,-0.70360243,-0.7006222,-0.6961057,-0.6961057,-0.6961057,-0.6961057,-0.68863964,-0.68713415,-0.6931254,-0.70360243,-0.71257395,-0.71109915,-0.70959365,-0.70808816,-0.70959365,-0.70959365,-0.70360243,-0.7006222,-0.70658267,-0.71558493,-0.7200707,-0.71407944,-0.70658267,-0.70209694,-0.70209694,-0.70360243,-0.7006222,-0.6976112,-0.6961057,-0.6946309,-0.6901145,-0.68562865,-0.684154,-0.68713415,-0.68713415,-0.67963743,-0.6676857,-0.66169447,-0.6676857,-0.67367697,-0.6751517,-0.6646747,-0.6526922,-0.65121746,-0.6586835,-0.66316926,-0.66169447,-0.660189,-0.6572087,-0.6572087,-0.6541977,-0.65121746,-0.64971197,-0.6526922,-0.6586835,-0.6572087,-0.64522624,-0.6407405,-0.64372075,-0.65121746,-0.6541977,-0.646701,-0.63772947,-0.63324374,-0.63324374,-0.63474923,-0.62725246,-0.62276673,-0.6242722,-0.63026345,-0.63474923,-0.63324374,-0.62875795,-0.62574697,-0.62725246,-0.62875795,-0.6242722,-0.62276673,-0.62276673,-0.6242722,-0.6137952,-0.58233356,-0.5329288,-0.48355484,-0.44911283,-0.4311391,-0.41467088,-0.38772565,-0.34133196,-0.28891617,-0.25748527,-0.25748527,-0.28295577,-0.31137568,-0.32784396,-0.32486367,-0.32185268,-0.34879798,-0.4191566,-0.520977,-0.63026345,-0.72455645,-0.78892386,-0.8263461,-0.8428143,-0.8398341,-0.8248713,-0.81138337,-0.8039174,-0.80090636,-0.7979261,-0.78892386,-0.7799524,-0.7754666,-0.7739611,-0.7694754,-0.7574929,-0.74852145,-0.74403566,-0.74403566,-0.73205316,-0.70658267,-0.67963743,-0.636224,-0.5359398,-0.32784396,-0.014978111,0.35328364,0.64221513,0.7245563,0.6526922,0.48352396,0.25597978,0.010461688,-0.27994472,-0.58685005,-0.8203549,-0.9012213,-0.8368231,-0.7200707,-0.63772947,-0.6242722,-0.66316926,-0.71109915,-0.7335279,-0.7290422,-0.70658267,-0.684154,-0.670666,-0.6646747,-0.6586835,-0.64522624,-0.6317382,-0.6242722,-0.618281,-0.6122897,-0.6003072,-0.58383906,-0.5718565,-0.5673708,-0.56439054,-0.5553883,-0.5434365,-0.5299486,-0.51796603,-0.50300336,-0.48804057,-0.47756356,-0.47006685,-0.46109533,-0.44911283,-0.4311391,-0.41467088,-0.4012136,-0.39221144,-0.37875414,-0.3578002,-0.33684617,-0.32037795,-0.30538446,-0.28744143,-0.26347643,-0.23653126,-0.21557724,-0.20061451,-0.18414623,-0.16168684,-0.13624704,-0.109301805,-0.085336864,-0.056886137,-0.02843535,-0.0014901757,0.017958403,0.029940844,0.044903517,0.06585753,0.085336804,0.09879398,0.10029948,0.10327983,0.10927105,0.113756776,0.11077654,0.09728849,0.07485986,0.043398023,-0.0014901757,-0.05839163,-0.12875026,-0.20660573,-0.28443044,-0.36379147,-0.44161612,-0.51796603,-0.58233356,-0.63772947,-0.681143,-0.7200707,-0.7559874,-0.78293264,-0.79642063,-0.80539215,-0.81138337,-0.8173746,-0.81586915,-0.8084031,-0.79940087,-0.79340965,-0.79491514,-0.79193485,-0.7799524,-0.7679699,-0.7589984,-0.7589984,-0.7559874,-0.74852145,-0.7365389,-0.72305095,-0.72157615,-0.72305095,-0.72157615,-0.7185652,-0.7170904,-0.71257395,-0.70959365,-0.70360243,-0.7006222,-0.6991167,-0.70209694,-0.70209694,-0.6961057,-0.69162,-0.6901145,-0.6946309,-0.6991167,-0.70209694,-0.70808816,-0.71257395,-0.71407944,-0.71109915,-0.6991167,-0.69162,-0.6901145,-0.6946309,-0.6961057,-0.69162,-0.6901145,-0.69162,-0.6976112,-0.6991167,-0.6946309,-0.6931254,-0.6931254,-0.7006222,-0.7051079,-0.70209694,-0.6961057,-0.69162,-0.6901145,-0.68713415,-0.6781627,-0.670666,-0.670666,-0.67963743,-0.68562865,-0.684154,-0.6781627,-0.67367697,-0.6766572,-0.681143,-0.6826485,-0.6781627,-0.6751517,-0.67367697,-0.670666,-0.6646747,-0.660189,-0.66169447,-0.6676857,-0.6691605,-0.66316926,-0.6586835,-0.6557032,-0.660189,-0.6586835,-0.6541977,-0.64971197,-0.64971197,-0.6572087,-0.66169447,-0.660189,-0.6557032,-0.6541977,-0.6572087,-0.6541977,-0.646701,-0.63923496,-0.6317382,-0.63474923,-0.63324374,-0.63026345,-0.63026345,-0.63026345,-0.63772947,-0.6407405,-0.63772947,-0.6317382,-0.62725246,-0.62725246,-0.62725246,-0.6242722,-0.61975574,-0.6107843,-0.59880173,-0.5718565,-0.5254628,-0.47455257,-0.44014138,-0.4236731,-0.41617638,-0.39371687,-0.3428067,-0.28443044,-0.251494,-0.251494,-0.27545893,-0.30240422,-0.31438667,-0.31586146,-0.32185268,-0.35478914,-0.4206621,-0.5134803,-0.6242722,-0.72157615,-0.7874491,-0.8188801,-0.8263461,-0.8203549,-0.8098779,-0.79940087,-0.79193485,-0.7874491,-0.78892386,-0.7874491,-0.7799524,-0.7754666,-0.7739611,-0.7784469,-0.78443813,-0.78293264,-0.7814579,-0.7739611,-0.7559874,-0.72157615,-0.68562865,-0.64372075,-0.55839926,-0.37574315,-0.07636535,0.30987012,0.6571779,0.80388665,0.7769414,0.6302327,0.40569925,0.14521849,-0.17216378,-0.5299486,-0.81586915,-0.9311468,-0.8682848,-0.72606194,-0.62126124,-0.5928105,-0.62725246,-0.6751517,-0.70209694,-0.70209694,-0.68713415,-0.6691605,-0.6526922,-0.64372075,-0.64221525,-0.63772947,-0.63026345,-0.62126124,-0.6137952,-0.6092788,-0.6018127,-0.58534455,-0.57038176,-0.55689377,-0.54792225,-0.53892004,-0.5224518,-0.5059836,-0.49550658,-0.4910208,-0.48204935,-0.46708655,-0.44760734,-0.4326446,-0.4266534,-0.4206621,-0.4116906,-0.39820266,-0.38474536,-0.37426835,-0.36228597,-0.3443122,-0.32486367,-0.30839545,-0.29490745,-0.28295577,-0.26498199,-0.24101704,-0.21855754,-0.19910902,-0.17366928,-0.14073282,-0.10478532,-0.07335436,-0.047914565,-0.026960611,-0.004501164,0.023949623,0.047914505,0.067363024,0.08383131,0.10180497,0.116767764,0.13022506,0.1287502,0.12423372,0.119748,0.116767764,0.10927105,0.08982253,0.0628773,0.026929855,-0.022474945,-0.08684236,-0.16767806,-0.251494,-0.3323297,-0.40867966,-0.48355484,-0.55987406,-0.62276673,-0.670666,-0.70360243,-0.72606194,-0.7515017,-0.7739611,-0.79193485,-0.8039174,-0.81138337,-0.8173746,-0.81138337,-0.7979261,-0.7769414,-0.7664644,-0.7664644,-0.7664644,-0.7619786,-0.7530072,-0.7410247,-0.7365389,-0.73205316,-0.72606194,-0.7200707,-0.7170904,-0.71407944,-0.70959365,-0.6961057,-0.6826485,-0.6781627,-0.68562865,-0.69162,-0.6931254,-0.68562865,-0.67963743,-0.681143,-0.681143,-0.6781627,-0.67367697,-0.6691605,-0.670666,-0.67367697,-0.6721715,-0.6721715,-0.6766572,-0.68562865,-0.69162,-0.69162,-0.68863964,-0.68713415,-0.6901145,-0.6901145,-0.68863964,-0.68713415,-0.68863964,-0.6961057,-0.7006222,-0.6991167,-0.69162,-0.6901145,-0.6931254,-0.6961057,-0.6961057,-0.6901145,-0.6826485,-0.6766572,-0.6751517,-0.67367697,-0.67367697,-0.6751517,-0.6766572,-0.6766572,-0.6751517,-0.6751517,-0.67963743,-0.68713415,-0.68863964,-0.68562865,-0.681143,-0.681143,-0.68562865,-0.68863964,-0.6901145,-0.68562865,-0.681143,-0.6766572,-0.6676857,-0.6586835,-0.6557032,-0.6586835,-0.6691605,-0.67367697,-0.6676857,-0.6586835,-0.6557032,-0.6586835,-0.66169447,-0.6586835,-0.6526922,-0.6482065,-0.64522624,-0.63923496,-0.63324374,-0.62725246,-0.62574697,-0.62875795,-0.62574697,-0.597327,-0.55391353,-0.5119748,-0.48355484,-0.47006685,-0.4551041,-0.4266534,-0.37875414,-0.32636917,-0.29042166,-0.28295577,-0.29939324,-0.32486367,-0.34133196,-0.33684617,-0.3323297,-0.35927492,-0.4326446,-0.53892004,-0.6541977,-0.74403566,-0.79042935,-0.8084031,-0.80539215,-0.7859436,-0.7679699,-0.75451267,-0.7499962,-0.75451267,-0.75451267,-0.7470159,-0.7395191,-0.7350334,-0.7365389,-0.73054767,-0.7200707,-0.70808816,-0.70360243,-0.7006222,-0.684154,-0.6586835,-0.63324374,-0.597327,-0.5105001,-0.32185268,-0.02096945,0.34130108,0.61825013,0.7185652,0.69312537,0.56737065,0.35927486,0.08831704,-0.27244794,-0.6407405,-0.8892388,-0.9386435,-0.8248713,-0.6646747,-0.55689377,-0.5314541,-0.56288505,-0.6092788,-0.6407405,-0.64372075,-0.63026345,-0.60780394,-0.5898303,-0.58534455,-0.58383906,-0.5778478,-0.5673708,-0.55689377,-0.5509025,-0.54641676,-0.53892004,-0.5314541,-0.520977,-0.5134803,-0.50002307,-0.48502958,-0.46558106,-0.45209312,-0.44610184,-0.4386359,-0.4326446,-0.4236731,-0.4116906,-0.40569937,-0.39221144,-0.37426835,-0.35331434,-0.33832097,-0.3323297,-0.32486367,-0.30839545,-0.28295577,-0.25899076,-0.24402797,-0.23653126,-0.22755975,-0.20510024,-0.18414623,-0.16319233,-0.13922733,-0.11228204,-0.08383137,-0.05839163,-0.04041791,-0.022474945,-1.5437603e-05,0.02843535,0.05240035,0.070343375,0.08681154,0.10327983,0.12125349,0.13173056,0.13173056,0.1287502,0.13022506,0.1287502,0.12423372,0.10327983,0.07335436,0.03442657,-0.011967123,-0.07037407,-0.14220756,-0.22156852,-0.30538446,-0.38474536,-0.46407562,-0.54193103,-0.6092788,-0.660189,-0.6976112,-0.72606194,-0.74852145,-0.7619786,-0.7679699,-0.7664644,-0.7709809,-0.7799524,-0.7799524,-0.7754666,-0.7649896,-0.7589984,-0.7559874,-0.7530072,-0.7410247,-0.72756743,-0.7200707,-0.72305095,-0.72157615,-0.71407944,-0.70209694,-0.6946309,-0.6946309,-0.6931254,-0.6826485,-0.6676857,-0.660189,-0.6646747,-0.6676857,-0.6646747,-0.6572087,-0.65121746,-0.6541977,-0.6572087,-0.6572087,-0.6541977,-0.6526922,-0.6572087,-0.66169447,-0.6572087,-0.646701,-0.64522624,-0.65121746,-0.660189,-0.66169447,-0.6572087,-0.6557032,-0.660189,-0.6676857,-0.67367697,-0.6721715,-0.670666,-0.670666,-0.6676857,-0.6646747,-0.6586835,-0.66316926,-0.6766572,-0.684154,-0.68713415,-0.681143,-0.6781627,-0.6826485,-0.6901145,-0.6946309,-0.69162,-0.68863964,-0.6826485,-0.6721715,-0.6676857,-0.6646747,-0.6691605,-0.681143,-0.68562865,-0.67963743,-0.6676857,-0.660189,-0.66169447,-0.66169447,-0.66169447,-0.6586835,-0.6572087,-0.66316926,-0.6676857,-0.6661802,-0.6572087,-0.63923496,-0.61527,-0.5763423,-0.5344343,-0.50149786,-0.4895153,-0.48804057,-0.47157234,-0.4251479,-0.36526614,-0.32037795,-0.31438667,-0.3323297,-0.35180885,-0.35331434,-0.3443122,-0.3458177,-0.37724864,-0.44610184,-0.54491127,-0.6557032,-0.75451267,-0.8203549,-0.8458253,-0.8413396,-0.8233658,-0.8098779,-0.8024119,-0.79491514,-0.79042935,-0.79193485,-0.7979261,-0.8024119,-0.7979261,-0.7814579,-0.7649896,-0.7559874,-0.7499962,-0.7470159,-0.74253017,-0.7290422,-0.70959365,-0.6901145,-0.6557032,-0.58085877,-0.41617638,-0.15120977,0.19161224,0.4985175,0.64070964,0.6302327,0.5134803,0.32034707,0.079345584,-0.21855754,-0.56137955,-0.8458253,-0.95959747,-0.90420157,-0.7664644,-0.64971197,-0.6107843,-0.63474923,-0.67367697,-0.6976112,-0.70209694,-0.6931254,-0.6826485,-0.670666,-0.6557032,-0.6407405,-0.63324374,-0.62875795,-0.62276673,-0.61527,-0.6092788,-0.60780394,-0.6032875,-0.594316,-0.5778478,-0.55987406,-0.5509025,-0.54491127,-0.5374453,-0.5284431,-0.5194715,-0.5074891,-0.4940318,-0.4790383,-0.46257013,-0.4506184,-0.4506184,-0.4446271,-0.4326446,-0.41467088,-0.39522237,-0.38323987,-0.36827713,-0.35180885,-0.3323297,-0.30990094,-0.29343265,-0.27696443,-0.25299948,-0.22605425,-0.19910902,-0.17514408,-0.14970428,-0.11977881,-0.08383137,-0.053905845,-0.03295183,-0.014978111,0.0045011044,0.026929855,0.043398023,0.05387509,0.05839157,0.06886852,0.082325816,0.09581375,0.10029948,0.10029948,0.09280288,0.07784009,0.047914505,-1.5437603e-05,-0.05839163,-0.12125361,-0.18562102,-0.26049626,-0.3443122,-0.4311391,-0.51646054,-0.5913358,-0.6586835,-0.7185652,-0.7634841,-0.79491514,-0.81288886,-0.8263461,-0.8413396,-0.8488056,-0.8473308,-0.8398341,-0.8308626,-0.8263461,-0.8218603,-0.8173746,-0.81138337,-0.8039174,-0.80090636,-0.7979261,-0.79340965,-0.7874491,-0.7814579,-0.7769414,-0.7694754,-0.7589984,-0.7470159,-0.7410247,-0.7410247,-0.7380444,-0.7290422,-0.7185652,-0.70808816,-0.70360243,-0.70808816,-0.70959365,-0.70959365,-0.70959365,-0.71109915,-0.7051079,-0.6976112,-0.68863964,-0.68562865,-0.68863964,-0.6901145,-0.68863964,-0.6826485,-0.684154,-0.6931254,-0.70209694,-0.70658267,-0.70658267,-0.70209694,-0.70360243,-0.70658267,-0.70658267,-0.70360243,-0.70658267,-0.71558493,-0.7185652,-0.71558493,-0.70658267,-0.6961057,-0.6961057,-0.6991167,-0.7006222,-0.6976112,-0.6991167,-0.70658267,-0.70808816,-0.7051079,-0.6976112,-0.68863964,-0.6901145,-0.6931254,-0.6931254,-0.69162,-0.6901145,-0.6931254,-0.6946309,-0.6901145,-0.684154,-0.684154,-0.68863964,-0.6931254,-0.69162,-0.6826485,-0.6766572,-0.6766572,-0.6751517,-0.6721715,-0.6661802,-0.66316926,-0.6721715,-0.67963743,-0.67963743,-0.670666,-0.6541977,-0.63324374,-0.594316,-0.5434365,-0.49550658,-0.46708655,-0.45958984,-0.44760734,-0.4101851,-0.3458177,-0.29490745,-0.2814502,-0.29791844,-0.32335818,-0.3323297,-0.32335818,-0.32185268,-0.3458177,-0.40268838,-0.4895153,-0.5913358,-0.6961057,-0.7784469,-0.8263461,-0.8443198,-0.8398341,-0.8263461,-0.81439435,-0.8024119,-0.79340965,-0.79340965,-0.80090636,-0.8039174,-0.8039174,-0.79642063,-0.78892386,-0.7859436,-0.78293264,-0.7754666,-0.7605039,-0.7470159,-0.73054767,-0.7200707,-0.6976112,-0.63026345,-0.46407562,-0.19161224,0.16466701,0.5119748,0.6961057,0.6901144,0.56137943,0.35478914,0.119748,-0.14073282,-0.4506184,-0.7395191,-0.90420157,-0.9071818,-0.8039174,-0.6976112,-0.6526922,-0.6721715,-0.71257395,-0.7335279,-0.7350334,-0.72606194,-0.71109915,-0.6946309,-0.6781627,-0.6661802,-0.660189,-0.6572087,-0.65121746,-0.6407405,-0.62875795,-0.61975574,-0.6107843,-0.6032875,-0.5913358,-0.58383906,-0.5778478,-0.57038176,-0.55987406,-0.54491127,-0.5344343,-0.5284431,-0.520977,-0.5105001,-0.49550658,-0.48054385,-0.46708655,-0.44911283,-0.4311391,-0.40867966,-0.39371687,-0.38622016,-0.37875414,-0.36526614,-0.3458177,-0.32784396,-0.31137568,-0.29192716,-0.26648748,-0.23502576,-0.20958596,-0.18712652,-0.16617256,-0.13474154,-0.10029966,-0.06886858,-0.044903636,-0.029940844,-0.010492325,0.013472676,0.037406802,0.05240035,0.067363024,0.08082032,0.09280288,0.10180497,0.10478532,0.10629082,0.10779631,0.10327983,0.08681154,0.04640901,-0.0074813366,-0.06736308,-0.13323605,-0.20510024,-0.28593594,-0.36677164,-0.44610184,-0.5149858,-0.58233356,-0.64372075,-0.6946309,-0.7335279,-0.7559874,-0.7709809,-0.78443813,-0.79491514,-0.8024119,-0.8039174,-0.8039174,-0.8098779,-0.8084031,-0.79940087,-0.78443813,-0.77245563,-0.7664644,-0.7664644,-0.7634841,-0.7530072,-0.7470159,-0.74253017,-0.7395191,-0.7350334,-0.72606194,-0.7170904,-0.71257395,-0.70959365,-0.7051079,-0.6946309,-0.68562865,-0.68713415,-0.6931254,-0.6976112,-0.6991167,-0.6976112,-0.6946309,-0.69162,-0.6901145,-0.68713415,-0.6901145,-0.6991167,-0.70658267,-0.70808816,-0.6991167,-0.6946309,-0.70209694,-0.71109915,-0.7200707,-0.72305095,-0.72455645,-0.7290422,-0.73205316,-0.7290422,-0.72157615,-0.7200707,-0.72606194,-0.73205316,-0.7335279,-0.72756743,-0.72455645,-0.73054767,-0.7410247,-0.7455104,-0.7395191,-0.73205316,-0.7290422,-0.72756743,-0.7290422,-0.72606194,-0.72455645,-0.72606194,-0.72756743,-0.72455645,-0.7170904,-0.71257395,-0.71257395,-0.70808816,-0.70209694,-0.6976112,-0.6991167,-0.71109915,-0.72305095,-0.72455645,-0.71257395,-0.6991167,-0.6991167,-0.7006222,-0.70360243,-0.7006222,-0.6931254,-0.68713415,-0.684154,-0.684154,-0.6781627,-0.6781627,-0.67963743,-0.6826485,-0.67963743,-0.6721715,-0.6691605,-0.6721715,-0.67963743,-0.6826485,-0.6751517,-0.6661802,-0.66169447,-0.660189,-0.6586835,-0.6482065,-0.6317382,-0.60780394,-0.5673708,-0.51796603,-0.47157234,-0.44014138,-0.4206621,-0.39522237,-0.3458177,-0.28443044,-0.24700826,-0.24851376,-0.27545893,-0.30688995,-0.31887245,-0.31438667,-0.31887245,-0.3458177,-0.4116906,-0.50450885,-0.6122897,-0.7185652,-0.79642063,-0.8383286,-0.8503111,-0.8458253,-0.8338429,-0.8218603,-0.80539215,-0.79193485,-0.7874491,-0.79340965,-0.80090636,-0.7979261,-0.78293264,-0.7679699,-0.7619786,-0.7634841,-0.7619786,-0.7559874,-0.74403566,-0.72756743,-0.71257395,-0.6826485,-0.61527,-0.45808434,-0.19161224,0.15717018,0.51495504,0.7200707,0.73054755,0.60328746,0.3862201,0.13474154,-0.13474154,-0.44911283,-0.7380444,-0.90420157,-0.9012213,-0.78892386,-0.6721715,-0.62574697,-0.646701,-0.69162,-0.71558493,-0.7185652,-0.71109915,-0.70209694,-0.6931254,-0.67963743,-0.6661802,-0.6572087,-0.6526922,-0.64522624,-0.63324374,-0.62126124,-0.6122897,-0.6018127,-0.5883248,-0.57038176,-0.55689377,-0.552408,-0.5509025,-0.5434365,-0.5329288,-0.5239573,-0.51646054,-0.5074891,-0.4910208,-0.47006685,-0.45359862,-0.44610184,-0.4446271,-0.44014138,-0.42815888,-0.4131961,-0.39970815,-0.38323987,-0.36078048,-0.3323297,-0.30688995,-0.28593594,-0.26946777,-0.25450498,-0.23355097,-0.21109146,-0.19161224,-0.16466707,-0.12875026,-0.08684236,-0.05240035,-0.02843535,-0.011967123,0.008986831,0.035932064,0.05986631,0.07784009,0.08831704,0.09879398,0.116767764,0.13022506,0.13621616,0.13772166,0.14070201,0.13922715,0.12423372,0.09280288,0.043398023,-0.016483605,-0.082325876,-0.15569556,-0.23502576,-0.31736696,-0.39970815,-0.47157234,-0.5434365,-0.6092788,-0.6661802,-0.70959365,-0.7380444,-0.7619786,-0.7814579,-0.79642063,-0.80090636,-0.7979261,-0.79193485,-0.79042935,-0.79042935,-0.78443813,-0.7739611,-0.7679699,-0.7649896,-0.7605039,-0.7530072,-0.7380444,-0.72305095,-0.71558493,-0.71109915,-0.70808816,-0.70209694,-0.6991167,-0.70209694,-0.7051079,-0.7006222,-0.68713415,-0.67963743,-0.67963743,-0.684154,-0.69162,-0.6901145,-0.68713415,-0.68562865,-0.684154,-0.6781627,-0.6661802,-0.660189,-0.66169447,-0.6676857,-0.6751517,-0.6751517,-0.6766572,-0.681143,-0.684154,-0.68562865,-0.681143,-0.6766572,-0.6781627,-0.67963743,-0.6751517,-0.6691605,-0.6646747,-0.6691605,-0.6781627,-0.684154,-0.6826485,-0.6781627,-0.6751517,-0.6721715,-0.6691605,-0.6646747,-0.66316926,-0.6691605,-0.6721715,-0.6721715,-0.66316926,-0.66169447,-0.6646747,-0.6691605,-0.67367697,-0.670666,-0.6676857,-0.6691605,-0.6676857,-0.66169447,-0.64971197,-0.63772947,-0.63324374,-0.63772947,-0.64221525,-0.64522624,-0.64372075,-0.64221525,-0.64372075,-0.64372075,-0.64372075,-0.64221525,-0.64522624,-0.6482065,-0.64522624,-0.636224,-0.62725246,-0.62574697,-0.62875795,-0.6317382,-0.63026345,-0.62725246,-0.62574697,-0.6242722,-0.618281,-0.60780394,-0.6003072,-0.5958215,-0.59880173,-0.59880173,-0.5883248,-0.5793533,-0.5763423,-0.5658653,-0.5493971,-0.5149858,-0.47455257,-0.4431216,-0.4236731,-0.40720487,-0.37125736,-0.31736696,-0.26049626,-0.22605425,-0.22156852,-0.23954225,-0.26347643,-0.27696443,-0.27545893,-0.27545893,-0.29791844,-0.3578002,-0.4551041,-0.56887627,-0.6676857,-0.72305095,-0.7470159,-0.74852145,-0.7350334,-0.7200707,-0.70808816,-0.6991167,-0.6976112,-0.6991167,-0.6991167,-0.6901145,-0.6826485,-0.6781627,-0.6781627,-0.6766572,-0.6721715,-0.670666,-0.670666,-0.6661802,-0.64522624,-0.61975574,-0.5958215,-0.56288505,-0.46708655,-0.25450498,0.070343375,0.45359862,0.7350334,0.83083177,0.7919041,0.64971185,0.41765106,0.116767764,-0.26049626,-0.636224,-0.8682848,-0.8997158,-0.7799524,-0.62574697,-0.5329288,-0.51796603,-0.55987406,-0.6092788,-0.63474923,-0.6317382,-0.6122897,-0.5928105,-0.58233356,-0.5763423,-0.5658653,-0.5509025,-0.53892004,-0.5329288,-0.5299486,-0.5254628,-0.51646054,-0.5089946,-0.49851757,-0.48653507,-0.47157234,-0.4551041,-0.4446271,-0.4446271,-0.44760734,-0.44161612,-0.4251479,-0.40268838,-0.38622016,-0.37724864,-0.36978263,-0.35927492,-0.34879798,-0.33383518,-0.32037795,-0.30688995,-0.28891617,-0.27395344,-0.25899076,-0.24700826,-0.22454876,-0.19462323,-0.16767806,-0.14819878,-0.13474154,-0.11827332,-0.08982253,-0.061371863,-0.031446338,-0.006006658,0.019463778,0.04640901,0.07335436,0.08982253,0.10478532,0.11827326,0.13173056,0.143713,0.15120971,0.15268457,0.15717018,0.16316152,0.16316152,0.15268457,0.13022506,0.09581375,0.05839157,0.008986831,-0.055380642,-0.13025576,-0.20958596,-0.29042166,-0.36978263,-0.44760734,-0.5224518,-0.58685005,-0.636224,-0.6751517,-0.70658267,-0.7335279,-0.7499962,-0.7574929,-0.7619786,-0.7664644,-0.7739611,-0.7754666,-0.7694754,-0.7605039,-0.7499962,-0.7410247,-0.7395191,-0.7350334,-0.7380444,-0.7395191,-0.73205316,-0.7185652,-0.7006222,-0.68863964,-0.68562865,-0.684154,-0.681143,-0.670666,-0.6646747,-0.66169447,-0.66169447,-0.66169447,-0.6557032,-0.65121746,-0.6526922,-0.6572087,-0.6572087,-0.6557032,-0.6557032,-0.6586835,-0.6646747,-0.66169447,-0.6557032,-0.646701,-0.6482065,-0.64971197,-0.6526922,-0.6526922,-0.6572087,-0.6646747,-0.6691605,-0.6676857,-0.6586835,-0.6572087,-0.66316926,-0.6691605,-0.6691605,-0.66169447,-0.6572087,-0.660189,-0.6661802,-0.6661802,-0.6557032,-0.64971197,-0.64971197,-0.6557032,-0.6586835,-0.6557032,-0.6482065,-0.64971197,-0.6572087,-0.6586835,-0.6557032,-0.6541977,-0.6572087,-0.6646747,-0.6721715,-0.67367697,-0.6721715,-0.6751517,-0.6781627,-0.6751517,-0.6661802,-0.66169447,-0.6646747,-0.6751517,-0.6826485,-0.67963743,-0.6721715,-0.6661802,-0.6661802,-0.6661802,-0.66169447,-0.660189,-0.6572087,-0.6557032,-0.64971197,-0.63923496,-0.62875795,-0.62126124,-0.60780394,-0.5778478,-0.5329288,-0.4925263,-0.47304714,-0.47157234,-0.46407562,-0.4311391,-0.37875414,-0.32784396,-0.30390966,-0.30390966,-0.31586146,-0.32784396,-0.33085495,-0.33383518,-0.35030347,-0.39221144,-0.46856135,-0.5748675,-0.684154,-0.7679699,-0.8098779,-0.8218603,-0.81439435,-0.80689764,-0.79940087,-0.79193485,-0.78892386,-0.7859436,-0.7859436,-0.7799524,-0.7694754,-0.7634841,-0.7619786,-0.7664644,-0.7679699,-0.7605039,-0.7530072,-0.7470159,-0.7350334,-0.71558493,-0.6946309,-0.67367697,-0.61975574,-0.47756356,-0.21855754,0.13474154,0.48352396,0.66618013,0.6826483,0.58832467,0.4116906,0.17815506,-0.11977881,-0.47304714,-0.78293264,-0.9356325,-0.9116983,-0.79193485,-0.67963743,-0.6317382,-0.63923496,-0.6691605,-0.6931254,-0.6976112,-0.68863964,-0.6721715,-0.6526922,-0.64221525,-0.63772947,-0.636224,-0.63324374,-0.62875795,-0.6242722,-0.618281,-0.6107843,-0.59880173,-0.5913358,-0.5883248,-0.58685005,-0.58085877,-0.5673708,-0.55391353,-0.54491127,-0.54193103,-0.5359398,-0.5194715,-0.50300336,-0.4910208,-0.48355484,-0.47605807,-0.46109533,-0.4431216,-0.4251479,-0.4131961,-0.39672786,-0.37724864,-0.35927492,-0.33982646,-0.32335818,-0.30390966,-0.27843922,-0.25299948,-0.22903448,-0.20510024,-0.17966056,-0.14970428,-0.122759044,-0.09879416,-0.07485986,-0.050894856,-0.022474945,0.0059758425,0.031446338,0.050894856,0.06585753,0.079345584,0.085336804,0.08982253,0.09280288,0.10029948,0.10927105,0.10779631,0.091328025,0.056886077,0.014978051,-0.03295183,-0.09430832,-0.16767806,-0.25299948,-0.33832097,-0.4131961,-0.48502958,-0.55391353,-0.62276673,-0.68562865,-0.7290422,-0.7649896,-0.79042935,-0.8098779,-0.8218603,-0.8248713,-0.8263461,-0.8308626,-0.8338429,-0.8338429,-0.8233658,-0.81288886,-0.8039174,-0.7979261,-0.79042935,-0.78293264,-0.7754666,-0.7709809,-0.7709809,-0.7664644,-0.7559874,-0.7470159,-0.74403566,-0.74403566,-0.7410247,-0.73205316,-0.72305095,-0.7170904,-0.71558493,-0.71407944,-0.70658267,-0.7006222,-0.7006222,-0.70808816,-0.71109915,-0.70658267,-0.70209694,-0.6961057,-0.6931254,-0.68713415,-0.6781627,-0.6751517,-0.6826485,-0.6976112,-0.70959365,-0.70658267,-0.6991167,-0.69162,-0.6901145,-0.6931254,-0.6946309,-0.6961057,-0.6946309,-0.6961057,-0.6946309,-0.6931254,-0.6931254,-0.6976112,-0.70209694,-0.7051079,-0.7006222,-0.6976112,-0.6961057,-0.6976112,-0.6961057,-0.69162,-0.68863964,-0.68863964,-0.69162,-0.69162,-0.68863964,-0.68562865,-0.68713415,-0.69162,-0.6931254,-0.6901145,-0.68713415,-0.6901145,-0.6946309,-0.6946309,-0.68863964,-0.684154,-0.6826485,-0.68562865,-0.68562865,-0.6781627,-0.670666,-0.6721715,-0.684154,-0.6946309,-0.6976112,-0.6961057,-0.6931254,-0.6961057,-0.6991167,-0.6976112,-0.6961057,-0.6946309,-0.6931254,-0.68863964,-0.6781627,-0.6721715,-0.67367697,-0.6781627,-0.681143,-0.6751517,-0.6646747,-0.6572087,-0.65121746,-0.64372075,-0.62574697,-0.5958215,-0.55391353,-0.5134803,-0.47756356,-0.45660955,-0.44610184,-0.4266534,-0.38622016,-0.33383518,-0.29192716,-0.28593594,-0.30990094,-0.33982646,-0.35180885,-0.33982646,-0.33684617,-0.36827713,-0.44610184,-0.54792225,-0.6586835,-0.7515017,-0.81439435,-0.8488056,-0.8518166,-0.8308626,-0.8084031,-0.7979261,-0.79940087,-0.80090636,-0.7979261,-0.79042935,-0.7859436,-0.7859436,-0.7859436,-0.7769414,-0.7649896,-0.7574929,-0.7559874,-0.7559874,-0.74403566,-0.72157615,-0.6991167,-0.67367697,-0.61975574,-0.47756356,-0.22307402,0.122758985,0.4910208,0.7200707,0.75150156,0.64670086,0.44911277,0.21256626,-0.041923404,-0.33684617,-0.63026345,-0.8263461,-0.86975956,-0.7874491,-0.6751517,-0.6122897,-0.62126124,-0.670666,-0.70959365,-0.71558493,-0.7051079,-0.6931254,-0.68863964,-0.684154,-0.6751517,-0.66169447,-0.64971197,-0.6407405,-0.62574697,-0.6092788,-0.5958215,-0.5913358,-0.59880173,-0.6018127,-0.5913358,-0.5778478,-0.56288505,-0.552408,-0.54491127,-0.5344343,-0.520977,-0.5105001,-0.50450885,-0.4940318,-0.47756356,-0.45808434,-0.44014138,-0.4311391,-0.4191566,-0.40268838,-0.38323987,-0.36677164,-0.35629463,-0.34879798,-0.33684617,-0.31736696,-0.29490745,-0.27244794,-0.24550277,-0.21256626,-0.18113536,-0.15271527,-0.13173056,-0.109301805,-0.082325876,-0.050894856,-0.023949623,-0.0029956698,0.017958403,0.038912296,0.055380583,0.067363024,0.076334596,0.08681154,0.09879398,0.11228204,0.119748,0.11526227,0.10180497,0.082325816,0.055380583,0.014978051,-0.038912416,-0.10180515,-0.17216378,-0.24851376,-0.32784396,-0.4101851,-0.4895153,-0.5553883,-0.6122897,-0.66169447,-0.70658267,-0.74253017,-0.7664644,-0.7874491,-0.8024119,-0.81439435,-0.8203549,-0.81586915,-0.80689764,-0.8039174,-0.80539215,-0.80539215,-0.79642063,-0.78443813,-0.77245563,-0.7679699,-0.7679699,-0.7649896,-0.7605039,-0.7559874,-0.7559874,-0.7515017,-0.74403566,-0.7395191,-0.7335279,-0.73205316,-0.73054767,-0.72606194,-0.72157615,-0.72305095,-0.72455645,-0.72305095,-0.7170904,-0.70959365,-0.70658267,-0.70959365,-0.71109915,-0.71109915,-0.70959365,-0.70808816,-0.71257395,-0.71558493,-0.71257395,-0.71257395,-0.71407944,-0.7170904,-0.7170904,-0.71257395,-0.71109915,-0.7200707,-0.7365389,-0.74852145,-0.74852145,-0.7410247,-0.7350334,-0.7350334,-0.7365389,-0.7335279,-0.7290422,-0.72756743,-0.73054767,-0.73054767,-0.72606194,-0.72157615,-0.72157615,-0.72455645,-0.72606194,-0.72157615,-0.70959365,-0.70360243,-0.70209694,-0.70209694,-0.6991167,-0.69162,-0.68562865,-0.68713415,-0.68863964,-0.6931254,-0.6976112,-0.70209694,-0.70808816,-0.70808816,-0.70209694,-0.6961057,-0.69162,-0.6931254,-0.69162,-0.68713415,-0.67963743,-0.6781627,-0.6826485,-0.684154,-0.6781627,-0.670666,-0.6691605,-0.67367697,-0.6781627,-0.6766572,-0.6721715,-0.6691605,-0.670666,-0.6676857,-0.660189,-0.65121746,-0.6482065,-0.6557032,-0.66169447,-0.6646747,-0.660189,-0.6541977,-0.6526922,-0.64971197,-0.64372075,-0.63772947,-0.63324374,-0.63026345,-0.62276673,-0.6018127,-0.5658653,-0.5239573,-0.4895153,-0.46558106,-0.44760734,-0.4251479,-0.39073664,-0.3428067,-0.29939324,-0.27545893,-0.2814502,-0.30688995,-0.32934946,-0.32934946,-0.32185268,-0.33684617,-0.39672786,-0.5074891,-0.63923496,-0.7470159,-0.81439435,-0.8428143,-0.8443198,-0.8293571,-0.81138337,-0.79340965,-0.78293264,-0.7859436,-0.7859436,-0.7859436,-0.78443813,-0.78443813,-0.7874491,-0.7859436,-0.7769414,-0.7664644,-0.7574929,-0.7559874,-0.7499962,-0.73205316,-0.70808816,-0.6901145,-0.6557032,-0.55391353,-0.3323297,-0.0074813366,0.37276292,0.66467464,0.75300705,0.69312537,0.53142333,0.30089855,0.038912296,-0.27395344,-0.60479295,-0.8503111,-0.9341578,-0.86975956,-0.7395191,-0.64221525,-0.61975574,-0.6541977,-0.7006222,-0.72157615,-0.71407944,-0.6931254,-0.6766572,-0.6691605,-0.6646747,-0.6541977,-0.64221525,-0.63026345,-0.6242722,-0.6137952,-0.6003072,-0.58685005,-0.58233356,-0.58534455,-0.58534455,-0.5763423,-0.55987406,-0.54193103,-0.5299486,-0.5194715,-0.5059836,-0.49701208,-0.48804057,-0.48502958,-0.4790383,-0.46558106,-0.44911283,-0.4356249,-0.4251479,-0.4116906,-0.39221144,-0.36978263,-0.35030347,-0.33383518,-0.31736696,-0.29490745,-0.26946777,-0.24700826,-0.23053998,-0.21109146,-0.18712652,-0.16018134,-0.13323605,-0.11228204,-0.08684236,-0.053905845,-0.022474945,0.0045011044,0.023949623,0.038912296,0.056886077,0.076334596,0.09280288,0.10029948,0.10478532,0.10927105,0.11077654,0.10779631,0.10029948,0.08831704,0.07335436,0.047914505,0.0014901161,-0.06438285,-0.13922733,-0.21557724,-0.29042166,-0.36677164,-0.44760734,-0.5224518,-0.5913358,-0.646701,-0.6946309,-0.7365389,-0.7694754,