-0.727566,-0.7215724,-0.7185756,-0.7195847,-0.7235601,-0.7245692,-0.7175665,-0.7105943,-0.7115729,-0.7175665,-0.722551,-0.7185756,-0.7105943,-0.7075975,-0.7115729,-0.7145697,-0.71359116,-0.7105943,-0.7105943,-0.71658796,-0.7185756,-0.71359116,-0.7086066,-0.7086066,-0.7155788,-0.7235601,-0.7215724,-0.7155788,-0.71359116,-0.71658796,-0.7195847,-0.7185756,-0.7175665,-0.7185756,-0.7235601,-0.7245692,-0.7175665,-0.7115729,-0.7095852,-0.7145697,-0.7185756,-0.712582,-0.7065884,-0.70560986,-0.7105943,-0.712582,-0.7065884,-0.7005948,-0.6976286,-0.70261306,-0.7075975,-0.70560986,-0.7005948,-0.69661945,-0.69362265,-0.6866505,-0.6726756,-0.65967923,-0.65967923,-0.6726756,-0.6846322,-0.687629,-0.67665094,-0.6606884,-0.6457044,-0.626745,-0.60381025,-0.58384174,-0.5728637,-0.5738728,-0.58084494,-0.5878477,-0.5998043,-0.6237482,-0.6636852,-0.70560986,-0.7365259,-0.752519,-0.75949115,-0.7634971,-0.762488,-0.75649434,-0.7495222,-0.7485131,-0.752519,-0.752519,-0.7455163,-0.7355473,-0.7305628,-0.7335291,-0.7365259,-0.7335291,-0.7345382,-0.75349754,-0.7914163,-0.8373469,-0.8612908,-0.8263688,-0.7046007,-0.47305173,-0.15269947,0.20658076,0.52595437,0.687629,0.62873256,0.34929597,-0.07585281,-0.5110011,-0.8223629,-0.96009356,-0.9491155,-0.87125975,-0.8064003,-0.7924254,-0.8173784,-0.848325,-0.8612908,-0.85728484,-0.8473159,-0.8393346,-0.8323319,-0.8223629,-0.8113848,-0.8034035,-0.8004067,-0.7974099,-0.78643185,-0.77346605,-0.76447564,-0.762488,-0.76147884,-0.7575035,-0.7515099,-0.7465254,-0.7465254,-0.7435286,-0.7335291,-0.7205633,-0.712582,-0.712582,-0.71359116,-0.7095852,-0.7016039,-0.6956103,-0.6926135,-0.68564135,-0.67166644,-0.6576916,-0.64870113,-0.6467135,-0.641729,-0.6297418,-0.6137792,-0.601792,-0.59582895,-0.58582944,-0.56687003,-0.5449139,-0.5239668,-0.505986,-0.48702657,-0.46308273,-0.44311428,-0.43314528,-0.4341238,-0.43513292,-0.42913932,-0.42017955,-0.41617358,-0.42017955,-0.42415488,-0.42415488,-0.42715168,-0.4421357,-0.4710641,-0.50399834,-0.5349449,-0.5648824,-0.601792,-0.6467135,-0.68863815,-0.722551,-0.7495222,-0.77646285,-0.80441266,-0.8243506,-0.8323319,-0.833341,-0.8343501,-0.8383255,-0.8373469,-0.8303442,-0.8203752,-0.8143816,-0.8143816,-0.81239396,-0.8034035,-0.7924254,-0.78643185,-0.787441,-0.78444415,-0.77245694,-0.7575035,-0.74750394,-0.7455163,-0.7445072,-0.7385441,-0.7295537,-0.7245692,-0.7265569,-0.7265569,-0.7195847,-0.7105943,-0.7046007,-0.70560986,-0.70560986,-0.6986071,-0.687629,-0.68264455,-0.6866505,-0.69163495,-0.6896167,-0.6846322,-0.68163544,-0.68564135,-0.68863815,-0.6866505,-0.68264455,-0.6836537,-0.6926135,-0.7005948,-0.69961625,-0.6956103,-0.69463176,-0.69961625,-0.70261306,-0.69961625,-0.69362265,-0.6926135,-0.6986071,-0.70261306,-0.69961625,-0.6926135,-0.69163495,-0.6986071,-0.7035916,-0.7016039,-0.6926135,-0.687629,-0.69062585,-0.69463176,-0.6926135,-0.68863815,-0.68564135,-0.68863815,-0.69062585,-0.6846322,-0.6746633,-0.6656729,-0.6636852,-0.6616975,-0.6566825,-0.64870113,-0.64870113,-0.6557039,-0.6616975,-0.6576916,-0.6427381,-0.6257664,-0.6137792,-0.6008134,-0.58185405,-0.5608764,-0.5449139,-0.545923,-0.5569011,-0.5698669,-0.5828326,-0.60381025,-0.6377231,-0.6786386,-0.71359116,-0.7365259,-0.75050074,-0.75649434,-0.75349754,-0.7425195,-0.7305628,-0.7255478,-0.7285446,-0.7305628,-0.727566,-0.7215724,-0.7185756,-0.722551,-0.7245692,-0.7175665,-0.7115729,-0.722551,-0.762488,-0.81539077,-0.85428804,-0.8373469,-0.7315414,-0.5069951,-0.16866201,0.22954595,0.61276996,0.8523003,0.8592725,0.627754,0.21755886,-0.24052411,-0.6077856,-0.8203752,-0.8842561,-0.86028165,-0.8243506,-0.81838757,-0.8423314,-0.86826295,-0.87826246,-0.873278,-0.8642876,-0.858294,-0.8533095,-0.84330994,-0.8283565,-0.8173784,-0.8113848,-0.8053912,-0.7944131,-0.78043824,-0.7714784,-0.7694601,-0.7684816,-0.76147884,-0.7515099,-0.7445072,-0.7435286,-0.7405318,-0.7315414,-0.7205633,-0.71359116,-0.7145697,-0.7145697,-0.7065884,-0.69362265,-0.6836537,-0.67964774,-0.6756724,-0.666682,-0.6537162,-0.6437167,-0.6407199,-0.6357354,-0.6247573,-0.60879475,-0.5968075,-0.5878477,-0.5778481,-0.5608764,-0.5409385,-0.5229577,-0.5119796,-0.49800473,-0.47705764,-0.4521047,-0.43314528,-0.42516404,-0.42017955,-0.41418594,-0.40620464,-0.40320778,-0.40718317,-0.41017997,-0.40920144,-0.40920144,-0.42216718,-0.450117,-0.48402983,-0.5179732,-0.5519166,-0.5908139,-0.6347263,-0.67665094,-0.7095852,-0.7355473,-0.75949115,-0.7854533,-0.8064003,-0.8163693,-0.8163693,-0.81539077,-0.8173784,-0.81838757,-0.8133725,-0.80441266,-0.7993976,-0.79841906,-0.7974099,-0.7884195,-0.77346605,-0.7634971,-0.76147884,-0.76147884,-0.75548524,-0.7455163,-0.737535,-0.7355473,-0.7345382,-0.7285446,-0.7175665,-0.7105943,-0.7095852,-0.7105943,-0.70560986,-0.6986071,-0.69362265,-0.6956103,-0.69661945,-0.6926135,-0.6836537,-0.67964774,-0.68564135,-0.69163495,-0.69163495,-0.68564135,-0.68163544,-0.6846322,-0.68863815,-0.68863815,-0.6836537,-0.68163544,-0.6866505,-0.69163495,-0.6896167,-0.6846322,-0.6806569,-0.6846322,-0.68863815,-0.68863815,-0.6836537,-0.68163544,-0.6846322,-0.6896167,-0.687629,-0.6836537,-0.68163544,-0.6866505,-0.69163495,-0.69062585,-0.6846322,-0.68163544,-0.68564135,-0.6896167,-0.6896167,-0.68564135,-0.68163544,-0.68264455,-0.67964774,-0.67166644,-0.66267604,-0.65967923,-0.666682,-0.6746633,-0.6756724,-0.6696788,-0.666682,-0.67065734,-0.6726756,-0.6696788,-0.6616975,-0.6546948,-0.651698,-0.6457044,-0.6367445,-0.626745,-0.6227696,-0.6327386,-0.6427381,-0.6457044,-0.6387322,-0.6257664,-0.6137792,-0.5998043,-0.57885724,-0.555892,-0.5389202,-0.5329572,-0.5379417,-0.545923,-0.5549134,-0.570876,-0.5998043,-0.6367445,-0.67365414,-0.70261306,-0.7245692,-0.7395227,-0.7415409,-0.7335291,-0.7235601,-0.7185756,-0.7235601,-0.7285446,-0.7255478,-0.7175665,-0.7115729,-0.712582,-0.71359116,-0.7095852,-0.70261306,-0.7086066,-0.7435286,-0.7993976,-0.8513218,-0.86526614,-0.79841906,-0.6187637,-0.30339593,0.10380256,0.53592336,0.8752656,0.9910095,0.8482944,0.48002386,-1.5318394e-05,-0.43913895,-0.7325505,-0.8612908,-0.873278,-0.84630674,-0.8373469,-0.8593031,-0.8842561,-0.89523417,-0.89122826,-0.8812593,-0.87725335,-0.87526566,-0.86826295,-0.85529715,-0.8423314,-0.8363378,-0.8303442,-0.8193661,-0.80441266,-0.7914163,-0.78444415,-0.78043824,-0.77245694,-0.762488,-0.75349754,-0.75050074,-0.74750394,-0.7405318,-0.7295537,-0.7215724,-0.7195847,-0.7175665,-0.7105943,-0.6986071,-0.69062585,-0.6896167,-0.68863815,-0.6806569,-0.6646943,-0.651698,-0.6447258,-0.6397413,-0.6297418,-0.6147883,-0.6008134,-0.591823,-0.58185405,-0.5658915,-0.5439353,-0.5239668,-0.5110011,-0.49800473,-0.47803622,-0.45409232,-0.43513292,-0.42614257,-0.42216718,-0.41617358,-0.40620464,-0.39822334,-0.39721423,-0.39620507,-0.39421743,-0.39122063,-0.39920193,-0.42017955,-0.4491079,-0.48005444,-0.5110011,-0.5489198,-0.5938107,-0.6397413,-0.67665094,-0.7065884,-0.7345382,-0.7634971,-0.787441,-0.8004067,-0.80141586,-0.80141586,-0.808388,-0.8163693,-0.8173784,-0.8103757,-0.8023944,-0.79841906,-0.7944131,-0.78643185,-0.77346605,-0.76447564,-0.76147884,-0.75848204,-0.75050074,-0.737535,-0.7285446,-0.7265569,-0.7265569,-0.7215724,-0.7115729,-0.7065884,-0.7095852,-0.712582,-0.7105943,-0.7005948,-0.6926135,-0.69362265,-0.69961625,-0.7005948,-0.6976286,-0.6956103,-0.6986071,-0.70261306,-0.70261306,-0.6976286,-0.69463176,-0.6976286,-0.7016039,-0.6986071,-0.6926135,-0.68863815,-0.6926135,-0.6976286,-0.6986071,-0.69362265,-0.6896167,-0.69163495,-0.6956103,-0.69463176,-0.6926135,-0.69463176,-0.7016039,-0.7075975,-0.7065884,-0.6976286,-0.6926135,-0.6976286,-0.7035916,-0.7046007,-0.6976286,-0.69163495,-0.69362265,-0.6986071,-0.6986071,-0.6956103,-0.6956103,-0.70261306,-0.7086066,-0.7075975,-0.69961625,-0.69362265,-0.69661945,-0.7005948,-0.7005948,-0.69362265,-0.6896167,-0.69463176,-0.7005948,-0.70261306,-0.69463176,-0.6846322,-0.6776601,-0.67065734,-0.6606884,-0.6497103,-0.6437167,-0.64870113,-0.6576916,-0.6616975,-0.6557039,-0.6437167,-0.6337477,-0.6227696,-0.60680705,-0.58582944,-0.5678792,-0.55888873,-0.5598979,-0.5648824,-0.5728637,-0.591823,-0.6257664,-0.6676605,-0.7086066,-0.7395227,-0.75949115,-0.77245694,-0.7744752,-0.76646334,-0.75349754,-0.7455163,-0.7465254,-0.75050074,-0.75050074,-0.7425195,-0.7355473,-0.7355473,-0.7385441,-0.737535,-0.7335291,-0.7395227,-0.7694601,-0.8163693,-0.86028165,-0.86627525,-0.79841906,-0.6257664,-0.32834888,0.050899863,0.45109534,0.76046956,0.8533094,0.69561017,0.32336438,-0.15269947,-0.5768696,-0.8423314,-0.9351406,-0.90819997,-0.848325,-0.8203752,-0.8343501,-0.8642876,-0.88223785,-0.88223785,-0.87425655,-0.86826295,-0.8642876,-0.85728484,-0.84330994,-0.8293656,-0.8203752,-0.8143816,-0.80740947,-0.79841906,-0.79643136,-0.79841906,-0.79643136,-0.787441,-0.7714784,-0.7575035,-0.75349754,-0.752519,-0.7485131,-0.7395227,-0.7315414,-0.7295537,-0.727566,-0.7205633,-0.7075975,-0.69661945,-0.69463176,-0.69661945,-0.69362265,-0.68163544,-0.67065734,-0.65967923,-0.6497103,-0.6357354,-0.61778516,-0.60381025,-0.5998043,-0.5968075,-0.58882624,-0.570876,-0.5498984,-0.5349449,-0.5199609,-0.5010015,-0.47803622,-0.4580983,-0.4491079,-0.4471202,-0.44311428,-0.43712062,-0.43314528,-0.43513292,-0.44011742,-0.4421357,-0.43913895,-0.4441234,-0.46008593,-0.48402983,-0.5119796,-0.5389202,-0.5728637,-0.6147883,-0.6576916,-0.69463176,-0.7235601,-0.7515099,-0.77945966,-0.80441266,-0.81838757,-0.8213538,-0.8223629,-0.8303442,-0.8353287,-0.8343501,-0.8253597,-0.8173784,-0.8173784,-0.8193661,-0.8143816,-0.8034035,-0.7924254,-0.7884195,-0.787441,-0.78245646,-0.7714784,-0.76447564,-0.76447564,-0.76646334,-0.762488,-0.74750394,-0.7345382,-0.7295537,-0.7285446,-0.7265569,-0.7185756,-0.712582,-0.71359116,-0.7145697,-0.7115729,-0.7035916,-0.6976286,-0.7005948,-0.7075975,-0.7115729,-0.7065884,-0.70261306,-0.7095852,-0.7185756,-0.7235601,-0.7195847,-0.7145697,-0.71359116,-0.7155788,-0.7145697,-0.7075975,-0.70560986,-0.7105943,-0.7205633,-0.7265569,-0.7205633,-0.712582,-0.7095852,-0.7115729,-0.7145697,-0.7145697,-0.7155788,-0.7215724,-0.727566,-0.727566,-0.7215724,-0.7155788,-0.7145697,-0.71658796,-0.71658796,-0.7095852,-0.70560986,-0.7075975,-0.7115729,-0.7095852,-0.69661945,-0.6846322,-0.68163544,-0.68163544,-0.6836537,-0.68163544,-0.6806569,-0.6836537,-0.68564135,-0.67665094,-0.6557039,-0.6347263,-0.6187637,-0.6057979,-0.591823,-0.5768696,-0.5728637,-0.5828326,-0.6028011,-0.6287632,-0.6537162,-0.68564135,-0.7255478,-0.7575035,-0.7714784,-0.76747245,-0.75649434,-0.7515099,-0.752519,-0.75548524,-0.75349754,-0.7515099,-0.752519,-0.75349754,-0.7495222,-0.7385441,-0.7305628,-0.7285446,-0.7325505,-0.7395227,-0.75349754,-0.78643185,-0.8323319,-0.8593031,-0.81539077,-0.6656729,-0.40620464,-0.08383417,0.24948394,0.5199609,0.63172925,0.5319481,0.21557105,-0.22456163,-0.6367445,-0.89523417,-0.97305936,-0.9281685,-0.8473159,-0.79343456,-0.77945966,-0.7944131,-0.8173784,-0.833341,-0.8343501,-0.8243506,-0.8133725,-0.80939716,-0.8103757,-0.8064003,-0.7924254,-0.77646285,-0.7654848,-0.76147884,-0.7575035,-0.75050074,-0.7425195,-0.7395227,-0.737535,-0.7305628,-0.71658796,-0.7065884,-0.70560986,-0.7086066,-0.7065884,-0.69661945,-0.6846322,-0.6806569,-0.6806569,-0.6786386,-0.6676605,-0.6576916,-0.651698,-0.6467135,-0.6397413,-0.6277541,-0.6157669,-0.60980386,-0.6057979,-0.59481984,-0.5758605,-0.555892,-0.5419171,-0.530939,-0.5189823,-0.49901384,-0.48005444,-0.46507043,-0.4531138,-0.44011742,-0.42516404,-0.41418594,-0.41118914,-0.41317677,-0.41317677,-0.40819228,-0.40620464,-0.41118914,-0.42017955,-0.42913932,-0.43712062,-0.45409232,-0.48305124,-0.52197915,-0.5628947,-0.59781665,-0.6357354,-0.6776601,-0.7205633,-0.7545067,-0.7744752,-0.7884195,-0.8034035,-0.8173784,-0.8263688,-0.8243506,-0.81838757,-0.81539077,-0.8143816,-0.8103757,-0.7993976,-0.7894286,-0.7854533,-0.78444415,-0.78043824,-0.77046925,-0.75949115,-0.75349754,-0.752519,-0.74750394,-0.7365259,-0.727566,-0.7255478,-0.7255478,-0.722551,-0.71359116,-0.7046007,-0.7016039,-0.7016039,-0.69961625,-0.6896167,-0.68163544,-0.6806569,-0.68264455,-0.6806569,-0.67166644,-0.6656729,-0.6676605,-0.6726756,-0.6776601,-0.6746633,-0.67065734,-0.67365414,-0.6786386,-0.68163544,-0.6776601,-0.67365414,-0.6756724,-0.68264455,-0.68863815,-0.687629,-0.6866505,-0.6896167,-0.6926135,-0.69163495,-0.6866505,-0.6846322,-0.687629,-0.69362265,-0.6926135,-0.6846322,-0.67665094,-0.6726756,-0.6696788,-0.6636852,-0.6546948,-0.64870113,-0.6527071,-0.66267604,-0.67065734,-0.66866964,-0.66267604,-0.6527071,-0.6407199,-0.6237482,-0.59882575,-0.5768696,-0.5628947,-0.5569011,-0.5578796,-0.5598979,-0.5698669,-0.59481984,-0.6297418,-0.6676605,-0.7005948,-0.7255478,-0.7425195,-0.7515099,-0.7485131,-0.7385441,-0.7315414,-0.7325505,-0.737535,-0.737535,-0.7285446,-0.7205633,-0.7195847,-0.722551,-0.722551,-0.7145697,-0.7075975,-0.712582,-0.737535,-0.77945966,-0.823372,-0.8493036,-0.8143816,-0.67964774,-0.41317677,-0.045915425,0.35229266,0.6896167,0.8482944,0.7774414,0.48302066,0.041909337,-0.40320778,-0.7215724,-0.8672844,-0.87425655,-0.8323319,-0.81239396,-0.8293656,-0.8563063,-0.86927205,-0.86826295,-0.8622999,-0.85728484,-0.8503127,-0.8383255,-0.8273474,-0.8203752,-0.8173784,-0.80939716,-0.7944131,-0.78043824,-0.77245694,-0.77046925,-0.7654848,-0.7545067,-0.7435286,-0.737535,-0.7365259,-0.7335291,-0.7245692,-0.71658796,-0.712582,-0.7105943,-0.70560986,-0.6956103,-0.6866505,-0.6836537,-0.68264455,-0.67665094,-0.6636852,-0.6497103,-0.6437167,-0.641729,-0.6367445,-0.6237482,-0.60879475,-0.59882575,-0.5928322,-0.58185405,-0.56387323,-0.5429262,-0.5239668,-0.50999194,-0.49402934,-0.47305173,-0.45409232,-0.44112659,-0.43314528,-0.42415488,-0.41216767,-0.40219867,-0.40118957,-0.40519553,-0.40718317,-0.40519553,-0.40620464,-0.41816133,-0.44112659,-0.46705806,-0.49201107,-0.52197915,-0.56188554,-0.60680705,-0.6477226,-0.67964774,-0.7086066,-0.737535,-0.7654848,-0.78643185,-0.7944131,-0.7974099,-0.8023944,-0.80740947,-0.808388,-0.8004067,-0.79343456,-0.7914163,-0.7914163,-0.7894286,-0.78043824,-0.7714784,-0.7654848,-0.7634971,-0.75649434,-0.7435286,-0.7305628,-0.727566,-0.7285446,-0.7265569,-0.7185756,-0.7095852,-0.70560986,-0.7046007,-0.69961625,-0.68863815,-0.6786386,-0.6756724,-0.6786386,-0.6806569,-0.67665094,-0.67166644,-0.67166644,-0.6746633,-0.6746633,-0.6676605,-0.6616975,-0.6636852,-0.6696788,-0.67166644,-0.666682,-0.6606884,-0.6616975,-0.666682,-0.6696788,-0.6656729,-0.66267604,-0.666682,-0.6746633,-0.6786386,-0.67365414,-0.666682,-0.6656729,-0.67065734,-0.6746633,-0.6726756,-0.6696788,-0.67166644,-0.6756724,-0.67665094,-0.6696788,-0.6656729,-0.6676605,-0.67365414,-0.6756724,-0.66866964,-0.6606884,-0.6587007,-0.6587007,-0.6546948,-0.6427381,-0.6297418,-0.6247573,-0.626745,-0.63176,-0.6327386,-0.6337477,-0.6367445,-0.6347263,-0.6217605,-0.59781665,-0.57185453,-0.5509075,-0.5419171,-0.5349449,-0.530939,-0.5339358,-0.5439353,-0.5628947,-0.58582944,-0.6137792,-0.651698,-0.69463176,-0.7305628,-0.7485131,-0.7445072,-0.7325505,-0.7235601,-0.7245692,-0.727566,-0.7245692,-0.7195847,-0.7175665,-0.7175665,-0.7145697,-0.7065884,-0.7005948,-0.7016039,-0.7105943,-0.7295537,-0.76147884,-0.8064003,-0.8503127,-0.8443191,-0.7395227,-0.49702615,-0.13374007,0.28443646,0.68163526,0.9371282,0.9570967,0.7255478,0.29440534,-0.19361502,-0.5778481,-0.7884195,-0.8503127,-0.8413223,-0.8303442,-0.8413223,-0.858294,-0.873278,-0.88223785,-0.88624376,-0.88223785,-0.86826295,-0.85230035,-0.8443191,-0.8393346,-0.8323319,-0.81838757,-0.8034035,-0.7944131,-0.7914163,-0.78643185,-0.77646285,-0.76447564,-0.7575035,-0.7545067,-0.7495222,-0.7385441,-0.727566,-0.7235601,-0.7245692,-0.722551,-0.712582,-0.7016039,-0.6956103,-0.69463176,-0.69163495,-0.6806569,-0.6676605,-0.6616975,-0.6616975,-0.6587007,-0.6467135,-0.63176,-0.6197728,-0.6117915,-0.59882575,-0.5778481,-0.555892,-0.5389202,-0.5269636,-0.5139673,-0.49302024,-0.47305173,-0.4580983,-0.450117,-0.43913895,-0.42216718,-0.40718317,-0.40219867,-0.40519553,-0.40920144,-0.40519553,-0.40118957,-0.40219867,-0.41216767,-0.4281608,-0.4441234,-0.46507043,-0.49702615,-0.5379417,-0.57885724,-0.6157669,-0.6507194,-0.68564135,-0.7205633,-0.74750394,-0.762488,-0.77245694,-0.783435,-0.79643136,-0.8034035,-0.8004067,-0.79542226,-0.7914163,-0.7924254,-0.7894286,-0.77744144,-0.76447564,-0.75848204,-0.7575035,-0.7545067,-0.7445072,-0.7335291,-0.727566,-0.7255478,-0.7215724,-0.7115729,-0.7035916,-0.7005948,-0.70261306,-0.7005948,-0.6926135,-0.68564135,-0.68564135,-0.69163495,-0.6926135,-0.6846322,-0.67365414,-0.6696788,-0.67365414,-0.67665094,-0.6746633,-0.67065734,-0.6696788,-0.6746633,-0.6786386,-0.6756724,-0.67365414,-0.6756724,-0.68163544,-0.6836537,-0.67964774,-0.6756724,-0.67665094,-0.6836537,-0.68863815,-0.68564135,-0.68264455,-0.6846322,-0.69163495,-0.69661945,-0.69362265,-0.68863815,-0.6866505,-0.68863815,-0.6896167,-0.68564135,-0.68163544,-0.6836537,-0.69062585,-0.69463176,-0.69062585,-0.6836537,-0.6806569,-0.68264455,-0.68564135,-0.68264455,-0.6786386,-0.6776601,-0.6746633,-0.666682,-0.6527071,-0.6387322,-0.6327386,-0.6387322,-0.6427381,-0.6407199,-0.6337477,-0.6257664,-0.61778516,-0.6028011,-0.5768696,-0.5509075,-0.5329572,-0.530939,-0.5409385,-0.5539043,-0.5688577,-0.5908139,-0.6227696,-0.6616975,-0.6976286,-0.7285446,-0.7495222,-0.762488,-0.76147884,-0.7495222,-0.7385441,-0.7365259,-0.7405318,-0.7425195,-0.7345382,-0.7235601,-0.7185756,-0.7215724,-0.7255478,-0.722551,-0.7185756,-0.722551,-0.7465254,-0.787441,-0.8313533,-0.85428804,-0.81239396,-0.666682,-0.3872453,-0.007996678,0.40317726,0.7425194,0.8822378,0.7784505,0.44510186,-0.02395916,-0.47506994,-0.78043824,-0.90520316,-0.8962127,-0.84330994,-0.8193661,-0.8393346,-0.873278,-0.89223737,-0.89321595,-0.88624376,-0.87826246,-0.86927205,-0.85529715,-0.8393346,-0.8303442,-0.8273474,-0.8223629,-0.8133725,-0.8034035,-0.7974099,-0.79841906,-0.7944131,-0.78144735,-0.76646334,-0.75848204,-0.75848204,-0.75848204,-0.75050074,-0.7395227,-0.7305628,-0.727566,-0.7255478,-0.7155788,-0.7046007,-0.6956103,-0.6926135,-0.687629,-0.67665094,-0.6656729,-0.6576916,-0.6546948,-0.6477226,-0.6337477,-0.6157669,-0.60381025,-0.59781665,-0.58882624,-0.57185453,-0.5519166,-0.5349449,-0.5239668,-0.5119796,-0.49500787,-0.47705764,-0.4640919,-0.45907682,-0.4521047,-0.44011742,-0.42913932,-0.42516404,-0.43014848,-0.43513292,-0.43712062,-0.44112659,-0.45409232,-0.47705764,-0.49901384,-0.5169641,-0.5389202,-0.5698669,-0.6117915,-0.6546948,-0.6896167,-0.7205633,-0.7495222,-0.77845055,-0.8004067,-0.8113848,-0.8173784,-0.823372,-0.8313533,-0.8363378,-0.833341,-0.8263688,-0.8223629,-0.8213538,-0.8133725,-0.8004067,-0.7884195,-0.78043824,-0.77945966,-0.77744144,-0.7694601,-0.75848204,-0.75349754,-0.7515099,-0.7465254,-0.7325505,-0.7155788,-0.7065884,-0.7075975,-0.7105943,-0.7095852,-0.7065884,-0.7046007,-0.7046007,-0.7035916,-0.6956103,-0.6866505,-0.68564135,-0.69463176,-0.7016039,-0.69961625,-0.69362265,-0.6866505,-0.6866505,-0.68863815,-0.68863815,-0.69062585,-0.69362265,-0.7016039,-0.7016039,-0.6956103,-0.687629,-0.68564135,-0.69163495,-0.69661945,-0.69661945,-0.69163495,-0.69062585,-0.69463176,-0.6986071,-0.6976286,-0.69463176,-0.69661945,-0.7035916,-0.7075975,-0.7035916,-0.69661945,-0.6926135,-0.69362265,-0.69062585,-0.6786386,-0.6646943,-0.6566825,-0.6566825,-0.6616975,-0.6636852,-0.6636852,-0.666682,-0.666682,-0.6576916,-0.6387322,-0.6137792,-0.5928322,-0.5828326,-0.5758605,-0.5688577,-0.5658915,-0.5688577,-0.58185405,-0.60381025,-0.6307509,-0.666682,-0.70560986,-0.7395227,-0.75548524,-0.7515099,-0.7425195,-0.7355473,-0.7355473,-0.7365259,-0.7305628,-0.7235601,-0.7245692,-0.7315414,-0.7335291,-0.7265569,-0.7155788,-0.7115729,-0.7155788,-0.7285446,-0.7485131,-0.78144735,-0.8203752,-0.833341,-0.76747245,-0.58882624,-0.30140823,0.03692496,0.36525846,0.5978166,0.64769197,0.48204207,0.12074363,-0.32935804,-0.7086066,-0.9151721,-0.9471278,-0.8812593,-0.8103757,-0.77845055,-0.78144735,-0.8004067,-0.8203752,-0.833341,-0.8343501,-0.823372,-0.8064003,-0.7944131,-0.79043776,-0.7854533,-0.77646285,-0.76646334,-0.762488,-0.7654848,-0.76747245,-0.7605003,-0.74750394,-0.737535,-0.7335291,-0.7305628,-0.7215724,-0.712582,-0.7075975,-0.7095852,-0.7095852,-0.7035916,-0.69163495,-0.6846322,-0.68264455,-0.6786386,-0.6676605,-0.6537162,-0.6437167,-0.6407199,-0.6377231,-0.6297418,-0.6187637,-0.6117915,-0.60879475,-0.59882575,-0.5798358,-0.555892,-0.5349449,-0.5239668,-0.5119796,-0.49302024,-0.4720732,-0.45608002,-0.4491079,-0.4421357,-0.43314528,-0.42314577,-0.41718274,-0.41816133,-0.41917044,-0.41718274,-0.41418594,-0.41917044,-0.4311576,-0.44510192,-0.45608002,-0.4690764,-0.49402934,-0.5339358,-0.5798358,-0.6197728,-0.6557039,-0.6896167,-0.7235601,-0.75050074,-0.76747245,-0.77744144,-0.787441,-0.80141586,-0.8113848,-0.8103757,-0.80441266,-0.7993976,-0.80141586,-0.8023944,-0.79841906,-0.7914163,-0.7854533,-0.78144735,-0.7744752,-0.7605003,-0.7435286,-0.7325505,-0.7295537,-0.7265569,-0.7185756,-0.7075975,-0.7016039,-0.70261306,-0.7016039,-0.69463176,-0.6846322,-0.6776601,-0.67665094,-0.6756724,-0.66866964,-0.6606884,-0.6576916,-0.6606884,-0.66267604,-0.6587007,-0.651698,-0.6507194,-0.6566825,-0.6606884,-0.6566825,-0.6497103,-0.64870113,-0.6557039,-0.66267604,-0.66267604,-0.6566825,-0.6546948,-0.6587007,-0.6636852,-0.6656729,-0.6636852,-0.6616975,-0.6646943,-0.666682,-0.6636852,-0.6587007,-0.6566825,-0.6566825,-0.6527071,-0.6437167,-0.6347263,-0.63176,-0.641729,-0.651698,-0.6537162,-0.6467135,-0.6357354,-0.6257664,-0.6117915,-0.58582944,-0.555892,-0.5329572,-0.5249454,-0.530939,-0.5399294,-0.5489198,-0.56387323,-0.5928322,-0.6307509,-0.6696788,-0.7005948,-0.7205633,-0.7325505,-0.7325505,-0.722551,-0.71359116,-0.7115729,-0.71658796,-0.7175665,-0.7115729,-0.70261306,-0.6976286,-0.69961625,-0.7005948,-0.69463176,-0.68564135,-0.6846322,-0.7046007,-0.7425195,-0.7894286,-0.8253597,-0.8143816,-0.7205633,-0.5029892,-0.16967112,0.22055566,0.5878171,0.8163693,0.8243505,0.60280097,0.20058703,-0.25749588,-0.6287632,-0.8343501,-0.88223785,-0.8453282,-0.8064003,-0.8034035,-0.8253597,-0.8443191,-0.8493036,-0.8443191,-0.8373469,-0.8273474,-0.8113848,-0.79542226,-0.7854533,-0.78444415,-0.78144735,-0.7744752,-0.762488,-0.752519,-0.7495222,-0.7465254,-0.7365259,-0.7235601,-0.7155788,-0.71359116,-0.7115729,-0.7046007,-0.69463176,-0.69062585,-0.6926135,-0.69163495,-0.6846322,-0.67166644,-0.66267604,-0.65967923,-0.6566825,-0.64870113,-0.6357354,-0.6257664,-0.6227696,-0.61778516,-0.6057979,-0.58983535,-0.5768696,-0.5678792,-0.5598979,-0.5449139,-0.5249454,-0.505986,-0.49302024,-0.47803622,-0.4580983,-0.43712062,-0.42216718,-0.41718274,-0.41216767,-0.40320778,-0.39122063,-0.38522696,-0.38822383,-0.39620507,-0.39920193,-0.39920193,-0.40620464,-0.42516404,-0.450117,-0.47604853,-0.5029892,-0.5359235,-0.57885724,-0.6227696,-0.65967923,-0.687629,-0.7145697,-0.7425195,-0.76646334,-0.77945966,-0.783435,-0.78643185,-0.7924254,-0.7944131,-0.7894286,-0.77945966,-0.7744752,-0.77646285,-0.77646285,-0.7694601,-0.7575035,-0.7485131,-0.74750394,-0.7455163,-0.7365259,-0.722551,-0.71359116,-0.712582,-0.712582,-0.70560986,-0.6926135,-0.6836537,-0.68264455,-0.68264455,-0.67964774,-0.67166644,-0.666682,-0.6696788,-0.67166644,-0.6696788,-0.6636852,-0.6616975,-0.6656729,-0.67065734,-0.67065734,-0.6656729,-0.6636852,-0.666682,-0.66866964,-0.6636852,-0.6546948,-0.6497103,-0.6537162,-0.65967923,-0.6606884,-0.6557039,-0.6537162,-0.6587007,-0.6656729,-0.6676605,-0.6646943,-0.6646943,-0.6696788,-0.67365414,-0.67166644,-0.6656729,-0.6656729,-0.67166644,-0.6756724,-0.6726756,-0.6636852,-0.6566825,-0.6576916,-0.6546948,-0.6457044,-0.6337477,-0.6277541,-0.63176,-0.641729,-0.6467135,-0.6437167,-0.6357354,-0.6287632,-0.616776,-0.59882575,-0.5738728,-0.5539043,-0.5449139,-0.5419171,-0.5419171,-0.5439353,-0.5519166,-0.5738728,-0.6057979,-0.6437167,-0.68163544,-0.7155788,-0.7405318,-0.7495222,-0.7415409,-0.727566,-0.7185756,-0.7215724,-0.7255478,-0.7235601,-0.71359116,-0.70560986,-0.7035916,-0.7046007,-0.70261306,-0.6956103,-0.69163495,-0.6986071,-0.7215724,-0.76147884,-0.80740947,-0.8403437,-0.8133725,-0.6806569,-0.40418637,-0.013990164,0.41816115,0.7924254,0.9810405,0.9221443,0.6227696,0.16165912,-0.30938953,-0.651698,-0.8193661,-0.85230035,-0.8313533,-0.8263688,-0.84630674,-0.87125975,-0.88324696,-0.88523465,-0.88523465,-0.88025016,-0.8672844,-0.8493036,-0.8353287,-0.8293656,-0.8263688,-0.8193661,-0.80740947,-0.79643136,-0.7894286,-0.783435,-0.77245694,-0.75848204,-0.7515099,-0.752519,-0.7545067,-0.7495222,-0.7365259,-0.7255478,-0.7215724,-0.7195847,-0.712582,-0.7005948,-0.6926135,-0.6926135,-0.6926135,-0.68564135,-0.67166644,-0.6587007,-0.651698,-0.6437167,-0.63176,-0.6147883,-0.6028011,-0.5968075,-0.58983535,-0.5738728,-0.5509075,-0.52996045,-0.5149764,-0.50201064,-0.48503894,-0.46308273,-0.4441234,-0.43314528,-0.42314577,-0.41118914,-0.39920193,-0.39122063,-0.39122063,-0.39320832,-0.39021146,-0.38424844,-0.3862362,-0.40021104,-0.42115808,-0.44510192,-0.4690764,-0.5010015,-0.5449139,-0.58983535,-0.6297418,-0.6616975,-0.6926135,-0.7265569,-0.7575035,-0.77744144,-0.78643185,-0.7914163,-0.79841906,-0.80141586,-0.7993976,-0.79043776,-0.7854533,-0.7894286,-0.7924254,-0.7884195,-0.77744144,-0.7684816,-0.76447564,-0.7634971,-0.75649434,-0.7405318,-0.7285446,-0.722551,-0.7205633,-0.71658796,-0.7065884,-0.6976286,-0.69463176,-0.6926135,-0.69062585,-0.68564135,-0.68564135,-0.69163495,-0.6986071,-0.6986071,-0.69362265,-0.69163495,-0.69661945,-0.7035916,-0.70560986,-0.70261306,-0.7035916,-0.7105943,-0.7175665,-0.7185756,-0.7105943,-0.7046007,-0.70261306,-0.7016039,-0.69463176,-0.6836537,-0.6786386,-0.6846322,-0.6926135,-0.69463176,-0.69062585,-0.687629,-0.6926135,-0.69961625,-0.7005948,-0.69661945,-0.69463176,-0.69961625,-0.7046007,-0.7016039,-0.69362265,-0.6866505,-0.687629,-0.69062585,-0.68863815,-0.68264455,-0.68163544,-0.68564135,-0.69062585,-0.687629,-0.6756724,-0.66267604,-0.6557039,-0.651698,-0.6447258,-0.6377231,-0.6377231,-0.6477226,-0.6537162,-0.6477226,-0.6277541,-0.60680705,-0.591823,-0.5758605,-0.5569011,-0.5349449,-0.5229577,-0.5289513,-0.5469016,-0.5648824,-0.5828326,-0.6107824,-0.6537162,-0.6986071,-0.7315414,-0.7455163,-0.7485131,-0.75050074,-0.7495222,-0.7445072,-0.737535,-0.7325505,-0.7365259,-0.7405318,-0.7385441,-0.7305628,-0.722551,-0.7215724,-0.7215724,-0.71658796,-0.7145697,-0.7335291,-0.77945966,-0.8353287,-0.86627525,-0.8213538,-0.6726756,-0.39822334,-0.028943658,0.37923336,0.73551655,0.9031848,0.818357,0.49201107,0.02395916,-0.42614257,-0.7365259,-0.87826246,-0.8902191,-0.85230035,-0.823372,-0.8283565,-0.8563063,-0.88223785,-0.89223737,-0.88324696,-0.86826295,-0.85728484,-0.848325,-0.8393346,-0.8273474,-0.81838757,-0.81539077,-0.8113848,-0.80441266,-0.7924254,-0.783435,-0.78144735,-0.77845055,-0.77046925,-0.75848204,-0.7495222,-0.7495222,-0.75050074,-0.7445072,-0.7295537,-0.71658796,-0.7105943,-0.7065884,-0.70261306,-0.6926135,-0.68264455,-0.6786386,-0.6746633,-0.6656729,-0.6537162,-0.6437167,-0.6407199,-0.6357354,-0.6227696,-0.6028011,-0.5828326,-0.5728637,-0.5658915,-0.5528952,-0.5319481,-0.50999194,-0.49302024,-0.47904533,-0.4660796,-0.450117,-0.43913895,-0.43513292,-0.43314528,-0.42715168,-0.41718274,-0.41216767,-0.41317677,-0.41816133,-0.42115808,-0.42314577,-0.4361421,-0.46507043,-0.50201064,-0.5369326,-0.5658915,-0.5968075,-0.6357354,-0.6776601,-0.7155788,-0.7415409,-0.76447564,-0.7884195,-0.808388,-0.8203752,-0.8203752,-0.8203752,-0.823372,-0.8253597,-0.8223629,-0.8133725,-0.8053912,-0.80141586,-0.7993976,-0.7924254,-0.78043824,-0.77046925,-0.7654848,-0.7605003,-0.7515099,-0.7365259,-0.7265569,-0.7255478,-0.7265569,-0.722551,-0.71359116,-0.7065884,-0.7065884,-0.7095852,-0.7115729,-0.7065884,-0.7035916,-0.7065884,-0.7095852,-0.7065884,-0.6976286,-0.69062585,-0.69163495,-0.6956103,-0.6956103,-0.69163495,-0.6896167,-0.69463176,-0.7016039,-0.7035916,-0.69961625,-0.69661945,-0.69961625,-0.7046007,-0.70560986,-0.7005948,-0.69661945,-0.6986071,-0.70261306,-0.7035916,-0.69961625,-0.6976286,-0.7005948,-0.70261306,-0.6956103,-0.6786386,-0.6646943,-0.65967923,-0.6606884,-0.66267604,-0.6636852,-0.666682,-0.6726756,-0.6696788,-0.6546948,-0.626745,-0.5968075,-0.5768696,-0.5648824,-0.5569011,-0.5528952,-0.5598979,-0.58084494,-0.6107824,-0.6467135,-0.6836537,-0.7215724,-0.75548524,-0.77545375,-0.77646285,-0.7654848,-0.75349754,-0.7515099,-0.75548524,-0.75649434,-0.7515099,-0.74750394,-0.7485131,-0.7495222,-0.7465254,-0.7365259,-0.7295537,-0.7305628,-0.737535,-0.7575035,-0.79043776,-0.8363378,-0.873278,-0.8493036,-0.7215724,-0.4580983,-0.09083682,0.31437397,0.6786386,0.87823176,0.8373163,0.5449139,0.074843645,-0.40819228,-0.752519,-0.9062123,-0.9161812,-0.8702812,-0.8383255,-0.8383255,-0.85428804,-0.87226886,-0.88523465,-0.88924056,-0.88223785,-0.86526614,-0.8503127,-0.8423314,-0.8363378,-0.8253597,-0.80939716,-0.7974099,-0.7924254,-0.7924254,-0.787441,-0.77646285,-0.76646334,-0.762488,-0.762488,-0.75949115,-0.7495222,-0.737535,-0.7315414,-0.727566,-0.7235601,-0.7155788,-0.7105943,-0.7095852,-0.7075975,-0.6986071,-0.6806569,-0.6656729,-0.6576916,-0.6537162,-0.6457044,-0.6327386,-0.6197728,-0.6117915,-0.6057979,-0.591823,-0.57185453,-0.5519166,-0.5369326,-0.5259545,-0.50999194,-0.48702657,-0.4660796,-0.4521047,-0.44311428,-0.4341238,-0.42415488,-0.41816133,-0.41617358,-0.41617358,-0.41216767,-0.40320778,-0.39721423,-0.40219867,-0.41516447,-0.4311576,-0.45109558,-0.47904533,-0.5189823,-0.56387323,-0.6057979,-0.641729,-0.6756724,-0.7105943,-0.7435286,-0.76646334,-0.77945966,-0.7894286,-0.80141586,-0.8113848,-0.81239396,-0.80441266,-0.79643136,-0.79343456,-0.79343456,-0.7894286,-0.77945966,-0.77046925,-0.76747245,-0.76747245,-0.7634971,-0.75349754,-0.7425195,-0.7355473,-0.7295537,-0.7215724,-0.7086066,-0.7005948,-0.69961625,-0.7016039,-0.6986071,-0.68863815,-0.6806569,-0.6806569,-0.6836537,-0.6846322,-0.6806569,-0.6776601,-0.67964774,-0.68264455,-0.68163544,-0.6756724,-0.67166644,-0.6776601,-0.68564135,-0.6896167,-0.6846322,-0.67964774,-0.6806569,-0.6836537,-0.6836537,-0.6786386,-0.6756724,-0.6806569,-0.6866505,-0.6866505,-0.6746633,-0.6616975,-0.6557039,-0.6566825,-0.6557039,-0.64870113,-0.6477226,-0.6537162,-0.6646943,-0.6696788,-0.6587007,-0.6437167,-0.6247573,-0.60381025,-0.57885724,-0.5519166,-0.5389202,-0.5479107,-0.5698669,-0.59781665,-0.6277541,-0.6646943,-0.7115729,-0.75649434,-0.78444415,-0.79043776,-0.787441,-0.78643185,-0.78643185,-0.78444415,-0.77646285,-0.7684816,-0.76646334,-0.76747245,-0.7634971,-0.75349754,-0.7455163,-0.7445072,-0.7485131,-0.75050074,-0.7485131,-0.75848204,-0.79343456,-0.8453282,-0.88624376,-0.8702812,-0.75949115,-0.5249454,-0.17964011,0.21954656,0.6008134,0.8283564,0.8103756,0.54090774,0.08881855,-0.39421743,-0.75949115,-0.94211274,-0.96208125,-0.8982004,-0.8353287,-0.8193661,-0.8413223,-0.87425655,-0.89122826,-0.8872223,-0.8762442,-0.8702812,-0.86627525,-0.8612908,-0.848325,-0.8373469,-0.8303442,-0.8243506,-0.81239396,-0.79643136,-0.78444415,-0.78444415,-0.7884195,-0.7854533,-0.7714784,-0.7575035,-0.75050074,-0.75050074,-0.752519,-0.7485131,-0.7435286,-0.7425195,-0.7435286,-0.737535,-0.7245692,-0.7105943,-0.7046007,-0.69961625,-0.69362265,-0.6806569,-0.6676605,-0.6616975,-0.6566825,-0.6457044,-0.6297418,-0.6117915,-0.5998043,-0.5908139,-0.5768696,-0.5569011,-0.5379417,-0.5239668,-0.5110011,-0.49402934,-0.47305173,-0.45907682,-0.45510143,-0.45608002,-0.4531138,-0.44611108,-0.44112659,-0.44311428,-0.44809872,-0.4521047,-0.4531138,-0.4640919,-0.49002337,-0.5239668,-0.5608764,-0.5928322,-0.6237482,-0.6636852,-0.7046007,-0.7385441,-0.76147884,-0.77945966,-0.7993976,-0.8163693,-0.8283565,-0.8283565,-0.8253597,-0.8273474,-0.8293656,-0.8283565,-0.8223629,-0.81539077,-0.8143816,-0.8133725,-0.80740947,-0.7944131,-0.783435,-0.77945966,-0.77744144,-0.77046925,-0.7575035,-0.7455163,-0.7405318,-0.7405318,-0.7385441,-0.7295537,-0.7235601,-0.7245692,-0.727566,-0.727566,-0.7185756,-0.7095852,-0.7075975,-0.7086066,-0.7075975,-0.7005948,-0.6956103,-0.69661945,-0.70261306,-0.7095852,-0.7105943,-0.7105943,-0.7145697,-0.7175665,-0.7155788,-0.7095852,-0.7086066,-0.71359116,-0.7235601,-0.7265569,-0.7195847,-0.7105943,-0.70560986,-0.7046007,-0.6986071,-0.6896167,-0.6836537,-0.69062585,-0.70560986,-0.71658796,-0.7155788,-0.70261306,-0.687629,-0.6726756,-0.6527071,-0.6277541,-0.6057979,-0.5928322,-0.591823,-0.59781665,-0.60680705,-0.626745,-0.6606884,-0.7046007,-0.7465254,-0.7744752,-0.7894286,-0.7974099,-0.80141586,-0.7974099,-0.78444415,-0.7744752,-0.7714784,-0.77346605,-0.77346605,-0.76747245,-0.76147884,-0.76147884,-0.76447564,-0.7634971,-0.7545067,-0.7485131,-0.7495222,-0.76747245,-0.8004067,-0.8373469,-0.86526614,-0.8473159,-0.7425195,-0.52097,-0.20459312,0.14471805,0.45806766,0.6307508,0.60478866,0.36427987,-0.04392767,-0.48901427,-0.8263688,-0.97706527,-0.96309036,-0.88025016,-0.8133725,-0.8034035,-0.8253597,-0.8453282,-0.8533095,-0.8503127,-0.8423314,-0.8313533,-0.8173784,-0.8064003,-0.8004067,-0.7993976,-0.7944131,-0.783435,-0.77245694,-0.76747245,-0.76747245,-0.76447564,-0.75548524,-0.7455163,-0.7415409,-0.7395227,-0.7335291,-0.7205633,-0.7086066,-0.7035916,-0.7035916,-0.7016039,-0.69362265,-0.687629,-0.6866505,-0.6866505,-0.6806569,-0.666682,-0.6537162,-0.6467135,-0.6437167,-0.6357354,-0.6187637,-0.6028011,-0.5928322,-0.5878477,-0.57885724,-0.5608764,-0.5409385,-0.5249454,-0.5129887,-0.49702615,-0.47604853,-0.45907682,-0.4491079,-0.44611108,-0.44112659,-0.4281608,-0.41718274,-0.41418594,-0.41718274,-0.42115808,-0.42017955,-0.42415488,-0.43712062,-0.45907682,-0.48503894,-0.50999194,-0.5409385,-0.5798358,-0.626745,-0.6696788,-0.70261306,-0.7305628,-0.7575035,-0.78144735,-0.7974099,-0.8023944,-0.8053912,-0.8103757,-0.81539077,-0.8163693,-0.80939716,-0.8034035,-0.80141586,-0.8034035,-0.7993976,-0.7854533,-0.7714784,-0.7634971,-0.762488,-0.7605003,-0.752519,-0.7455163,-0.7425195,-0.7415409,-0.7355473,-0.7205633,-0.7075975,-0.7016039,-0.70560986,-0.70560986,-0.69961625,-0.69163495,-0.687629,-0.68863815,-0.68564135,-0.67665094,-0.6676605,-0.666682,-0.67065734,-0.6726756,-0.6696788,-0.6656729,-0.66866964,-0.6776601,-0.68264455,-0.6786386,-0.67365414,-0.6726756,-0.6756724,-0.6776601,-0.6746633,-0.67166644,-0.6746633,-0.67964774,-0.6806569,-0.6726756,-0.6636852,-0.6587007,-0.6576916,-0.6546948,-0.6447258,-0.6387322,-0.6427381,-0.6546948,-0.6646943,-0.6616975,-0.6507194,-0.6377231,-0.6227696,-0.6008134,-0.5738728,-0.5509075,-0.5419171,-0.5498984,-0.56188554,-0.57185453,-0.58582944,-0.6137792,-0.6557039,-0.6986071,-0.7265569,-0.7405318,-0.7445072,-0.7455163,-0.7405318,-0.7345382,-0.7305628,-0.7335291,-0.7395227,-0.7395227,-0.7315414,-0.722551,-0.7185756,-0.7195847,-0.7175665,-0.7105943,-0.7046007,-0.712582,-0.7415409,-0.787441,-0.8343501,-0.86327845,-0.8303442,-0.6956103,-0.42415488,-0.04392767,0.37623656,0.73652565,0.9101876,0.84132206,0.5429262,0.095790625,-0.35431105,-0.68163544,-0.8423314,-0.86927205,-0.84330994,-0.8313533,-0.8473159,-0.8702812,-0.8812593,-0.879241,-0.87226886,-0.86526614,-0.85529715,-0.8413223,-0.8293656,-0.823372,-0.8213538,-0.8133725,-0.7993976,-0.7854533,-0.77945966,-0.77845055,-0.7744752,-0.76147884,-0.7495222,-0.7425195,-0.7435286,-0.7405318,-0.7295537,-0.7195847,-0.71359116,-0.71359116,-0.7115729,-0.70261306,-0.6926135,-0.68863815,-0.6866505,-0.67964774,-0.6646943,-0.64870113,-0.6407199,-0.6387322,-0.6347263,-0.6227696,-0.60879475,-0.59882575,-0.5928322,-0.58084494,-0.55888873,-0.5349449,-0.5169641,-0.50500745,-0.49302024,-0.47506994,-0.4580983,-0.4471202,-0.44311428,-0.4361421,-0.42216718,-0.41017997,-0.40620464,-0.41017997,-0.41418594,-0.41216767,-0.41317677,-0.42415488,-0.4471202,-0.47506994,-0.50399834,-0.5369326,-0.57885724,-0.6257664,-0.666682,-0.6956103,-0.7185756,-0.7405318,-0.7634971,-0.78043824,-0.78643185,-0.7884195,-0.79343456,-0.7993976,-0.8004067,-0.7914163,-0.78144735,-0.7744752,-0.77245694,-0.76747245,-0.75548524,-0.7435286,-0.737535,-0.737535,-0.7345382,-0.7235601,-0.7115729,-0.70560986,-0.7035916,-0.7016039,-0.69463176,-0.687629,-0.68564135,-0.68863815,-0.6896167,-0.68163544,-0.67365414,-0.67065734,-0.6746633,-0.6786386,-0.6756724,-0.6726756,-0.67365414,-0.6786386,-0.68163544,-0.6776601,-0.67365414,-0.6756724,-0.68264455,-0.68564135,-0.6806569,-0.67365414,-0.6726756,-0.6776601,-0.6806569,-0.6776601,-0.67365414,-0.67365414,-0.67964774,-0.68264455,-0.67665094,-0.66866964,-0.666682,-0.67065734,-0.67365414,-0.67166644,-0.67065734,-0.67365414,-0.68163544,-0.6846322,-0.6776601,-0.67065734,-0.666682,-0.6646943,-0.6587007,-0.6457044,-0.6327386,-0.6277541,-0.6357354,-0.6457044,-0.6477226,-0.6427381,-0.63176,-0.61778516,-0.59781665,-0.5688577,-0.5429262,-0.5279422,-0.5269636,-0.5349449,-0.5429262,-0.5539043,-0.5738728,-0.6057979,-0.6467135,-0.6846322,-0.71658796,-0.7405318,-0.7545067,-0.7545067,-0.7435286,-0.7345382,-0.7345382,-0.7395227,-0.7415409,-0.7325505,-0.7195847,-0.71359116,-0.7155788,-0.7175665,-0.7115729,-0.7046007,-0.7046007,-0.7145697,-0.7395227,-0.77945966,-0.8283565,-0.8612908,-0.8313533,-0.68863815,-0.39920193,-0.0020029545,0.43314517,0.8073789,0.990031,0.9221443,0.6077856,0.13471854,-0.335321,-0.666682,-0.823372,-0.8533095,-0.8383255,-0.8393346,-0.86028165,-0.8812593,-0.89223737,-0.89321595,-0.89122826,-0.8812593,-0.8642876,-0.848325,-0.8383255,-0.8353287,-0.8303442,-0.81838757,-0.8053912,-0.7974099,-0.79542226,-0.7914163,-0.77945966,-0.76646334,-0.75848204,-0.75548524,-0.75349754,-0.7455163,-0.737535,-0.7335291,-0.7335291,-0.7295537,-0.7185756,-0.7046007,-0.69463176,-0.69062585,-0.68564135,-0.6756724,-0.666682,-0.65967923,-0.6576916,-0.6507194,-0.6367445,-0.6227696,-0.6107824,-0.6028011,-0.591823,-0.5738728,-0.5539043,-0.5389202,-0.5279422,-0.5149764,-0.49402934,-0.47406083,-0.4610951,-0.4521047,-0.4421357,-0.42715168,-0.41216767,-0.40620464,-0.41017997,-0.41516447,-0.41317677,-0.41017997,-0.41418594,-0.42715168,-0.44611108,-0.46507043,-0.49103254,-0.5269636,-0.5728637,-0.6187637,-0.6537162,-0.6836537,-0.712582,-0.7455163,-0.7714784,-0.787441,-0.79643136,-0.8023944,-0.80939716,-0.8103757,-0.8023944,-0.79343456,-0.7884195,-0.7884195,-0.78643185,-0.77646285,-0.76447564,-0.75649434,-0.75548524,-0.752519,-0.7445072,-0.7355473,-0.7315414,-0.7335291,-0.7355473,-0.7305628,-0.7215724,-0.71658796,-0.71658796,-0.712582,-0.7046007,-0.69961625,-0.7005948,-0.7105943,-0.7155788,-0.712582,-0.7046007,-0.70261306,-0.7075975,-0.712582,-0.7105943,-0.7065884,-0.70560986,-0.7105943,-0.712582,-0.7086066,-0.7035916,-0.7035916,-0.7086066,-0.7115729,-0.7035916,-0.69463176,-0.6926135,-0.6986071,-0.7046007,-0.70560986,-0.70261306,-0.7035916,-0.7105943,-0.71359116,-0.7105943,-0.70560986,-0.70560986,-0.712582,-0.71658796,-0.7145697,-0.7086066,-0.7046007,-0.7065884,-0.7086066,-0.7046007,-0.6986071,-0.6976286,-0.7016039,-0.70261306,-0.6956103,-0.6836537,-0.67166644,-0.6656729,-0.6616975,-0.6566825,-0.6557039,-0.66267604,-0.67065734,-0.6726756,-0.6606884,-0.641729,-0.6237482,-0.60680705,-0.58882624,-0.5678792,-0.5539043,-0.5539043,-0.5688577,-0.58683854,-0.6047888,-0.6287632,-0.6646943,-0.7095852,-0.7465254,-0.7654848,-0.7684816,-0.7654848,-0.76447564,-0.7605003,-0.752519,-0.7465254,-0.7455163,-0.7515099,-0.75548524,-0.75050074,-0.7435286,-0.7385441,-0.737535,-0.7345382,-0.727566,-0.727566,-0.752519,-0.80441266,-0.858294,-0.87125975,-0.8023944,-0.6227696,-0.3303365,0.030931234,0.40718305,0.69160426,0.768451,0.60377955,0.22954595,-0.23355198,-0.6337477,-0.87226886,-0.9431219,-0.9022063,-0.8363378,-0.8034035,-0.8163693,-0.85230035,-0.88223785,-0.88624376,-0.87526566,-0.86327845,-0.8563063,-0.85230035,-0.8423314,-0.8283565,-0.8163693,-0.8103757,-0.8034035,-0.7944131,-0.78444415,-0.77744144,-0.77646285,-0.77245694,-0.7634971,-0.75349754,-0.75050074,-0.752519,-0.75050074,-0.7415409,-0.7295537,-0.722551,-0.7215724,-0.7185756,-0.7075975,-0.6956103,-0.687629,-0.6866505,-0.6836537,-0.67166644,-0.6557039,-0.6437167,-0.6397413,-0.6357354,-0.6247573,-0.6077856,-0.591823,-0.5798358,-0.5698669,-0.5569011,-0.5399294,-0.5239668,-0.5129887,-0.49901384,-0.48103303,-0.46507043,-0.45510143,-0.4531138,-0.45109558,-0.44510192,-0.43812978,-0.43712062,-0.4441234,-0.4531138,-0.4580983,-0.4660796,-0.48503894,-0.5169641,-0.5509075,-0.5798358,-0.60680705,-0.6377231,-0.6786386,-0.7185756,-0.7495222,-0.77046925,-0.79043776,-0.8113848,-0.8263688,-0.8313533,-0.8303442,-0.8293656,-0.8343501,-0.8363378,-0.8293656,-0.8203752,-0.81539077,-0.8163693,-0.8163693,-0.808388,-0.79542226,-0.7854533,-0.78144735,-0.77346605,-0.762488,-0.75349754,-0.7515099,-0.75848204,-0.7605003,-0.752519,-0.7385441,-0.7295537,-0.7295537,-0.7305628,-0.727566,-0.722551,-0.7215724,-0.7265569,-0.727566,-0.7245692,-0.7185756,-0.71359116,-0.7145697,-0.7145697,-0.7095852,-0.70560986,-0.7046007,-0.7115729,-0.71658796,-0.7155788,-0.712582,-0.7145697,-0.7235601,-0.7315414,-0.7305628,-0.7235601,-0.7205633,-0.7235601,-0.7285446,-0.7285446,-0.7235601,-0.7205633,-0.7235601,-0.7255478,-0.7235601,-0.71658796,-0.7086066,-0.70560986,-0.7005948,-0.6926135,-0.6866505,-0.69062585,-0.7016039,-0.7086066,-0.7016039,-0.68564135,-0.6696788,-0.6576916,-0.6427381,-0.6207819,-0.5968075,-0.58384174,-0.58882624,-0.6028011,-0.6197728,-0.6367445,-0.6656729,-0.7046007,-0.7425195,-0.76447564,-0.77046925,-0.76747245,-0.7654848,-0.76147884,-0.75349754,-0.7445072,-0.7415409,-0.7445072,-0.7485131,-0.7435286,-0.7335291,-0.727566,-0.7295537,-0.7315414,-0.727566,-0.7235601,-0.7325505,-0.76447564,-0.80939716,-0.84330994,-0.8293656,-0.737535,-0.5409385,-0.24951464,0.090806246,0.41917038,0.6227696,0.6237482,0.40617394,0.018944025,-0.41317677,-0.75349754,-0.9261502,-0.94012505,-0.86826295,-0.79542226,-0.77245694,-0.7914163,-0.81838757,-0.8303442,-0.8243506,-0.81239396,-0.80441266,-0.79841906,-0.79043776,-0.78245646,-0.77845055,-0.77744144,-0.7714784,-0.75949115,-0.7455163,-0.7395227,-0.7425195,-0.7425195,-0.7335291,-0.7195847,-0.7105943,-0.71359116,-0.71658796,-0.712582,-0.69961625,-0.68863815,-0.6846322,-0.68163544,-0.6746633,-0.6636852,-0.6537162,-0.6497103,-0.6427381,-0.6297418,-0.6147883,-0.6047888,-0.60381025,-0.6028011,-0.5938107,-0.5778481,-0.56188554,-0.5519166,-0.5409385,-0.5249454,-0.50500745,-0.48901427,-0.47904533,-0.4690764,-0.45510143,-0.43913895,-0.42614257,-0.42216718,-0.42017955,-0.41418594,-0.40519553,-0.39920193,-0.40118957,-0.40519553,-0.41017997,-0.41718274,-0.4341238,-0.4640919,-0.49800473,-0.530939,-0.56387323,-0.5998043,-0.6427381,-0.6836537,-0.7155788,-0.7395227,-0.76147884,-0.7854533,-0.8023944,-0.808388,-0.8064003,-0.80441266,-0.8053912,-0.8064003,-0.8004067,-0.7924254,-0.7884195,-0.7894286,-0.7884195,-0.77945966,-0.7654848,-0.7545067,-0.752519,-0.752519,-0.7495222,-0.7405318,-0.7305628,-0.7255478,-0.7175665,-0.7065884,-0.69661945,-0.6926135,-0.6986071,-0.7016039,-0.69661945,-0.6846322,-0.6746633,-0.67365414,-0.6746633,-0.6726756,-0.66866964,-0.666682,-0.67065734,-0.67365414,-0.6696788,-0.6646943,-0.66267604,-0.67065734,-0.6776601,-0.6776601,-0.6746633,-0.6746633,-0.6806569,-0.6846322,-0.6836537,-0.6776601,-0.6746633,-0.67964774,-0.68264455,-0.6806569,-0.67665094,-0.6776601,-0.68564135,-0.69062585,-0.6866505,-0.67365414,-0.6616975,-0.6566825,-0.6537162,-0.6467135,-0.6397413,-0.6407199,-0.6497103,-0.6566825,-0.651698,-0.6337477,-0.6157669,-0.6028011,-0.58683854,-0.5678792,-0.5479107,-0.5399294,-0.5479107,-0.56188554,-0.5738728,-0.58683854,-0.6127701,-0.6546948,-0.69961625,-0.7315414,-0.7445072,-0.7465254,-0.7465254,-0.7435286,-0.7365259,-0.7295537,-0.7265569,-0.7295537,-0.7305628,-0.7235601,-0.71359116,-0.7075975,-0.7105943,-0.71359116,-0.7105943,-0.7075975,-0.7255478,-0.77046925,-0.8263688,-0.8622999,-0.8303442,-0.7016039,-0.4471202,-0.08484328,0.33134556,0.7145697,0.9291469,0.8962127,0.6207514,0.18361545,-0.2714708,-0.616776,-0.80740947,-0.8642876,-0.8513218,-0.8323319,-0.8383255,-0.86327845,-0.88223785,-0.88523465,-0.8762442,-0.86526614,-0.86028165,-0.8533095,-0.8413223,-0.8243506,-0.8113848,-0.80740947,-0.8064003,-0.79841906,-0.787441,-0.77845055,-0.7744752,-0.77046925,-0.76147884,-0.7485131,-0.7385441,-0.7355473,-0.7345382,-0.7285446,-0.71658796,-0.7086066,-0.70560986,-0.7046007,-0.6986071,-0.68863815,-0.6786386,-0.67365414,-0.66866964,-0.6576916,-0.6437167,-0.6327386,-0.6287632,-0.6247573,-0.6157669,-0.59882575,-0.58084494,-0.5688577,-0.555892,-0.5389202,-0.5189823,-0.50500745,-0.49601704,-0.48402983,-0.4660796,-0.44311428,-0.42715168,-0.42314577,-0.42216718,-0.41718274,-0.40819228,-0.40418637,-0.40920144,-0.41617358,-0.42017955,-0.42314577,-0.4361421,-0.4640919,-0.50002295,-0.5359235,-0.570876,-0.60879475,-0.651698,-0.6896167,-0.7185756,-0.737535,-0.7545067,-0.77346605,-0.7894286,-0.79542226,-0.79343456,-0.7924254,-0.79643136,-0.7993976,-0.7944131,-0.783435,-0.7714784,-0.7654848,-0.7605003,-0.7545067,-0.7445072,-0.7385441,-0.7385441,-0.737535,-0.7305628,-0.7195847,-0.7115729,-0.7115729,-0.712582,-0.7086066,-0.6986071,-0.6926135,-0.69362265,-0.69661945,-0.69661945,-0.6926135,-0.69062585,-0.69463176,-0.6956103,-0.69062585,-0.6836537,-0.6806569,-0.687629,-0.69661945,-0.6976286,-0.69163495,-0.68564135,-0.68564135,-0.687629,-0.68564135,-0.6806569,-0.6806569,-0.687629,-0.69362265,-0.6926135,-0.68564135,-0.6806569,-0.6836537,-0.6866505,-0.68564135,-0.67964774,-0.6756724,-0.67964774,-0.6836537,-0.68163544,-0.6756724,-0.67365414,-0.6786386,-0.68564135,-0.6866505,-0.68264455,-0.67964774,-0.6806569,-0.68264455,-0.6776601,-0.6676605,-0.6557039,-0.6497103,-0.6437167,-0.6347263,-0.6277541,-0.6307509,-0.6427381,-0.6507194,-0.6437167,-0.6237482,-0.60381025,-0.58882624,-0.5748514,-0.5578796,-0.5409385,-0.5359235,-0.5498984,-0.5688577,-0.58485085,-0.5998043,-0.6247573,-0.6656729,-0.7095852,-0.7405318,-0.75349754,-0.7545067,-0.75349754,-0.7495222,-0.7425195,-0.7345382,-0.7305628,-0.7345382,-0.737535,-0.7335291,-0.722551,-0.71658796,-0.7195847,-0.7245692,-0.7245692,-0.7235601,-0.7425195,-0.7884195,-0.84330994,-0.87125975,-0.8223629,-0.66267604,-0.37125212,0.01695633,0.4441234,0.8064003,0.965078,0.8612907,0.5179732,0.041909337,-0.40620464,-0.712582,-0.858294,-0.88223785,-0.8593031,-0.8443191,-0.858294,-0.88624376,-0.9091785,-0.9151721,-0.90520316,-0.89223737,-0.88324696,-0.87425655,-0.8612908,-0.84630674,-0.8353287,-0.8323319,-0.8283565,-0.8193661,-0.8053912,-0.7944131,-0.79043776,-0.78643185,-0.77646285,-0.762488,-0.75349754,-0.7515099,-0.75050074,-0.7435286,-0.7315414,-0.7235601,-0.722551,-0.722551,-0.7155788,-0.7005948,-0.68863815,-0.68564135,-0.6846322,-0.6786386,-0.6646943,-0.651698,-0.6437167,-0.6367445,-0.6247573,-0.6077856,-0.591823,-0.58084494,-0.570876,-0.5549134,-0.5329572,-0.5119796,-0.49901384,-0.48803574,-0.4720732,-0.45409232,-0.44011742,-0.4341238,-0.43314528,-0.4281608,-0.41917044,-0.41516447,-0.41718274,-0.42216718,-0.42614257,-0.42913932,-0.4421357,-0.4710641,-0.50800425,-0.5439353,-0.5778481,-0.6147883,-0.6587007,-0.70261306,-0.7365259,-0.75848204,-0.7744752,-0.7914163,-0.8053912,-0.8103757,-0.808388,-0.808388,-0.8113848,-0.8143816,-0.80939716,-0.79643136,-0.78643185,-0.783435,-0.78144735,-0.7744752,-0.7605003,-0.7485131,-0.7445072,-0.7425195,-0.7365259,-0.7245692,-0.71658796,-0.71658796,-0.7175665,-0.71359116,-0.7046007,-0.69961625,-0.7016039,-0.7075975,-0.7075975,-0.7016039,-0.6976286,-0.7016039,-0.70560986,-0.7065884,-0.7005948,-0.69661945,-0.69961625,-0.7035916,-0.70261306,-0.6956103,-0.69062585,-0.6926135,-0.69661945,-0.6956103,-0.69163495,-0.69062585,-0.69661945,-0.7035916,-0.70560986,-0.6986071,-0.69362265,-0.69661945,-0.7005948,-0.70261306,-0.6976286,-0.69362265,-0.69661945,-0.70261306,-0.7035916,-0.69961625,-0.69661945,-0.6986071,-0.70261306,-0.70261306,-0.6976286,-0.69362265,-0.69661945,-0.7016039,-0.7016039,-0.69463176,-0.68863815,-0.68863815,-0.68863815,-0.687629,-0.68163544,-0.6806569,-0.68564135,-0.69062585,-0.68863815,-0.68163544,-0.67665094,-0.68163544,-0.687629,-0.687629,-0.6776601,-0.6676605,-0.6606884,-0.6566825,-0.6537162,-0.6437167,-0.6397413,-0.6457044,-0.6546948,-0.6557039,-0.6477226,-0.6327386,-0.6207819,-0.60879475,-0.58882624,-0.5658915,-0.5479107,-0.5429262,-0.5509075,-0.56188554,-0.5728637,-0.5928322,-0.6287632,-0.67665094,-0.7205633,-0.7495222,-0.76447564,-0.7694601,-0.7654848,-0.75649434,-0.7455163,-0.7405318,-0.7455163,-0.7515099,-0.75050074,-0.7415409,-0.7335291,-0.7345382,-0.737535,-0.7355473,-0.7295537,-0.7345382,-0.7694601,-0.8253597,-0.87725335,-0.88025016,-0.8004067,-0.60381025,-0.28544563,0.10976553,0.5169641,0.8103756,0.8732474,0.68062615,0.27844274,-0.20358396,-0.6107824,-0.85529715,-0.9331529,-0.9071908,-0.8563063,-0.8373469,-0.85428804,-0.8812593,-0.89722186,-0.89722186,-0.88924056,-0.88324696,-0.8762442,-0.86826295,-0.85428804,-0.84330994,-0.8393346,-0.8343501,-0.8243506,-0.80939716,-0.7974099,-0.7944131,-0.7944131,-0.7914163,-0.78043824,-0.77046925,-0.7654848,-0.76447564,-0.7605003,-0.75050074,-0.7415409,-0.7405318,-0.7405318,-0.737535,-0.7255478,-0.7145697,-0.7086066,-0.7035916,-0.69463176,-0.6786386,-0.666682,-0.66267604,-0.65967923,-0.6527071,-0.6357354,-0.61778516,-0.60680705,-0.5968075,-0.5828326,-0.5628947,-0.5439353,-0.5329572,-0.5249454,-0.5139673,-0.49601704,-0.47904533,-0.4690764,-0.46308273,-0.45708913,-0.44611108,-0.44011742,-0.44112659,-0.4471202,-0.4531138,-0.45708913,-0.46806723,-0.49002337,-0.5189823,-0.5498984,-0.5778481,-0.6107824,-0.6537162,-0.69463176,-0.7295537,-0.7515099,-0.76747245,-0.78643185,-0.8053912,-0.8193661,-0.8243506,-0.8263688,-0.8313533,-0.8353287,-0.8323319,-0.8243506,-0.81838757,-0.8193661,-0.8213538,-0.81539077,-0.8023944,-0.787441,-0.783435,-0.78643185,-0.787441,-0.77945966,-0.7694601,-0.7605003,-0.752519,-0.7435286,-0.7325505,-0.727566,-0.7285446,-0.7315414,-0.7295537,-0.7235601,-0.7175665,-0.7205633,-0.727566,-0.7295537,-0.7265569,-0.7245692,-0.7265569,-0.7265569,-0.722551,-0.7115729,-0.7035916,-0.7065884,-0.7145697,-0.7205633,-0.7215724,-0.7195847,-0.7205633,-0.7215724,-0.7205633,-0.7175665,-0.7205633,-0.7295537,-0.7345382,-0.7325505,-0.7235601,-0.7195847,-0.7245692,-0.7315414,-0.7315414,-0.722551,-0.7185756,-0.7245692,-0.7345382,-0.737535,-0.7325505,-0.7255478,-0.7245692,-0.7295537,-0.7285446,-0.7195847,-0.7115729,-0.712582,-0.7185756,-0.722551,-0.7185756,-0.7145697,-0.7105943,-0.7065884,-0.6976286,-0.68564135,-0.6806569,-0.6866505,-0.6956103,-0.7005948,-0.6956103,-0.6866505,-0.67964774,-0.67065734,-0.6606884,-0.6397413,-0.61778516,-0.6008134,-0.5908139,-0.58384174,-0.5828326,-0.5928322,-0.6157669,-0.6477226,-0.68264455,-0.712582,-0.7395227,-0.762488,-0.77845055,-0.783435,-0.77646285,-0.7694601,-0.7714784,-0.77646285,-0.77545375,-0.76747245,-0.7605003,-0.75949115,-0.7634971,-0.7654848,-0.75848204,-0.7515099,-0.7485131,-0.7575035,-0.78144735,-0.8173784,-0.85728484,-0.86826295,-0.80441266,-0.6237482,-0.3303365,0.013959527,0.34629893,0.5718545,0.6077856,0.43213606,0.06787145,-0.37626714,-0.74750394,-0.94810635,-0.97406846,-0.90520316,-0.8343501,-0.80740947,-0.8203752,-0.8423314,-0.858294,-0.86526614,-0.86627525,-0.8563063,-0.8403437,-0.8293656,-0.823372,-0.8193661,-0.81239396,-0.79841906,-0.787441,-0.7854533,-0.787441,-0.78444415,-0.77245694,-0.75949115,-0.7545067,-0.7515099,-0.74750394,-0.7365259,-0.727566,-0.7255478,-0.7265569,-0.7235601,-0.7115729,-0.7016039,-0.6986071,-0.6976286,-0.69362265,-0.6806569,-0.6676605,-0.6616975,-0.6606884,-0.6527071,-0.6367445,-0.61778516,-0.6057979,-0.59781665,-0.58882624,-0.5748514,-0.55888873,-0.5469016,-0.5349449,-0.5179732,-0.49500787,-0.47705764,-0.46806723,-0.4660796,-0.46008593,-0.44611108,-0.43314528,-0.4281608,-0.43014848,-0.43014848,-0.42516404,-0.42415488,-0.4341238,-0.4531138,-0.47803622,-0.50201064,-0.530939,-0.5698669,-0.6117915,-0.6507194,-0.68163544,-0.7115729,-0.7425195,-0.7744752,-0.7974099,-0.8053912,-0.808388,-0.8133725,-0.81838757,-0.8203752,-0.8163693,-0.8113848,-0.8103757,-0.808388,-0.8004067,-0.7854533,-0.77346605,-0.77046925,-0.77245694,-0.77245694,-0.7634971,-0.75050074,-0.7425195,-0.7385441,-0.7325505,-0.7205633,-0.7105943,-0.7075975,-0.7086066,-0.7086066,-0.7005948,-0.69463176,-0.69163495,-0.69362265,-0.69163495,-0.6806569,-0.6726756,-0.6726756,-0.67665094,-0.6806569,-0.67665094,-0.6726756,-0.6726756,-0.6776601,-0.6806569,-0.6786386,-0.6776601,-0.68163544,-0.6866505,-0.6846322,-0.67665094,-0.67166644,-0.6756724,-0.68564135,-0.6926135,-0.68863815,-0.68564135,-0.68564135,-0.69163495,-0.69362265,-0.6896167,-0.68564135,-0.68863815,-0.6926135,-0.69463176,-0.687629,-0.6806569,-0.67665094,-0.6746633,-0.666682,-0.6557039,-0.6447258,-0.6437167,-0.651698,-0.6576916,-0.6566825,-0.651698,-0.6457044,-0.6367445,-0.6187637,-0.5928322,-0.5688577,-0.555892,-0.555892,-0.5608764,-0.5628947,-0.570876,-0.591823,-0.6257664,-0.6646943,-0.69661945,-0.7175665,-0.7315414,-0.7385441,-0.7365259,-0.7285446,-0.7235601,-0.7265569,-0.7325505,-0.7335291,-0.7265569,-0.7175665,-0.7145697,-0.71658796,-0.7175665,-0.71359116,-0.7105943,-0.7215724,-0.7545067,-0.7993976,-0.8373469,-0.8383255,-0.7634971,-0.5768696,-0.2664863,0.11875594,0.5089828,0.78542256,0.8473158,0.67166626,0.29541445,-0.16566521,-0.56387323,-0.8064003,-0.8882314,-0.8642876,-0.8223629,-0.8133725,-0.8343501,-0.85728484,-0.86627525,-0.86327845,-0.858294,-0.85529715,-0.8473159,-0.8323319,-0.8173784,-0.808388,-0.8023944,-0.7944131,-0.78043824,-0.76747245,-0.7634971,-0.76646334,-0.76447564,-0.752519,-0.7385441,-0.7295537,-0.7265569,-0.7255478,-0.7185756,-0.7115729,-0.7075975,-0.7075975,-0.7035916,-0.6926135,-0.6806569,-0.6726756,-0.67065734,-0.6656729,-0.6557039,-0.6457044,-0.6407199,-0.6367445,-0.6287632,-0.6127701,-0.59882575,-0.58983535,-0.58582944,-0.5738728,-0.5498984,-0.5239668,-0.50500745,-0.49201107,-0.47904533,-0.4580983,-0.43712062,-0.42314577,-0.41816133,-0.41317677,-0.40519553,-0.39721423,-0.39620507,-0.40219867,-0.40718317,-0.40718317,-0.41216767,-0.42913932,-0.4580983,-0.49201107,-0.5249454,-0.5628947,-0.60680705,-0.6537162,-0.69362265,-0.7195847,-0.7415409,-0.76447564,-0.7894286,-0.8064003,-0.81239396,-0.8103757,-0.80939716,-0.808388,-0.80441266,-0.79542226,-0.787441,-0.7884195,-0.79343456,-0.79343456,-0.78245646,-0.7684816,-0.7575035,-0.752519,-0.7465254,-0.737535,-0.7315414,-0.7305628,-0.7345382,-0.7315414,-0.7195847,-0.7065884,-0.7005948,-0.70261306,-0.7035916,-0.69661945,-0.69062585,-0.68863815,-0.69362265,-0.6956103,-0.69062585,-0.6836537,-0.68163544,-0.6846322,-0.68863815,-0.68564135,-0.68163544,-0.6786386,-0.6786386,-0.6776601,-0.6726756,-0.67166644,-0.67665094,-0.6846322,-0.6866505,-0.67964774,-0.67166644,-0.67166644,-0.67964774,-0.687629,-0.687629,-0.6846322,-0.6836537,-0.68564135,-0.6866505,-0.68163544,-0.67665094,-0.67665094,-0.68264455,-0.6866505,-0.68564135,-0.6846322,-0.6866505,-0.69163495,-0.69163495,-0.6836537,-0.6756724,-0.6756724,-0.67964774,-0.6776601,-0.66267604,-0.6457044,-0.6347263,-0.6337477,-0.6397413,-0.6427381,-0.6447258,-0.64870113,-0.64870113,-0.6387322,-0.6187637,-0.5928322,-0.57185453,-0.5578796,-0.5479107,-0.5419171,-0.5469016,-0.5628947,-0.58683854,-0.6127701,-0.6387322,-0.6726756,-0.7115729,-0.7445072,-0.75949115,-0.752519,-0.737535,-0.7295537,-0.7305628,-0.7315414,-0.727566,-0.722551,-0.7215724,-0.7255478,-0.7255478,-0.7185756,-0.712582,-0.712582,-0.722551,-0.7435286,-0.77744144,-0.823372,-0.86526614,-0.85428804,-0.7415409,-0.48204213,-0.10478109,0.32336438,0.71655726,0.9461185,0.9361191,0.6756418,0.22853684,-0.25449908,-0.6247573,-0.8213538,-0.87425655,-0.8612908,-0.85230035,-0.86327845,-0.88223785,-0.89523417,-0.9022063,-0.90520316,-0.8982004,-0.88223785,-0.86627525,-0.85529715,-0.8503127,-0.8443191,-0.833341,-0.8243506,-0.81838757,-0.8143816,-0.8064003,-0.79043776,-0.7744752,-0.76646334,-0.7654848,-0.76447564,-0.75848204,-0.75050074,-0.7465254,-0.7465254,-0.7405318,-0.727566,-0.7145697,-0.7086066,-0.7095852,-0.7086066,-0.69961625,-0.68863815,-0.68163544,-0.6776601,-0.67166644,-0.6587007,-0.6437167,-0.6297418,-0.6187637,-0.6057979,-0.5878477,-0.5698669,-0.5569011,-0.5469016,-0.530939,-0.5069951,-0.48103303,-0.46308273,-0.45510143,-0.450117,-0.44011742,-0.4281608,-0.41816133,-0.41418594,-0.40819228,-0.40021104,-0.39522654,-0.40021104,-0.41816133,-0.44311428,-0.46705806,-0.49702615,-0.5339358,-0.5798358,-0.6247573,-0.6616975,-0.69463176,-0.727566,-0.75949115,-0.78444415,-0.7974099,-0.8023944,-0.80939716,-0.8173784,-0.8203752,-0.8133725,-0.8064003,-0.8064003,-0.81239396,-0.8133725,-0.8023944,-0.78643185,-0.77346605,-0.7684816,-0.76447564,-0.75649434,-0.7495222,-0.7455163,-0.7455163,-0.7425195,-0.7335291,-0.7245692,-0.7205633,-0.7215724,-0.7195847,-0.7105943,-0.7035916,-0.7016039,-0.7075975,-0.7105943,-0.7046007,-0.6976286,-0.69362265,-0.69661945,-0.6976286,-0.69463176,-0.69062585,-0.69362265,-0.7035916,-0.7105943,-0.7086066,-0.70261306,-0.7005948,-0.7035916,-0.7046007,-0.69961625,-0.69463176,-0.69362265,-0.6986071,-0.7035916,-0.69961625,-0.6926135,-0.6896167,-0.69362265,-0.6986071,-0.6976286,-0.69661945,-0.6976286,-0.7005948,-0.7005948,-0.69661945,-0.69163495,-0.6926135,-0.6976286,-0.69961625,-0.6956103,-0.69062585,-0.6926135,-0.7005948,-0.70261306,-0.69463176,-0.68264455,-0.6756724,-0.67665094,-0.67964774,-0.6786386,-0.6776601,-0.67964774,-0.68564135,-0.687629,-0.6806569,-0.6726756,-0.67065734,-0.6756724,-0.68163544,-0.6806569,-0.67665094,-0.6776601,-0.68163544,-0.68163544,-0.67166644,-0.6576916,-0.64870113,-0.6497103,-0.6497103,-0.6477226,-0.6447258,-0.6447258,-0.6477226,-0.6437167,-0.6277541,-0.60879475,-0.5908139,-0.5768696,-0.5628947,-0.5439353,-0.5319481,-0.5349449,-0.5519166,-0.5738728,-0.5968075,-0.6257664,-0.6656729,-0.7105943,-0.7415409,-0.7515099,-0.7445072,-0.7365259,-0.7365259,-0.7395227,-0.7385441,-0.7345382,-0.7315414,-0.7315414,-0.727566,-0.7185756,-0.7105943,-0.7095852,-0.7175665,-0.7315414,-0.7575035,-0.7993976,-0.8503127,-0.879241,-0.8273474,-0.6507194,-0.33434254,0.07184672,0.50100136,0.8482944,0.9880128,0.8662751,0.50100136,0.0020029545,-0.45510143,-0.7485131,-0.86826295,-0.87725335,-0.8593031,-0.8593031,-0.87725335,-0.89722186,-0.9101876,-0.9151721,-0.9111967,-0.8962127,-0.88025016,-0.8672844,-0.86327845,-0.858294,-0.848325,-0.8343501,-0.8253597,-0.8223629,-0.8173784,-0.80740947,-0.7944131,-0.7854533,-0.78444415,-0.783435,-0.77845055,-0.7694601,-0.762488,-0.76147884,-0.7575035,-0.7455163,-0.7305628,-0.7195847,-0.7185756,-0.7175665,-0.7115729,-0.7016039,-0.6926135,-0.6866505,-0.67964774,-0.666682,-0.651698,-0.6407199,-0.6347263,-0.6257664,-0.60879475,-0.5878477,-0.570876,-0.5608764,-0.5509075,-0.5349449,-0.5149764,-0.49702615,-0.48402983,-0.47005492,-0.4521047,-0.4361421,-0.43014848,-0.43213618,-0.4341238,-0.43014848,-0.42216718,-0.42017955,-0.42913932,-0.4421357,-0.45608002,-0.47406083,-0.5029892,-0.5449139,-0.5878477,-0.6257664,-0.6587007,-0.69062585,-0.727566,-0.7605003,-0.783435,-0.79841906,-0.8103757,-0.823372,-0.8323319,-0.8323319,-0.8283565,-0.8253597,-0.8253597,-0.8223629,-0.8103757,-0.7974099,-0.787441,-0.787441,-0.7884195,-0.78245646,-0.7714784,-0.76147884,-0.7575035,-0.752519,-0.7465254,-0.7385441,-0.7345382,-0.7355473,-0.7335291,-0.7265569,-0.7175665,-0.7175665,-0.7245692,-0.7285446,-0.7245692,-0.7175665,-0.712582,-0.71658796,-0.7195847,-0.7185756,-0.7145697,-0.7145697,-0.7195847,-0.7235601,-0.7185756,-0.7115729,-0.70560986,-0.7075975,-0.7095852,-0.7075975,-0.70560986,-0.7075975,-0.7145697,-0.7185756,-0.712582,-0.70560986,-0.7016039,-0.70560986,-0.7105943,-0.7095852,-0.70560986,-0.70560986,-0.7105943,-0.71359116,-0.7115729,-0.7075975,-0.7086066,-0.71658796,-0.7205633,-0.7175665,-0.7105943,-0.7065884,-0.7115729,-0.7155788,-0.7115729,-0.70261306,-0.6976286,-0.7005948,-0.7035916,-0.70261306,-0.69961625,-0.6976286,-0.7016039,-0.7016039,-0.6976286,-0.69163495,-0.6896167,-0.69463176,-0.6986071,-0.6956103,-0.68863815,-0.68564135,-0.6896167,-0.6926135,-0.69062585,-0.6846322,-0.68564135,-0.6926135,-0.69661945,-0.69062585,-0.6786386,-0.666682,-0.6606884,-0.6576916,-0.6527071,-0.6457044,-0.6467135,-0.6537162,-0.6576916,-0.651698,-0.6387322,-0.626745,-0.6217605,-0.60879475,-0.58882624,-0.5658915,-0.5519166,-0.555892,-0.5688577,-0.58384174,-0.59781665,-0.6237482,-0.6616975,-0.7016039,-0.7295537,-0.7445072,-0.7515099,-0.7545067,-0.75349754,-0.74750394,-0.7395227,-0.7405318,-0.74750394,-0.75050074,-0.7435286,-0.7295537,-0.7195847,-0.7185756,-0.7205633,-0.722551,-0.7365259,-0.77245694,-0.8273474,-0.86826295,-0.84330994,-0.7145697,-0.46705806,-0.1307432,0.23951495,0.5688578,0.7395227,0.68163526,0.38721466,-0.058881164,-0.505986,-0.8173784,-0.9471278,-0.9371283,-0.8642876,-0.80740947,-0.79643136,-0.8193661,-0.85428804,-0.87526566,-0.8762442,-0.8642876,-0.8513218,-0.84330994,-0.8363378,-0.8243506,-0.8103757,-0.8023944,-0.8004067,-0.7993976,-0.79343456,-0.78245646,-0.77346605,-0.7714784,-0.76646334,-0.7575035,-0.7465254,-0.7415409,-0.7435286,-0.7455163,-0.737535,-0.7235601,-0.712582,-0.7115729,-0.712582,-0.7095852,-0.70261306,-0.6956103,-0.69463176,-0.69362265,-0.6836537,-0.6656729,-0.6507194,-0.641729,-0.6347263,-0.6247573,-0.60879475,-0.5938107,-0.58185405,-0.5698669,-0.5528952,-0.5319481,-0.5139673,-0.505986,-0.49702615,-0.48402983,-0.4690764,-0.46008593,-0.45708913,-0.45409232,-0.44809872,-0.43712062,-0.43314528,-0.44112659,-0.4521047,-0.46008593,-0.4660796,-0.48005444,-0.5119796,-0.5528952,-0.5938107,-0.6297418,-0.6646943,-0.7005948,-0.7365259,-0.7654848,-0.78444415,-0.8004067,-0.8173784,-0.8303442,-0.8373469,-0.8353287,-0.8323319,-0.833341,-0.8313533,-0.8263688,-0.8203752,-0.8163693,-0.81838757,-0.81838757,-0.81239396,-0.8004067,-0.7914163,-0.7894286,-0.78643185,-0.77646285,-0.7634971,-0.7545067,-0.752519,-0.752519,-0.7485131,-0.7395227,-0.7315414,-0.7285446,-0.7265569,-0.7195847,-0.712582,-0.7115729,-0.7185756,-0.722551,-0.7185756,-0.7086066,-0.70261306,-0.7065884,-0.7105943,-0.7095852,-0.7046007,-0.7035916,-0.7086066,-0.7115729,-0.70560986,-0.6926135,-0.6866505,-0.69362265,-0.7046007,-0.7086066,-0.7065884,-0.7046007,-0.7095852,-0.7145697,-0.7155788,-0.7095852,-0.7046007,-0.70560986,-0.7075975,-0.7046007,-0.6976286,-0.69463176,-0.7035916,-0.7145697,-0.7185756,-0.7115729,-0.7035916,-0.7016039,-0.70261306,-0.7016039,-0.69661945,-0.6926135,-0.6926135,-0.69362265,-0.6896167,-0.6786386,-0.6676605,-0.6616975,-0.6606884,-0.6606884,-0.65967923,-0.6636852,-0.67065734,-0.67365414,-0.666682,-0.64870113,-0.6287632,-0.616776,-0.60381025,-0.58582944,-0.56687003,-0.5549134,-0.5578796,-0.56687003,-0.5768696,-0.5878477,-0.6107824,-0.64870113,-0.69062585,-0.722551,-0.7345382,-0.737535,-0.7395227,-0.7385441,-0.7345382,-0.7255478,-0.7195847,-0.7215724,-0.7245692,-0.7215724,-0.7115729,-0.7035916,-0.7035916,-0.7075975,-0.7095852,-0.7115729,-0.7325505,-0.77646285,-0.8243506,-0.8363378,-0.76447564,-0.5828326,-0.29642373,0.049890757,0.40617394,0.67766,0.7574729,0.60579777,0.24550867,-0.21058667,-0.60680705,-0.84330994,-0.9151721,-0.87826246,-0.8163693,-0.78144735,-0.78643185,-0.8103757,-0.8313533,-0.8363378,-0.8273474,-0.81838757,-0.8133725,-0.80740947,-0.79841906,-0.783435,-0.77346605,-0.77046925,-0.7694601,-0.76447564,-0.75349754,-0.7445072,-0.7425195,-0.7385441,-0.7315414,-0.7185756,-0.7095852,-0.7075975,-0.7065884,-0.7016039,-0.69163495,-0.68564135,-0.68564135,-0.6846322,-0.6776601,-0.6636852,-0.6537162,-0.6527071,-0.651698,-0.6437167,-0.63176,-0.6207819,-0.616776,-0.6137792,-0.59882575,-0.5768696,-0.5578796,-0.5469016,-0.5399294,-0.5249454,-0.50201064,-0.47904533,-0.46308273,-0.4521047,-0.44011742,-0.42516404,-0.41418594,-0.41017997,-0.40819228,-0.40219867,-0.39222974,-0.3862362,-0.39122063,-0.39822334,-0.40718317,-0.41617358,-0.4361421,-0.4710641,-0.5129887,-0.5509075,-0.58485085,-0.6197728,-0.6606884,-0.7005948,-0.7325505,-0.75548524,-0.77545375,-0.79643136,-0.8113848,-0.8173784,-0.81239396,-0.8053912,-0.80441266,-0.80441266,-0.8034035,-0.79841906,-0.79542226,-0.79542226,-0.7914163,-0.78043824,-0.76447564,-0.75649434,-0.75848204,-0.762488,-0.75949115,-0.7465254,-0.7325505,-0.7255478,-0.7195847,-0.712582,-0.7016039,-0.6956103,-0.6976286,-0.6986071,-0.69362265,-0.6836537,-0.67665094,-0.6786386,-0.6806569,-0.6786386,-0.6696788,-0.66267604,-0.6616975,-0.6656729,-0.666682,-0.66267604,-0.6606884,-0.666682,-0.67365414,-0.67665094,-0.67365414,-0.67166644,-0.67365414,-0.67665094,-0.6756724,-0.66866964,-0.6656729,-0.6696788,-0.6726756,-0.67166644,-0.6656729,-0.6636852,-0.67065734,-0.6786386,-0.67964774,-0.6746633,-0.6696788,-0.6726756,-0.6776601,-0.6776601,-0.67365414,-0.67166644,-0.6746633,-0.6776601,-0.67665094,-0.6696788,-0.6656729,-0.66866964,-0.67166644,-0.67166644,-0.6646943,-0.65967923,-0.6576916,-0.6546948,-0.6447258,-0.6347263,-0.6307509,-0.6347263,-0.6437167,-0.6477226,-0.6427381,-0.6377231,-0.6327386,-0.6237482,-0.60381025,-0.5738728,-0.545923,-0.5319481,-0.5329572,-0.5429262,-0.5539043,-0.5658915,-0.58582944,-0.6137792,-0.6467135,-0.67964774,-0.7115729,-0.737535,-0.74750394,-0.7425195,-0.7285446,-0.7195847,-0.7215724,-0.7285446,-0.7295537,-0.722551,-0.7155788,-0.7145697,-0.7155788,-0.7115729,-0.7016039,-0.69463176,-0.7086066,-0.7455163,-0.79643136,-0.8393346,-0.8383255,-0.7545067,-0.5429262,-0.19859952,0.22456157,0.64270747,0.9221443,0.9640689,0.7564943,0.35229266,-0.122761965,-0.52097,-0.7634971,-0.85428804,-0.85428804,-0.8393346,-0.8493036,-0.87226886,-0.88924056,-0.88924056,-0.88223785,-0.87526566,-0.86927205,-0.86028165,-0.84630674,-0.8363378,-0.8313533,-0.8253597,-0.8173784,-0.80441266,-0.7924254,-0.7884195,-0.7854533,-0.77744144,-0.76447564,-0.75548524,-0.7515099,-0.7495222,-0.7435286,-0.7295537,-0.7205633,-0.7185756,-0.7205633,-0.7195847,-0.7086066,-0.6956103,-0.68863815,-0.68564135,-0.68163544,-0.6726756,-0.6656729,-0.6606884,-0.6537162,-0.641729,-0.6237482,-0.60680705,-0.59781665,-0.58983535,-0.5758605,-0.5539043,-0.5329572,-0.5189823,-0.5069951,-0.49103254,-0.4690764,-0.44809872,-0.43513292,-0.42715168,-0.41816133,-0.40620464,-0.39920193,-0.40021104,-0.40320778,-0.40320778,-0.40118957,-0.40620464,-0.42715168,-0.45608002,-0.48604804,-0.5139673,-0.5469016,-0.58882624,-0.6367445,-0.6786386,-0.7095852,-0.7345382,-0.75949115,-0.78144735,-0.79643136,-0.80141586,-0.8034035,-0.80740947,-0.8113848,-0.80939716,-0.79841906,-0.7884195,-0.7854533,-0.78444415,-0.78144735,-0.7714784,-0.762488,-0.75848204,-0.75649434,-0.7515099,-0.7405318,-0.7315414,-0.7285446,-0.727566,-0.7235601,-0.7145697,-0.7075975,-0.7065884,-0.7065884,-0.7016039,-0.6896167,-0.6806569,-0.6806569,-0.687629,-0.69163495,-0.69062585,-0.6896167,-0.69163495,-0.6956103,-0.69463176,-0.68564135,-0.67964774,-0.6806569,-0.687629,-0.6926135,-0.68863815,-0.6836537,-0.6836537,-0.68564135,-0.68564135,-0.67964774,-0.6746633,-0.67665094,-0.68264455,-0.687629,-0.68564135,-0.6846322,-0.68863815,-0.69362265,-0.6926135,-0.6846322,-0.6786386,-0.6786386,-0.6836537,-0.68564135,-0.68163544,-0.67964774,-0.68564135,-0.69463176,-0.69661945,-0.6896167,-0.6806569,-0.6776601,-0.6806569,-0.68264455,-0.6806569,-0.6806569,-0.6836537,-0.687629,-0.68564135,-0.67964774,-0.6746633,-0.6776601,-0.68264455,-0.68264455,-0.6726756,-0.6636852,-0.6606884,-0.65967923,-0.6537162,-0.641729,-0.6337477,-0.6357354,-0.6467135,-0.6537162,-0.6507194,-0.6427381,-0.63176,-0.6217605,-0.60879475,-0.5878477,-0.5678792,-0.5539043,-0.5469016,-0.5449139,-0.5439353,-0.5519166,-0.57185453,-0.6028011,-0.6387322,-0.67365414,-0.7046007,-0.7305628,-0.7485131,-0.75050074,-0.7415409,-0.7335291,-0.7345382,-0.737535,-0.7355473,-0.7265569,-0.7185756,-0.71658796,-0.7175665,-0.7175665,-0.7115729,-0.7086066,-0.7215724,-0.75649434,-0.80441266,-0.84630674,-0.85529715,-0.7884195,-0.601792,-0.2774644,0.13771534,0.56586075,0.8842255,0.9720502,0.80138516,0.41516447,-0.06888068,-0.49402934,-0.762488,-0.8642876,-0.8622999,-0.8393346,-0.84330994,-0.87125975,-0.89422506,-0.89722186,-0.8882314,-0.87826246,-0.87226886,-0.86526614,-0.85428804,-0.8453282,-0.8413223,-0.8383255,-0.8313533,-0.81539077,-0.8004067,-0.7944131,-0.7924254,-0.7884195,-0.77845055,-0.7684816,-0.7634971,-0.76147884,-0.75649434,-0.7465254,-0.7355473,-0.7325505,-0.7325505,-0.727566,-0.71359116,-0.69961625,-0.6926135,-0.69163495,-0.6896167,-0.68163544,-0.67065734,-0.66267604,-0.6566825,-0.6467135,-0.6307509,-0.6147883,-0.6047888,-0.59882575,-0.58882624,-0.570876,-0.5519166,-0.5369326,-0.5239668,-0.50800425,-0.48503894,-0.46207362,-0.4471202,-0.43812978,-0.43014848,-0.41917044,-0.41017997,-0.40920144,-0.41317677,-0.41617358,-0.41418594,-0.41418594,-0.42516404,-0.44809872,-0.47506994,-0.5029892,-0.5369326,-0.57885724,-0.6247573,-0.6656729,-0.6976286,-0.727566,-0.75949115,-0.79043776,-0.8133725,-0.8213538,-0.8243506,-0.8263688,-0.8293656,-0.8263688,-0.8163693,-0.8064003,-0.80441266,-0.8064003,-0.80441266,-0.79643136,-0.7854533,-0.78043824,-0.77845055,-0.77245694,-0.7605003,-0.75050074,-0.7455163,-0.7455163,-0.7435286,-0.7345382,-0.7265569,-0.7255478,-0.7285446,-0.7295537,-0.722551,-0.712582,-0.7075975,-0.7086066,-0.7086066,-0.7035916,-0.7016039,-0.7005948,-0.7046007,-0.7075975,-0.70261306,-0.69961625,-0.7016039,-0.70560986,-0.70560986,-0.69961625,-0.69362265,-0.6976286,-0.7075975,-0.71658796,-0.7155788,-0.7095852,-0.7046007,-0.7035916,-0.70261306,-0.6976286,-0.6926135,-0.69463176,-0.7005948,-0.70560986,-0.7035916,-0.7035916,-0.7075975,-0.71359116,-0.71359116,-0.7046007,-0.6976286,-0.6976286,-0.70560986,-0.7086066,-0.7005948,-0.6896167,-0.68264455,-0.6846322,-0.69062585,-0.69163495,-0.69362265,-0.6976286,-0.70261306,-0.70261306,-0.69661945,-0.6896167,-0.6896167,-0.69163495,-0.6926135,-0.687629,-0.6846322,-0.6866505,-0.69062585,-0.69163495,-0.68264455,-0.6746633,-0.6746633,-0.67964774,-0.6806569,-0.67365414,-0.6646943,-0.6587007,-0.6576916,-0.6546948,-0.6437167,-0.6367445,-0.6387322,-0.64870113,-0.6566825,-0.64870113,-0.6277541,-0.6077856,-0.5928322,-0.5758605,-0.5578796,-0.5419171,-0.5379417,-0.5489198,-0.5648824,-0.5798358,-0.6008134,-0.6347263,-0.6786386,-0.7185756,-0.7445072,-0.7545067,-0.75848204,-0.7575035,-0.7495222,-0.7355473,-0.7245692,-0.7245692,-0.7315414,-0.737535,-0.7335291,-0.7265569,-0.7245692,-0.727566,-0.727566,-0.727566,-0.7455163,-0.787441,-0.8423314,-0.86627525,-0.80740947,-0.6337477,-0.33831787,0.03291893,0.42314565,0.7345381,0.8393345,0.69561017,0.31935835,-0.16768348,-0.59481984,-0.85428804,-0.9381374,-0.9101876,-0.8513218,-0.81838757,-0.8213538,-0.84630674,-0.8702812,-0.879241,-0.87226886,-0.8563063,-0.8443191,-0.8393346,-0.8353287,-0.8253597,-0.81539077,-0.80939716,-0.8064003,-0.8023944,-0.7914163,-0.78144735,-0.77744144,-0.77945966,-0.77545375,-0.7634971,-0.7495222,-0.7415409,-0.7415409,-0.7435286,-0.7355473,-0.7215724,-0.712582,-0.7115729,-0.7095852,-0.7046007,-0.69961625,-0.69661945,-0.69362265,-0.68863815,-0.67365414,-0.6587007,-0.6507194,-0.6477226,-0.641729,-0.6237482,-0.601792,-0.58384174,-0.57185453,-0.5578796,-0.5399294,-0.52197915,-0.5089828,-0.50201064,-0.49002337,-0.4690764,-0.450117,-0.44112659,-0.44112659,-0.44311428,-0.43913895,-0.43314528,-0.43314528,-0.4421357,-0.4531138,-0.46207362,-0.4710641,-0.49002337,-0.5199609,-0.5549134,-0.5928322,-0.63176,-0.67166644,-0.712582,-0.7455163,-0.7654848,-0.77945966,-0.7974099,-0.81539077,-0.8303442,-0.8343501,-0.8323319,-0.8323319,-0.8353287,-0.8353287,-0.8263688,-0.8133725,-0.80740947,-0.8103757,-0.8133725,-0.8064003,-0.7944131,-0.78043824,-0.77346605,-0.7684816,-0.762488,-0.75548524,-0.7495222,-0.74750394,-0.7435286,-0.7365259,-0.7315414,-0.7295537,-0.7295537,-0.7245692,-0.7145697,-0.7086066,-0.7115729,-0.7205633,-0.7235601,-0.71359116,-0.70261306,-0.69661945,-0.69961625,-0.7035916,-0.7016039,-0.6976286,-0.7016039,-0.7115729,-0.7185756,-0.71359116,-0.7035916,-0.6986071,-0.7046007,-0.71359116,-0.7155788,-0.7115729,-0.7075975,-0.7065884,-0.7075975,-0.70560986,-0.7065884,-0.7115729,-0.7215724,-0.7235601,-0.7155788,-0.7046007,-0.70261306,-0.7086066,-0.7145697,-0.7115729,-0.7035916,-0.7005948,-0.70560986,-0.712582,-0.7105943,-0.7035916,-0.69961625,-0.7035916,-0.7086066,-0.7086066,-0.7046007,-0.7005948,-0.7005948,-0.69661945,-0.6836537,-0.66866964,-0.65967923,-0.6606884,-0.6636852,-0.6646943,-0.6656729,-0.67065734,-0.6786386,-0.67665094,-0.6616975,-0.6397413,-0.61778516,-0.60381025,-0.5908139,-0.5748514,-0.5678792,-0.5728637,-0.58983535,-0.6127701,-0.6357354,-0.66267604,-0.69661945,-0.7325505,-0.75548524,-0.7605003,-0.7545067,-0.7515099,-0.75349754,-0.7545067,-0.7495222,-0.7445072,-0.7415409,-0.7435286,-0.7425195,-0.7345382,-0.7255478,-0.7235601,-0.7305628,-0.7405318,-0.75848204,-0.79043776,-0.8303442,-0.8533095,-0.8064003,-0.6507194,-0.38424844,-0.0558843,0.28043044,0.5509074,0.6546947,0.5449139,0.22254324,-0.22257394,-0.63176,-0.88025016,-0.9501246,-0.904194,-0.833341,-0.7944131,-0.79343456,-0.81239396,-0.8343501,-0.8493036,-0.8473159,-0.8303442,-0.8064003,-0.79043776,-0.7854533,-0.78043824,-0.7714784,-0.7605003,-0.75349754,-0.75548524,-0.75649434,-0.7485131,-0.7355473,-0.727566,-0.7265569,-0.7255478,-0.7185756,-0.7086066,-0.7016039,-0.70261306,-0.7035916,-0.69961625,-0.69163495,-0.6836537,-0.6786386,-0.67065734,-0.6576916,-0.6437167,-0.6367445,-0.6367445,-0.6347263,-0.626745,-0.6157669,-0.6077856,-0.6047888,-0.59882575,-0.5828326,-0.56188554,-0.5429262,-0.5269636,-0.50999194,-0.48702657,-0.46308273,-0.4471202,-0.44112659,-0.4341238,-0.42216718,-0.40819228,-0.40021104,-0.40021104,-0.40418637,-0.40118957,-0.39620507,-0.39620507,-0.40519553,-0.41816133,-0.43213618,-0.4531138,-0.48604804,-0.5329572,-0.5798358,-0.6197728,-0.6537162,-0.68564135,-0.7205633,-0.75050074,-0.7684816,-0.77945966,-0.7894286,-0.8004067,-0.808388,-0.808388,-0.80441266,-0.80141586,-0.8034035,-0.8023944,-0.7944131,-0.783435,-0.77744144,-0.77744144,-0.77545375,-0.76646334,-0.7545067,-0.7445072,-0.7425195,-0.737535,-0.727566,-0.71658796,-0.7105943,-0.7115729,-0.7115729,-0.70261306,-0.687629,-0.67964774,-0.67964774,-0.68163544,-0.68163544,-0.67665094,-0.67365414,-0.6746633,-0.6726756,-0.6646943,-0.6557039,-0.6507194,-0.651698,-0.6507194,-0.6457044,-0.6407199,-0.6447258,-0.6566825,-0.6646943,-0.6636852,-0.65967923,-0.6587007,-0.666682,-0.67365414,-0.67065734,-0.6636852,-0.6616975,-0.6656729,-0.67065734,-0.666682,-0.6587007,-0.6537162,-0.6576916,-0.6646943,-0.66866964,-0.66866964,-0.6696788,-0.67365414,-0.6746633,-0.67065734,-0.6636852,-0.6606884,-0.6616975,-0.6616975,-0.6576916,-0.64870113,-0.641729,-0.641729,-0.6397413,-0.6327386,-0.6297418,-0.6327386,-0.6407199,-0.6437167,-0.6337477,-0.6137792,-0.5968075,-0.5828326,-0.56687003,-0.5469016,-0.530939,-0.5289513,-0.5419171,-0.55888873,-0.5738728,-0.58983535,-0.6207819,-0.6646943,-0.70261306,-0.722551,-0.7235601,-0.7195847,-0.7175665,-0.7195847,-0.7195847,-0.7145697,-0.712582,-0.7145697,-0.7145697,-0.7086066,-0.7005948,-0.6956103,-0.6956103,-0.6956103,-0.6976286,-0.71359116,-0.75548524,-0.8113848,-0.84330994,-0.79841906,-0.6397413,-0.35229272,0.019953132,0.42614257,0.773466,0.9341315,0.8473158,0.52194846,0.058881044,-0.38024253,-0.6786386,-0.81838757,-0.8453282,-0.8273474,-0.8163693,-0.8243506,-0.8423314,-0.86028165,-0.8672844,-0.8612908,-0.848325,-0.8393346,-0.8373469,-0.8323319,-0.8203752,-0.80441266,-0.79343456,-0.7894286,-0.787441,-0.77945966,-0.7654848,-0.75548524,-0.75349754,-0.75349754,-0.7495222,-0.7395227,-0.7295537,-0.7235601,-0.7195847,-0.7115729,-0.7035916,-0.6976286,-0.69661945,-0.6926135,-0.68163544,-0.67065734,-0.6646943,-0.6646943,-0.65967923,-0.6467135,-0.6287632,-0.6157669,-0.6127701,-0.60879475,-0.5968075,-0.5778481,-0.56188554,-0.5509075,-0.5389202,-0.5199609,-0.49800473,-0.47904533,-0.46806723,-0.45510143,-0.4341238,-0.41216767,-0.39920193,-0.40021104,-0.40418637,-0.40118957,-0.39122063,-0.3862362,-0.39021146,-0.40021104,-0.41118914,-0.42415488,-0.4471202,-0.48604804,-0.52996045,-0.570876,-0.60680705,-0.6407199,-0.6776601,-0.7105943,-0.7365259,-0.75649434,-0.7744752,-0.7914163,-0.8023944,-0.8023944,-0.7944131,-0.7894286,-0.7894286,-0.7884195,-0.78144735,-0.77046925,-0.7634971,-0.76447564,-0.76646334,-0.75949115,-0.7455163,-0.7335291,-0.7285446,-0.7265569,-0.7235601,-0.7175665,-0.7115729,-0.7115729,-0.7115729,-0.7046007,-0.69463176,-0.687629,-0.68564135,-0.68264455,-0.6756724,-0.6676605,-0.6656729,-0.67166644,-0.6756724,-0.6726756,-0.6636852,-0.6587007,-0.6616975,-0.6656729,-0.6646943,-0.6616975,-0.6616975,-0.6696788,-0.67365414,-0.67065734,-0.6606884,-0.6537162,-0.6557039,-0.6616975,-0.6616975,-0.6576916,-0.6566825,-0.6616975,-0.6656729,-0.666682,-0.6636852,-0.6646943,-0.67166644,-0.67665094,-0.6746633,-0.6656729,-0.65967923,-0.6616975,-0.6646943,-0.6636852,-0.6576916,-0.6566825,-0.66267604,-0.6676605,-0.6656729,-0.6566825,-0.6507194,-0.6537162,-0.6587007,-0.65967923,-0.6557039,-0.6527071,-0.6537162,-0.6527071,-0.64870113,-0.6437167,-0.6427381,-0.651698,-0.6576916,-0.6566825,-0.6447258,-0.63176,-0.6237482,-0.6197728,-0.6117915,-0.6047888,-0.6047888,-0.6117915,-0.61778516,-0.6127701,-0.59781665,-0.58485085,-0.5748514,-0.5628947,-0.545923,-0.52197915,-0.5119796,-0.52097,-0.5359235,-0.5519166,-0.5658915,-0.5878477,-0.6257664,-0.6676605,-0.7005948,-0.7155788,-0.7195847,-0.7195847,-0.7185756,-0.7155788,-0.7105943,-0.7095852,-0.7115729,-0.7095852,-0.70261306,-0.69362265,-0.69163495,-0.6956103,-0.69961625,-0.7016039,-0.71359116,-0.75050074,-0.80740947,-0.8513218,-0.8293656,-0.7005948,-0.44112659,-0.073865175,0.34532046,0.7385136,0.9730594,0.95807517,0.68264437,0.22853684,-0.2504931,-0.6107824,-0.8023944,-0.8593031,-0.8473159,-0.8313533,-0.8363378,-0.8593031,-0.8842561,-0.89422506,-0.8872223,-0.8672844,-0.85230035,-0.8493036,-0.848325,-0.84330994,-0.8323319,-0.81838757,-0.80939716,-0.8004067,-0.7894286,-0.77646285,-0.77245694,-0.77545375,-0.77744144,-0.7694601,-0.75349754,-0.7385441,-0.7325505,-0.7295537,-0.7255478,-0.7185756,-0.71359116,-0.712582,-0.7086066,-0.6976286,-0.68264455,-0.67065734,-0.66866964,-0.6696788,-0.6656729,-0.6546948,-0.6437167,-0.6357354,-0.626745,-0.6117915,-0.591823,-0.5748514,-0.5658915,-0.555892,-0.5389202,-0.5119796,-0.48803574,-0.47406083,-0.46308273,-0.450117,-0.43213618,-0.41718274,-0.41317677,-0.41317677,-0.40819228,-0.39920193,-0.39421743,-0.40021104,-0.41017997,-0.41917044,-0.42516404,-0.43712062,-0.46507043,-0.5029892,-0.5429262,-0.58084494,-0.6217605,-0.6656729,-0.70560986,-0.7345382,-0.752519,-0.7684816,-0.787441,-0.8034035,-0.8103757,-0.80740947,-0.80141586,-0.79841906,-0.7974099,-0.7914163,-0.783435,-0.77945966,-0.78043824,-0.77945966,-0.7714784,-0.75548524,-0.7415409,-0.737535,-0.737535,-0.7335291,-0.7245692,-0.7175665,-0.7155788,-0.7145697,-0.7075975,-0.6976286,-0.6896167,-0.6926135,-0.6956103,-0.6926135,-0.6846322,-0.6786386,-0.68163544,-0.687629,-0.68863815,-0.68163544,-0.6756724,-0.6756724,-0.67964774,-0.67964774,-0.67365414,-0.6696788,-0.67166644,-0.67665094,-0.68163544,-0.67964774,-0.6776601,-0.6776601,-0.6746633,-0.66866964,-0.66267604,-0.66267604,-0.67065734,-0.6776601,-0.6756724,-0.666682,-0.65967923,-0.66267604,-0.66866964,-0.67065734,-0.6676605,-0.6646943,-0.66866964,-0.67365414,-0.6746633,-0.6696788,-0.666682,-0.67166644,-0.6776601,-0.6806569,-0.67665094,-0.6726756,-0.6746633,-0.67665094,-0.6726756,-0.6636852,-0.6557039,-0.6566825,-0.66267604,-0.6656729,-0.6606884,-0.6576916,-0.6587007,-0.66267604,-0.6606884,-0.651698,-0.6457044,-0.6497103,-0.6576916,-0.6636852,-0.6606884,-0.6537162,-0.651698,-0.6537162,-0.6537162,-0.64870113,-0.6427381,-0.6367445,-0.63176,-0.6237482,-0.6117915,-0.6057979,-0.60980386,-0.6157669,-0.61778516,-0.6117915,-0.601792,-0.5938107,-0.58084494,-0.5608764,-0.5349449,-0.5139673,-0.5089828,-0.5159855,-0.5279422,-0.5399294,-0.5598979,-0.59781665,-0.6447258,-0.68863815,-0.7155788,-0.727566,-0.7315414,-0.7295537,-0.722551,-0.7115729,-0.70560986,-0.7086066,-0.71359116,-0.7155788,-0.7115729,-0.70560986,-0.7065884,-0.7105943,-0.7105943,-0.7105943,-0.7295537,-0.77545375,-0.8303442,-0.8563063,-0.79841906,-0.6227696,-0.31636167,0.078849554,0.50201046,0.8452976,0.975047,0.84031296,0.47005486,-0.017965555,-0.46008593,-0.7465254,-0.86526614,-0.86826295,-0.833341,-0.8163693,-0.8323319,-0.86327845,-0.8872223,-0.89122826,-0.8812593,-0.8702812,-0.86526614,-0.8612908,-0.8503127,-0.8313533,-0.81539077,-0.80939716,-0.80740947,-0.80441266,-0.7924254,-0.783435,-0.77945966,-0.77744144,-0.77046925,-0.75649434,-0.7455163,-0.7435286,-0.7435286,-0.7415409,-0.7295537,-0.7195847,-0.7155788,-0.71658796,-0.712582,-0.7035916,-0.69463176,-0.6896167,-0.6846322,-0.6776601,-0.6636852,-0.6507194,-0.6447258,-0.6397413,-0.6287632,-0.60980386,-0.5928322,-0.58084494,-0.5688577,-0.5519166,-0.5279422,-0.5069951,-0.49601704,-0.49002337,-0.48103303,-0.4660796,-0.450117,-0.44011742,-0.4341238,-0.42614257,-0.41418594,-0.40718317,-0.41017997,-0.41617358,-0.42216718,-0.42614257,-0.43712062,-0.46308273,-0.49702615,-0.530939,-0.56387323,-0.601792,-0.6467135,-0.69062585,-0.7255478,-0.7455163,-0.7605003,-0.78245646,-0.80441266,-0.8193661,-0.8223629,-0.8203752,-0.8213538,-0.8223629,-0.81838757,-0.8103757,-0.80141586,-0.79841906,-0.7974099,-0.7914163,-0.77744144,-0.76747245,-0.76447564,-0.7654848,-0.7605003,-0.7485131,-0.7355473,-0.7295537,-0.7285446,-0.7245692,-0.7155788,-0.7086066,-0.7095852,-0.71359116,-0.71359116,-0.7065884,-0.69961625,-0.6986071,-0.7016039,-0.7035916,-0.69961625,-0.69961625,-0.7065884,-0.712582,-0.7145697,-0.7046007,-0.69362265,-0.69163495,-0.6956103,-0.6976286,-0.69463176,-0.69163495,-0.6956103,-0.70261306,-0.70560986,-0.69661945,-0.68863815,-0.687629,-0.69463176,-0.7016039,-0.70261306,-0.7005948,-0.69961625,-0.6986071,-0.6976286,-0.69463176,-0.6956103,-0.7016039,-0.7105943,-0.7105943,-0.7016039,-0.69463176,-0.6956103,-0.7005948,-0.7035916,-0.6986071,-0.6926135,-0.69062585,-0.69163495,-0.69062585,-0.6866505,-0.68564135,-0.6896167,-0.69362265,-0.69163495,-0.6836537,-0.67964774,-0.68264455,-0.69062585,-0.6926135,-0.6866505,-0.6786386,-0.67665094,-0.67964774,-0.67964774,-0.6756724,-0.67166644,-0.67166644,-0.67166644,-0.6656729,-0.6527071,-0.6447258,-0.6397413,-0.6407199,-0.6427381,-0.6397413,-0.6397413,-0.6447258,-0.6457044,-0.6357354,-0.60980386,-0.5828326,-0.56387323,-0.5549134,-0.5519166,-0.5498984,-0.5569011,-0.5778481,-0.60980386,-0.6467135,-0.6786386,-0.7065884,-0.7305628,-0.74750394,-0.75349754,-0.7455163,-0.7355473,-0.7355473,-0.7405318,-0.7445072,-0.7395227,-0.7325505,-0.7285446,-0.7305628,-0.7305628,-0.7235601,-0.71658796,-0.7245692,-0.75349754,-0.79643136,-0.8353287,-0.8363378,-0.76747245,-0.58983535,-0.29642373,0.06386554,0.43014848,0.6896167,0.7405318,0.5618855,0.18162775,-0.28143972,-0.6746633,-0.8992095,-0.94810635,-0.8872223,-0.8143816,-0.7884195,-0.80441266,-0.833341,-0.8503127,-0.85428804,-0.8533095,-0.848325,-0.8413223,-0.8253597,-0.8113848,-0.8023944,-0.7993976,-0.7944131,-0.78245646,-0.77245694,-0.76747245,-0.76447564,-0.75949115,-0.7465254,-0.7365259,-0.7345382,-0.737535,-0.737535,-0.7295537,-0.7205633,-0.7175665,-0.7185756,-0.712582,-0.69661945,-0.6806569,-0.67166644,-0.6696788,-0.67065734,-0.666682,-0.6616975,-0.6576916,-0.6557039,-0.6477226,-0.6297418,-0.6107824,-0.59481984,-0.58582944,-0.5768696,-0.56687003,-0.555892,-0.5429262,-0.5239668,-0.49901384,-0.4710641,-0.4531138,-0.44809872,-0.4491079,-0.4471202,-0.43712062,-0.42614257,-0.42216718,-0.42314577,-0.42614257,-0.42715168,-0.4341238,-0.450117,-0.47005492,-0.49302024,-0.5179732,-0.5528952,-0.59481984,-0.6387322,-0.6756724,-0.7035916,-0.727566,-0.7575035,-0.7894286,-0.81239396,-0.823372,-0.8293656,-0.8343501,-0.8383255,-0.8373469,-0.8313533,-0.8243506,-0.8243506,-0.8273474,-0.8243506,-0.81239396,-0.79841906,-0.79043776,-0.7894286,-0.78643185,-0.77845055,-0.7694601,-0.7634971,-0.76147884,-0.75848204,-0.74750394,-0.7345382,-0.727566,-0.7245692,-0.7205633,-0.712582,-0.7035916,-0.7016039,-0.70261306,-0.70261306,-0.6986071,-0.69163495,-0.69062585,-0.69163495,-0.68863815,-0.68163544,-0.6756724,-0.67665094,-0.67964774,-0.68264455,-0.68163544,-0.68163544,-0.6866505,-0.6926135,-0.6926135,-0.6846322,-0.6776601,-0.68163544,-0.69062585,-0.69463176,-0.69062585,-0.6846322,-0.68163544,-0.68564135,-0.6896167,-0.6866505,-0.68163544,-0.68163544,-0.687629,-0.687629,-0.68264455,-0.67665094,-0.6746633,-0.6806569,-0.687629,-0.6866505,-0.68264455,-0.68264455,-0.6836537,-0.6806569,-0.67166644,-0.6636852,-0.6587007,-0.6576916,-0.6537162,-0.6427381,-0.6327386,-0.63176,-0.6397413,-0.6467135,-0.6457044,-0.6377231,-0.6287632,-0.6227696,-0.6107824,-0.5878477,-0.5658915,-0.5479107,-0.5409385,-0.5399294,-0.5389202,-0.5469016,-0.570876,-0.60980386,-0.651698,-0.6846322,-0.7075975,-0.722551,-0.7295537,-0.7285446,-0.7175665,-0.7095852,-0.7095852,-0.7155788,-0.7155788,-0.7075975,-0.6986071,-0.6956103,-0.7005948,-0.70261306,-0.69661945,-0.69163495,-0.7005948,-0.7345382,-0.783435,-0.8223629,-0.81539077,-0.7245692,-0.5179732,-0.20061773,0.17364645,0.53292656,0.7634666,0.7784505,0.56586075,0.17364645,-0.27945203,-0.6467135,-0.85230035,-0.89722186,-0.8503127,-0.7974099,-0.78444415,-0.8034035,-0.8253597,-0.8343501,-0.8303442,-0.8273474,-0.8283565,-0.8263688,-0.8173784,-0.8034035,-0.7914163,-0.783435,-0.77545375,-0.76447564,-0.7545067,-0.7495222,-0.74750394,-0.7395227,-0.7255478,-0.7115729,-0.70560986,-0.7086066,-0.7105943,-0.7046007,-0.69661945,-0.69163495,-0.6896167,-0.6846322,-0.6746633,-0.6636852,-0.6576916,-0.6576916,-0.6537162,-0.6427381,-0.6307509,-0.6247573,-0.6227696,-0.616776,-0.60381025,-0.5878477,-0.5758605,-0.56387323,-0.5498984,-0.5279422,-0.5029892,-0.48503894,-0.4720732,-0.46008593,-0.4441234,-0.4281608,-0.41718274,-0.41118914,-0.40320778,-0.39021146,-0.38024253,-0.37825483,-0.38424844,-0.39222974,-0.39620507,-0.40021104,-0.41418594,-0.43712062,-0.46705806,-0.49800473,-0.5369326,-0.58084494,-0.6297418,-0.6726756,-0.70261306,-0.7295537,-0.75349754,-0.77744144,-0.79343456,-0.79643136,-0.79542226,-0.79643136,-0.8004067,-0.80141586,-0.79542226,-0.787441,-0.78444415,-0.783435,-0.77945966,-0.76747245,-0.75548524,-0.74750394,-0.7485131,-0.7495222,-0.7435286,-0.7365259,-0.7335291,-0.7325505,-0.7285446,-0.71658796,-0.7035916,-0.6956103,-0.69463176,-0.69062585,-0.6806569,-0.6726756,-0.67065734,-0.67665094,-0.68163544,-0.6776601,-0.6696788,-0.6646943,-0.66866964,-0.6726756,-0.6696788,-0.6636852,-0.6606884,-0.6636852,-0.6676605,-0.666682,-0.6646943,-0.6656729,-0.67166644,-0.67665094,-0.6746633,-0.67166644,-0.67065734,-0.6726756,-0.6746633,-0.6726756,-0.66866964,-0.6696788,-0.6746633,-0.67665094,-0.67365414,-0.6696788,-0.6726756,-0.6806569,-0.68564135,-0.6836537,-0.6786386,-0.6756724,-0.6806569,-0.6836537,-0.68163544,-0.67665094,-0.6756724,-0.6776601,-0.67665094,-0.67166644,-0.6656729,-0.6656729,-0.66866964,-0.66866964,-0.6557039,-0.6397413,-0.6307509,-0.6327386,-0.6357354,-0.6357354,-0.6357354,-0.6387322,-0.6447258,-0.6427381,-0.6247573,-0.6008134,-0.58084494,-0.5678792,-0.5569011,-0.5409385,-0.530939,-0.5339358,-0.5498984,-0.570876,-0.58983535,-0.6147883,-0.6507194,-0.6926135,-0.7245692,-0.7355473,-0.7305628,-0.7245692,-0.7245692,-0.7255478,-0.7215724,-0.7155788,-0.7145697,-0.7195847,-0.7205633,-0.712582,-0.70261306,-0.6956103,-0.6976286,-0.7086066,-0.7305628,-0.77046925,-0.8223629,-0.8563063,-0.81838757,-0.6636852,-0.37424892,0.008975029,0.42415476,0.7794291,0.9530908,0.88025,0.5648823,0.09679973,-0.3592955,-0.6786386,-0.8313533,-0.86327845,-0.8503127,-0.84330994,-0.8513218,-0.86826295,-0.8842561,-0.89523417,-0.89321595,-0.8812593,-0.86526614,-0.85428804,-0.8503127,-0.84330994,-0.8293656,-0.8143816,-0.80441266,-0.8004067,-0.7974099,-0.78643185,-0.77245694,-0.762488,-0.7605003,-0.75848204,-0.7515099,-0.7435286,-0.737535,-0.7355473,-0.7315414,-0.7195847,-0.7075975,-0.7005948,-0.7005948,-0.6986071,-0.69062585,-0.6786386,-0.67065734,-0.66866964,-0.6636852,-0.651698,-0.6367445,-0.6247573,-0.6187637,-0.6107824,-0.5928322,-0.570876,-0.5528952,-0.5399294,-0.5269636,-0.50800425,-0.48604804,-0.4690764,-0.45608002,-0.4441234,-0.4281608,-0.41216767,-0.40519553,-0.40519553,-0.40418637,-0.39620507,-0.38923293,-0.39222974,-0.40620464,-0.42415488,-0.43913895,-0.45510143,-0.48005444,-0.5199609,-0.5628947,-0.6028011,-0.6377231,-0.67365414,-0.71359116,-0.74750394,-0.77046925,-0.78444415,-0.7974099,-0.8103757,-0.8173784,-0.8163693,-0.8103757,-0.80740947,-0.8103757,-0.8103757,-0.8023944,-0.7884195,-0.77845055,-0.7744752,-0.77245694,-0.76447564,-0.75349754,-0.7435286,-0.7395227,-0.7355473,-0.7285446,-0.7205633,-0.71658796,-0.7175665,-0.71658796,-0.7086066,-0.6986071,-0.69463176,-0.69661945,-0.6976286,-0.69062585,-0.68264455,-0.68264455,-0.69062585,-0.69661945,-0.69362265,-0.6846322,-0.68163544,-0.687629,-0.69362265,-0.69362265,-0.687629,-0.68564135,-0.69062585,-0.69362265,-0.6896167,-0.68264455,-0.6806569,-0.6866505,-0.6926135,-0.69062585,-0.6836537,-0.6786386,-0.68163544,-0.6846322,-0.68264455,-0.6776601,-0.6776601,-0.68264455,-0.6866505,-0.6846322,-0.6786386,-0.6776601,-0.68564135,-0.6926135,-0.69362265,-0.6896167,-0.68863815,-0.69362265,-0.6986071,-0.6956103,-0.68863815,-0.68264455,-0.68264455,-0.68264455,-0.6776601,-0.67365414,-0.67665094,-0.6846322,-0.68863815,-0.6836537,-0.6726756,-0.6676605,-0.67166644,-0.67665094,-0.67665094,-0.6726756,-0.67065734,-0.6726756,-0.6696788,-0.6587007,-0.6437167,-0.6357354,-0.6357354,-0.6397413,-0.641729,-0.641729,-0.6437167,-0.6447258,-0.6367445,-0.61778516,-0.58983535,-0.56387323,-0.5489198,-0.5389202,-0.5359235,-0.5409385,-0.5549134,-0.5798358,-0.60680705,-0.6357354,-0.66866964,-0.70560986,-0.7395227,-0.7575035,-0.7575035,-0.7445072,-0.7355473,-0.7355473,-0.7385441,-0.737535,-0.7315414,-0.7265569,-0.727566,-0.727566,-0.722551,-0.71658796,-0.71658796,-0.7385441,-0.78043824,-0.8283565,-0.8642876,-0.85230035,-0.75649434,-0.5329572,-0.18263692,0.23850584,0.652707,0.9201566,0.9481064,0.7245387,0.29938996,-0.18963969,-0.58983535,-0.8203752,-0.8902191,-0.87226886,-0.8473159,-0.85529715,-0.88025016,-0.90021867,-0.9062123,-0.90321547,-0.9011972,-0.8962127,-0.8842561,-0.86826295,-0.85428804,-0.84630674,-0.8393346,-0.8293656,-0.8193661,-0.8133725,-0.8133725,-0.8113848,-0.8004067,-0.78444415,-0.77245694,-0.76747245,-0.7654848,-0.7575035,-0.7465254,-0.7365259,-0.7325505,-0.7285446,-0.7215724,-0.71359116,-0.7095852,-0.7115729,-0.7095852,-0.7005948,-0.6846322,-0.67166644,-0.6676605,-0.66267604,-0.6537162,-0.6387322,-0.6227696,-0.6127701,-0.6008134,-0.58384174,-0.56387323,-0.5469016,-0.5329572,-0.5169641,-0.49601704,-0.4720732,-0.45510143,-0.450117,-0.44611108,-0.43812978,-0.42516404,-0.41516447,-0.41516447,-0.41718274,-0.41617358,-0.41216767,-0.41516447,-0.4311576,-0.45510143,-0.48103303,-0.50999194,-0.5439353,-0.58683854,-0.6287632,-0.6636852,-0.69163495,-0.7205633,-0.75548524,-0.78444415,-0.80141586,-0.8064003,-0.8113848,-0.8213538,-0.8303442,-0.8323319,-0.8253597,-0.81539077,-0.8103757,-0.8064003,-0.8023944,-0.7944131,-0.7894286,-0.787441,-0.7854533,-0.77945966,-0.7694601,-0.76147884,-0.75649434,-0.7485131,-0.7385441,-0.7265569,-0.722551,-0.7255478,-0.727566,-0.7215724,-0.7115729,-0.7065884,-0.7105943,-0.7145697,-0.712582,-0.7046007,-0.7016039,-0.7086066,-0.71658796,-0.71658796,-0.7086066,-0.70261306,-0.70261306,-0.70560986,-0.7046007,-0.6986071,-0.69961625,-0.7086066,-0.71658796,-0.7155788,-0.70560986,-0.6976286,-0.6976286,-0.7035916,-0.7046007,-0.7005948,-0.69961625,-0.7035916,-0.7086066,-0.7086066,-0.70261306,-0.69961625,-0.7035916,-0.7105943,-0.712582,-0.7095852,-0.7065884,-0.7086066,-0.7115729,-0.7105943,-0.70560986,-0.7016039,-0.7016039,-0.7005948,-0.6956103,-0.69062585,-0.6896167,-0.69661945,-0.7016039,-0.6976286,-0.6896167,-0.6866505,-0.6926135,-0.69961625,-0.7005948,-0.69362265,-0.6896167,-0.6926135,-0.69661945,-0.69463176,-0.687629,-0.67964774,-0.6746633,-0.6676605,-0.6576916,-0.6477226,-0.6447258,-0.651698,-0.66267604,-0.6646943,-0.6546948,-0.6397413,-0.6257664,-0.60980386,-0.5908139,-0.570876,-0.5569011,-0.5539043,-0.5578796,-0.5648824,-0.5728637,-0.591823,-0.626745,-0.6696788,-0.7105943,-0.7395227,-0.75548524,-0.7634971,-0.762488,-0.752519,-0.7415409,-0.7385441,-0.7425195,-0.7455163,-0.7435286,-0.7365259,-0.7335291,-0.7355473,-0.7345382,-0.7295537,-0.7245692,-0.7415409,-0.78643185,-0.8403437,-0.87226886,-0.8343501,-0.6976286,-0.4441234,-0.09780908,0.28743327,0.6307508,0.7974098,0.7215723,0.40917075,-0.049890697,-0.49800473,-0.80740947,-0.9391465,-0.93113464,-0.8702812,-0.8273474,-0.8283565,-0.858294,-0.8812593,-0.88523465,-0.87226886,-0.85728484,-0.85230035,-0.8513218,-0.8473159,-0.8353287,-0.8273474,-0.8243506,-0.8193661,-0.80939716,-0.79643136,-0.7854533,-0.78444415,-0.78444415,-0.77945966,-0.7684816,-0.7605003,-0.75848204,-0.75649434,-0.74750394,-0.7345382,-0.7255478,-0.7255478,-0.7265569,-0.722551,-0.7115729,-0.70261306,-0.69961625,-0.69961625,-0.6926135,-0.6786386,-0.66267604,-0.6527071,-0.6427381,-0.63176,-0.6187637,-0.60680705,-0.59882575,-0.58683854,-0.5678792,-0.5449139,-0.5269636,-0.52097,-0.5129887,-0.50002295,-0.47904533,-0.45907682,-0.45109558,-0.4471202,-0.4421357,-0.43213618,-0.42715168,-0.4281608,-0.43314528,-0.43812978,-0.44112659,-0.4521047,-0.47506994,-0.50800425,-0.5439353,-0.5798358,-0.6217605,-0.66866964,-0.7095852,-0.7405318,-0.76147884,-0.78245646,-0.8113848,-0.8343501,-0.8453282,-0.84330994,-0.8363378,-0.8363378,-0.8383255,-0.8373469,-0.8293656,-0.823372,-0.81838757,-0.8133725,-0.8053912,-0.79343456,-0.7894286,-0.7924254,-0.79343456,-0.787441,-0.77346605,-0.7634971,-0.76147884,-0.762488,-0.7575035,-0.7425195,-0.7285446,-0.722551,-0.722551,-0.7235601,-0.7185756,-0.71359116,-0.71359116,-0.7145697,-0.712582,-0.7075975,-0.70261306,-0.70560986,-0.7075975,-0.7086066,-0.70560986,-0.7075975,-0.71359116,-0.7155788,-0.7095852,-0.69661945,-0.6866505,-0.687629,-0.69661945,-0.7046007,-0.7046007,-0.7046007,-0.7065884,-0.7075975,-0.7065884,-0.7046007,-0.7075975,-0.7175665,-0.7255478,-0.7235601,-0.71359116,-0.7065884,-0.7086066,-0.7145697,-0.71658796,-0.71359116,-0.71359116,-0.7195847,-0.7245692,-0.7235601,-0.7145697,-0.7075975,-0.7065884,-0.7046007,-0.6956103,-0.67964774,-0.67065734,-0.6726756,-0.68163544,-0.6896167,-0.69062585,-0.68863815,-0.687629,-0.6806569,-0.6646943,-0.6457044,-0.6307509,-0.6217605,-0.6147883,-0.601792,-0.58485085,-0.5768696,-0.58084494,-0.5928322,-0.60980386,-0.6297418,-0.66267604,-0.7075975,-0.74750394,-0.7684816,-0.76747245,-0.75848204,-0.752519,-0.752519,-0.752519,-0.7455163,-0.7405318,-0.7385441,-0.7395227,-0.7365259,-0.727566,-0.7205633,-0.7195847,-0.7205633,-0.7285446,-0.7495222,-0.787441,-0.8283565,-0.8253597,-0.7345382,-0.52197915,-0.21658033,0.12474966,0.44708943,0.6497103,0.6546947,0.43611133,0.035915732,-0.41216767,-0.75649434,-0.9181689,-0.9251717,-0.86028165,-0.8034035,-0.78643185,-0.79643136,-0.8163693,-0.8343501,-0.8393346,-0.8313533,-0.81539077,-0.8023944,-0.7974099,-0.79643136,-0.79043776,-0.77646285,-0.76447564,-0.75848204,-0.75548524,-0.7495222,-0.7365259,-0.7255478,-0.7255478,-0.7265569,-0.7255478,-0.71658796,-0.7075975,-0.7046007,-0.7046007,-0.7016039,-0.6896167,-0.67964774,-0.67665094,-0.6756724,-0.6696788,-0.6566825,-0.6437167,-0.6387322,-0.6377231,-0.6327386,-0.6207819,-0.6077856,-0.59781665,-0.5878477,-0.5738728,-0.5539043,-0.5359235,-0.5269636,-0.5159855,-0.50002295,-0.47604853,-0.45409232,-0.4421357,-0.43812978,-0.4341238,-0.42017955,-0.40620464,-0.39920193,-0.39522654,-0.39222974,-0.3872453,-0.38522696,-0.39421743,-0.41017997,-0.4281608,-0.4471202,-0.47305173,-0.5129887,-0.55888873,-0.59882575,-0.63176,-0.6656729,-0.70560986,-0.7445072,-0.77545375,-0.7914163,-0.80141586,-0.8133725,-0.8253597,-0.8263688,-0.8173784,-0.8064003,-0.8004067,-0.80141586,-0.8004067,-0.7914163,-0.78444415,-0.78245646,-0.78043824,-0.7744752,-0.76147884,-0.7495222,-0.7455163,-0.7455163,-0.7435286,-0.7365259,-0.7285446,-0.7245692,-0.7185756,-0.7086066,-0.6956103,-0.68863815,-0.69062585,-0.69661945,-0.6976286,-0.6926135,-0.6866505,-0.6836537,-0.6806569,-0.6726756,-0.65967923,-0.6537162,-0.6566825,-0.6646943,-0.66866964,-0.6656729,-0.6616975,-0.66267604,-0.666682,-0.6696788,-0.6656729,-0.6656729,-0.67166644,-0.6806569,-0.68264455,-0.6756724,-0.66866964,-0.67065734,-0.67964774,-0.68564135,-0.68264455,-0.67665094,-0.67665094,-0.68163544,-0.6846322,-0.6836537,-0.6806569,-0.68163544,-0.6836537,-0.68264455,-0.6776601,-0.6746633,-0.6756724,-0.67365414,-0.66267604,-0.6457044,-0.6337477,-0.63176,-0.6397413,-0.64870113,-0.6497103,-0.6507194,-0.6497103,-0.6427381,-0.6277541,-0.6008134,-0.5738728,-0.5569011,-0.5498984,-0.5498984,-0.5528952,-0.5598979,-0.5748514,-0.59582895,-0.6227696,-0.6557039,-0.69062585,-0.7235601,-0.7435286,-0.7455163,-0.7345382,-0.7255478,-0.7265569,-0.7335291,-0.7335291,-0.7235601,-0.7145697,-0.7115729,-0.712582,-0.712582,-0.7065884,-0.70261306,-0.7086066,-0.7325505,-0.7714784,-0.8143816,-0.8503127,-0.8383255,-0.737535,-0.5029892,-0.14172137,0.27844274,0.6736542,0.9141629,0.9181688,0.6786386,0.25248063,-0.22456163,-0.6028011,-0.8143816,-0.87226886,-0.8533095,-0.8343501,-0.84330994,-0.86627525,-0.88025016,-0.8812593,-0.87826246,-0.87425655,-0.8672844,-0.85529715,-0.8453282,-0.8393346,-0.8353287,-0.8273474,-0.81239396,-0.7993976,-0.7944131,-0.7914163,-0.7854533,-0.77545375,-0.7654848,-0.76147884,-0.76147884,-0.7545067,-0.7415409,-0.7295537,-0.7285446,-0.7315414,-0.7305628,-0.7195847,-0.7075975,-0.7005948,-0.69961625,-0.69661945,-0.68564135,-0.6746633,-0.6676605,-0.6656729,-0.65967923,-0.6467135,-0.6307509,-0.6187637,-0.6107824,-0.6008134,-0.5828326,-0.56188554,-0.5439353,-0.5289513,-0.5129887,-0.49103254,-0.4710641,-0.45608002,-0.44611108,-0.4361421,-0.42216718,-0.41216767,-0.41017997,-0.41317677,-0.41418594,-0.41017997,-0.40718317,-0.41418594,-0.43213618,-0.45708913,-0.48503894,-0.5189823,-0.5628947,-0.6107824,-0.6546948,-0.687629,-0.7155788,-0.7445072,-0.77245694,-0.79343456,-0.8034035,-0.80939716,-0.81539077,-0.8223629,-0.823372,-0.8163693,-0.80740947,-0.8023944,-0.8034035,-0.7993976,-0.7884195,-0.77744144,-0.77346605,-0.77346605,-0.7694601,-0.75649434,-0.7435286,-0.7395227,-0.7405318,-0.7385441,-0.7305628,-0.7205633,-0.7175665,-0.7195847,-0.7175665,-0.7075975,-0.6986071,-0.69661945,-0.69961625,-0.6986071,-0.69062585,-0.68264455,-0.68163544,-0.687629,-0.69163495,-0.6926135,-0.69062585,-0.69163495,-0.69362265,-0.69062585,-0.68264455,-0.6786386,-0.6836537,-0.69163495,-0.69362265,-0.687629,-0.68163544,-0.6806569,-0.68564135,-0.68863815,-0.6866505,-0.68564135,-0.68863815,-0.69463176,-0.6956103,-0.6896167,-0.68564135,-0.68564135,-0.6896167,-0.6896167,-0.6836537,-0.6806569,-0.68564135,-0.6956103,-0.7016039,-0.69463176,-0.68564135,-0.6806569,-0.6806569,-0.68264455,-0.6776601,-0.67065734,-0.66866964,-0.6756724,-0.6806569,-0.6806569,-0.6776601,-0.67665094,-0.6786386,-0.6786386,-0.67166644,-0.6636852,-0.6566825,-0.6527071,-0.6477226,-0.6377231,-0.6297418,-0.6307509,-0.6387322,-0.6457044,-0.6427381,-0.63176,-0.6197728,-0.60879475,-0.591823,-0.5688577,-0.5469016,-0.5319481,-0.5329572,-0.5439353,-0.555892,-0.5748514,-0.60381025,-0.6427381,-0.68264455,-0.712582,-0.7315414,-0.7435286,-0.75050074,-0.75050074,-0.7415409,-0.7345382,-0.7355473,-0.7395227,-0.7405318,-0.7315414,-0.7195847,-0.7115729,-0.7105943,-0.7115729,-0.7095852,-0.7155788,-0.7445072,-0.79643136,-0.8493036,-0.8672844,-0.8064003,-0.6327386,-0.32636124,0.07585287,0.5089828,0.85428786,0.9770347,0.8373163,0.47305167,-0.0030120611,-0.4361421,-0.7255478,-0.8563063,-0.873278,-0.84630674,-0.8353287,-0.8533095,-0.8842561,-0.904194,-0.90520316,-0.8962127,-0.8872223,-0.879241,-0.87125975,-0.8563063,-0.8413223,-0.8313533,-0.8253597,-0.8193661,-0.808388,-0.79841906,-0.7924254,-0.7914163,-0.78643185,-0.7714784,-0.75848204,-0.75050074,-0.7495222,-0.7485131,-0.7405318,-0.7335291,-0.7335291,-0.7355473,-0.7325505,-0.7205633,-0.7046007,-0.6956103,-0.69362265,-0.68863815,-0.6756724,-0.66267604,-0.6546948,-0.6507194,-0.6437167,-0.6287632,-0.6117915,-0.5998043,-0.5908139,-0.5768696,-0.5519166,-0.5279422,-0.5119796,-0.5029892,-0.49201107,-0.47406083,-0.45510143,-0.44311428,-0.44011742,-0.4361421,-0.42415488,-0.41118914,-0.40320778,-0.40418637,-0.40819228,-0.41118914,-0.42017955,-0.44011742,-0.47005492,-0.50399834,-0.5359235,-0.5698669,-0.6107824,-0.6566825,-0.6986071,-0.7285446,-0.75349754,-0.77545375,-0.7974099,-0.8103757,-0.8113848,-0.808388,-0.8103757,-0.8173784,-0.8193661,-0.81239396,-0.80141586,-0.7944131,-0.79343456,-0.79043776,-0.77945966,-0.7654848,-0.7575035,-0.75548524,-0.7515099,-0.7435286,-0.7355473,-0.7315414,-0.7335291,-0.7305628,-0.7175665,-0.7046007,-0.6986071,-0.7035916,-0.7065884,-0.7016039,-0.69463176,-0.6926135,-0.6976286,-0.70261306,-0.6986071,-0.6896167,-0.6846322,-0.687629,-0.69163495,-0.69062585,-0.6866505,-0.6846322,-0.687629,-0.68863815,-0.68564135,-0.6806569,-0.68163544,-0.6866505,-0.68863815,-0.68264455,-0.6746633,-0.6726756,-0.67964774,-0.6866505,-0.6866505,-0.6846322,-0.6866505,-0.69362265,-0.7005948,-0.69961625,-0.69463176,-0.69163495,-0.69362265,-0.69463176,-0.6896167,-0.6846322,-0.68264455,-0.6866505,-0.6896167,-0.6866505,-0.68264455,-0.68163544,-0.68564135,-0.687629,-0.68564135,-0.68163544,-0.6836537,-0.68863815,-0.6896167,-0.6836537,-0.6776601,-0.6756724,-0.67964774,-0.68163544,-0.6786386,-0.6746633,-0.6746633,-0.6756724,-0.6726756,-0.6656729,-0.66267604,-0.666682,-0.6756724,-0.6806569,-0.6776601,-0.67166644,-0.6726756,-0.6786386,-0.67964774,-0.67166644,-0.6606884,-0.6537162,-0.6507194,-0.6457044,-0.6367445,-0.6287632,-0.6327386,-0.6477226,-0.6566825,-0.651698,-0.6377231,-0.6227696,-0.6157669,-0.6047888,-0.58185405,-0.5578796,-0.5399294,-0.5379417,-0.545923,-0.5539043,-0.5658915,-0.58882624,-0.6287632,-0.67365414,-0.7115729,-0.7355473,-0.7485131,-0.75548524,-0.752519,-0.7435286,-0.7335291,-0.7305628,-0.7335291,-0.7345382,-0.727566,-0.7205633,-0.71658796,-0.7195847,-0.722551,-0.7215724,-0.7295537,-0.7605003,-0.8143816,-0.8642876,-0.8702812,-0.7924254,-0.59882575,-0.2824489,0.11178386,0.52194846,0.8243505,0.8972218,0.712582,0.31437397,-0.16967112,-0.58384174,-0.8353287,-0.9221748,-0.9022063,-0.8503127,-0.8253597,-0.8393346,-0.87125975,-0.89422506,-0.8982004,-0.89223737,-0.88324696,-0.8762442,-0.8672844,-0.8503127,-0.8353287,-0.8283565,-0.8303442,-0.8293656,-0.8163693,-0.8004067,-0.7884195,-0.787441,-0.7884195,-0.78144735,-0.7714784,-0.7634971,-0.76147884,-0.75848204,-0.7495222,-0.7385441,-0.7305628,-0.7305628,-0.7285446,-0.7195847,-0.7086066,-0.69961625,-0.69661945,-0.69463176,-0.68564135,-0.6746633,-0.6676605,-0.6656729,-0.6606884,-0.6467135,-0.6287632,-0.6147883,-0.6057979,-0.59481984,-0.5758605,-0.5549134,-0.5349449,-0.5239668,-0.5119796,-0.49601704,-0.47904533,-0.46507043,-0.46207362,-0.4580983,-0.45109558,-0.44311428,-0.43913895,-0.44311428,-0.4471202,-0.450117,-0.45510143,-0.47005492,-0.49800473,-0.52996045,-0.5578796,-0.5878477,-0.6257664,-0.6696788,-0.7105943,-0.7395227,-0.762488,-0.787441,-0.81539077,-0.8363378,-0.8423314,-0.8403437,-0.8393346,-0.84330994,-0.8453282,-0.8393346,-0.8293656,-0.823372,-0.8213538,-0.8173784,-0.8113848,-0.8034035,-0.8034035,-0.80740947,-0.8053912,-0.7924254,-0.7744752,-0.762488,-0.762488,-0.762488,-0.75649434,-0.7445072,-0.7345382,-0.7295537,-0.7265569,-0.7215724,-0.7145697,-0.7145697,-0.7205633,-0.7265569,-0.7235601,-0.71658796,-0.7115729,-0.71359116,-0.7145697,-0.7105943,-0.7075975,-0.7065884,-0.7115729,-0.7155788,-0.712582,-0.7086066,-0.7086066,-0.7145697,-0.7155788,-0.7075975,-0.69961625,-0.7005948,-0.7105943,-0.7215724,-0.7205633,-0.71359116,-0.7075975,-0.7086066,-0.7105943,-0.7075975,-0.7005948,-0.7005948,-0.7105943,-0.7215724,-0.7255478,-0.7235601,-0.7185756,-0.71658796,-0.7145697,-0.7065884,-0.6976286,-0.69961625,-0.7086066,-0.7175665,-0.71658796,-0.7086066,-0.7016039,-0.7005948,-0.7005948,-0.69961625,-0.69661945,-0.6976286,-0.7035916,-0.7065884,-0.70261306,-0.6956103,-0.69362265,-0.69961625,-0.70261306,-0.69961625,-0.6896167,-0.67964774,-0.6756724,-0.67065734,-0.6656729,-0.6616975,-0.66267604,-0.67166644,-0.6756724,-0.6696788,-0.6546948,-0.6407199,-0.63176,-0.6217605,-0.6028011,-0.58485085,-0.570876,-0.57185453,-0.5798358,-0.58582944,-0.59481984,-0.61778516,-0.6576916,-0.7046007,-0.7415409,-0.76147884,-0.76747245,-0.76447564,-0.75848204,-0.7465254,-0.7365259,-0.7335291,-0.737535,-0.7395227,-0.7345382,-0.727566,-0.7265569,-0.7345382,-0.7435286,-0.7445072,-0.75050074,-0.7744752,-0.8193661,-0.86028165,-0.8493036,-0.7495222,-0.5389202,-0.23453057,0.11875594,0.46207345,0.68163526,0.687629,0.45708907,0.041909337,-0.41617358,-0.7694601,-0.9431219,-0.9581059,-0.8902191,-0.8223629,-0.7974099,-0.8113848,-0.8403437,-0.86028165,-0.8612908,-0.85529715,-0.8493036,-0.8473159,-0.84330994,-0.8283565,-0.808388,-0.79343456,-0.7884195,-0.78643185,-0.77945966,-0.7694601,-0.76147884,-0.7605003,-0.75848204,-0.752519,-0.7415409,-0.7345382,-0.7355473,-0.7345382,-0.727566,-0.71658796,-0.7075975,-0.7046007,-0.70261306,-0.69661945,-0.687629,-0.68163544,-0.6806569,-0.6746633,-0.65967923,-0.6427381,-0.6307509,-0.6287632,-0.6277541,-0.6197728,-0.60381025,-0.58882624,-0.57885724,-0.56687003,-0.5489198,-0.5229577,-0.49901384,-0.48305124,-0.4710641,-0.4580983,-0.4441234,-0.43213618,-0.42715168,-0.42115808,-0.41317677,-0.40718317,-0.40718317,-0.41718274,-0.42715168,-0.43213618,-0.43812978,-0.45109558,-0.48005444,-0.5149764,-0.5489198,-0.5828326,-0.6207819,-0.666682,-0.7086066,-0.7405318,-0.762488,-0.78043824,-0.8023944,-0.8213538,-0.8293656,-0.8283565,-0.8263688,-0.8253597,-0.823372,-0.81539077,-0.80441266,-0.79643136,-0.79643136,-0.79643136,-0.79043776,-0.77945966,-0.77046925,-0.76747245,-0.7654848,-0.75848204,-0.74750394,-0.7395227,-0.7365259,-0.7315414,-0.7215724,-0.7095852,-0.7016039,-0.70261306,-0.70560986,-0.7035916,-0.6956103,-0.6896167,-0.6896167,-0.687629,-0.6806569,-0.67065734,-0.6656729,-0.6696788,-0.6756724,-0.6756724,-0.6696788,-0.666682,-0.67065734,-0.6746633,-0.6746633,-0.67166644,-0.67065734,-0.6756724,-0.6806569,-0.67964774,-0.6746633,-0.6756724,-0.6836537,-0.69062585,-0.69163495,-0.6836537,-0.6776601,-0.67964774,-0.68163544,-0.6806569,-0.6756724,-0.67665094,-0.6836537,-0.69062585,-0.69062585,-0.68264455,-0.6756724,-0.6786386,-0.68163544,-0.6806569,-0.6746633,-0.6696788,-0.6726756,-0.67665094,-0.6756724,-0.6646943,-0.651698,-0.6437167,-0.6407199,-0.6367445,-0.6367445,-0.6437167,-0.6546948,-0.6587007,-0.64870113,-0.626745,-0.6077856,-0.5938107,-0.58084494,-0.56387323,-0.545923,-0.5389202,-0.5479107,-0.5628947,-0.5778481,-0.5928322,-0.616776,-0.6537162,-0.69463176,-0.7235601,-0.7355473,-0.737535,-0.7365259,-0.7335291,-0.7265569,-0.7185756,-0.7145697,-0.7185756,-0.7215724,-0.7195847,-0.7095852,-0.7046007,-0.7035916,-0.7035916,-0.7065884,-0.722551,-0.76147884,-0.8173784,-0.85230035,-0.8103757,-0.6576916,-0.37626714,-0.007996678,0.39421737,0.7435286,0.915172,0.8423314,0.52595437,0.06086874,-0.39320832,-0.7065884,-0.8493036,-0.86927205,-0.8393346,-0.8203752,-0.8263688,-0.848325,-0.8702812,-0.879241,-0.87125975,-0.8533095,-0.8383255,-0.8303442,-0.8263688,-0.8193661,-0.808388,-0.79841906,-0.7944131,-0.7894286,-0.78043824,-0.76747245,-0.75649434,-0.75349754,-0.75050074,-0.7425195,-0.7315414,-0.7245692,-0.7245692,-0.7245692,-0.7185756,-0.7075975,-0.7005948,-0.7005948,-0.7016039,-0.69463176,-0.67964774,-0.6676605,-0.66267604,-0.65967923,-0.6527071,-0.6397413,-0.626745,-0.6187637,-0.6107824,-0.59781665,-0.57885724,-0.5628947,-0.5519166,-0.5419171,-0.5259545,-0.50500745,-0.48503894,-0.47005492,-0.45608002,-0.43913895,-0.42115808,-0.40819228,-0.40620464,-0.40519553,-0.40021104,-0.39021146,-0.38424844,-0.3872453,-0.39721423,-0.41118914,-0.42715168,-0.4531138,-0.48901427,-0.5289513,-0.5658915,-0.59882575,-0.6347263,-0.67365414,-0.7105943,-0.7395227,-0.7575035,-0.77346605,-0.79343456,-0.808388,-0.81239396,-0.8064003,-0.79841906,-0.79643136,-0.79542226,-0.79343456,-0.7854533,-0.77945966,-0.77945966,-0.77845055,-0.7694601,-0.7545067,-0.7425195,-0.7395227,-0.7395227,-0.737535,-0.7285446,-0.7195847,-0.71658796,-0.7155788,-0.7105943,-0.69961625,-0.69163495,-0.6926135,-0.6926135,-0.6896167,-0.67964774,-0.67065734,-0.6696788,-0.6746633,-0.6786386,-0.6786386,-0.6806569,-0.6866505,-0.68863815,-0.6836537,-0.67065734,-0.66267604,-0.66267604,-0.666682,-0.6696788,-0.666682,-0.666682,-0.67166644,-0.6746633,-0.6726756,-0.6646943,-0.6606884,-0.6656729,-0.6746633,-0.6776601,-0.6746633,-0.67166644,-0.67365414,-0.67665094,-0.67665094,-0.67166644,-0.67065734,-0.67665094,-0.68264455,-0.6836537,-0.6776601,-0.6726756,-0.67365414,-0.67665094,-0.6756724,-0.6696788,-0.666682,-0.6676605,-0.6696788,-0.666682,-0.6566825,-0.651698,-0.6546948,-0.6606884,-0.6616975,-0.6557039,-0.651698,-0.6497103,-0.6467135,-0.6377231,-0.6237482,-0.6147883,-0.61778516,-0.626745,-0.6307509,-0.6277541,-0.6207819,-0.6127701,-0.60381025,-0.58582944,-0.55888873,-0.5369326,-0.5269636,-0.5289513,-0.5389202,-0.5469016,-0.56188554,-0.58983535,-0.626745,-0.666682,-0.7016039,-0.7285446,-0.7465254,-0.752519,-0.7435286,-0.7295537,-0.722551,-0.7265569,-0.7325505,-0.7335291,-0.7255478,-0.7175665,-0.7175665,-0.7175665,-0.71359116,-0.7035916,-0.7065884,-0.7395227,-0.79542226,-0.8513218,-0.8672844,-0.80441266,-0.6277541,-0.31837988,0.087809324,0.5239668,0.8722688,1.0,0.8642875,0.49901378,0.01695633,-0.42614257,-0.7245692,-0.8563063,-0.87125975,-0.8443191,-0.8363378,-0.858294,-0.88624376,-0.9011972,-0.89722186,-0.88624376,-0.87725335,-0.8702812,-0.8612908,-0.8473159,-0.8363378,-0.8303442,-0.8243506,-0.81239396,-0.7974099,-0.7854533,-0.78144735,-0.78245646,-0.77744144,-0.76646334,-0.75848204,-0.7575035,-0.75848204,-0.7545067,-0.7415409,-0.7305628,-0.727566,-0.7265569,-0.7205633,-0.7086066,-0.69661945,-0.69062585,-0.6866505,-0.6776601,-0.66267604,-0.64870113,-0.6427381,-0.6397413,-0.63176,-0.61778516,-0.60381025,-0.5938107,-0.58683854,-0.5728637,-0.5519166,-0.52996045,-0.5119796,-0.49500787,-0.47305173,-0.44809872,-0.43014848,-0.42314577,-0.41917044,-0.41118914,-0.39620507,-0.38522696,-0.38223016,-0.38522696,-0.38923293,-0.39021146,-0.39920193,-0.42314577,-0.45708913,-0.49103254,-0.52197915,-0.5549134,-0.59582895,-0.6397413,-0.67964774,-0.7115729,-0.7385441,-0.76646334,-0.79043776,-0.8034035,-0.8053912,-0.8053912,-0.80939716,-0.8143816,-0.8113848,-0.8004067,-0.79043776,-0.78643185,-0.78643185,-0.78245646,-0.77245694,-0.7634971,-0.75949115,-0.75649434,-0.7495222,-0.7365259,-0.7255478,-0.722551,-0.7215724,-0.7185756,-0.7095852,-0.7005948,-0.69661945,-0.69362265,-0.687629,-0.6776601,-0.6746633,-0.68163544,-0.6896167,-0.69163495,-0.6866505,-0.6806569,-0.6836537,-0.69163495,-0.69463176,-0.6896167,-0.6846322,-0.6836537,-0.68564135,-0.6836537,-0.67665094,-0.6746633,-0.68163544,-0.69062585,-0.6926135,-0.6836537,-0.67365414,-0.67166644,-0.6776601,-0.6836537,-0.68163544,-0.6786386,-0.6786386,-0.67964774,-0.6776601,-0.6726756,-0.67065734,-0.6746633,-0.6806569,-0.6836537,-0.6786386,-0.6746633,-0.67665094,-0.6806569,-0.68163544,-0.6786386,-0.6776601,-0.6806569,-0.6836537,-0.68264455,-0.6746633,-0.67065734,-0.67365414,-0.6806569,-0.6836537,-0.67964774,-0.67665094,-0.67964774,-0.6836537,-0.6806569,-0.66866964,-0.6587007,-0.65967923,-0.66866964,-0.67665094,-0.6746633,-0.67065734,-0.6676605,-0.6676605,-0.6636852,-0.651698,-0.6387322,-0.6347263,-0.63176,-0.6277541,-0.6237482,-0.6247573,-0.6327386,-0.6437167,-0.6447258,-0.6297418,-0.60980386,-0.58683854,-0.56687003,-0.5469016,-0.5269636,-0.52097,-0.5329572,-0.555892,-0.5798358,-0.6028011,-0.63176,-0.67065734,-0.7105943,-0.7355473,-0.7425195,-0.7385441,-0.7355473,-0.7355473,-0.7335291,-0.7255478,-0.7195847,-0.7215724,-0.727566,-0.7295537,-0.7235601,-0.71658796,-0.71658796,-0.7245692,-0.7425195,-0.77346605,-0.8193661,-0.8642876,-0.8612908,-0.75848204,-0.5169641,-0.15569621,0.25847435,0.65368557,0.9041939,0.9191779,0.67766,0.23651814,-0.25948352,-0.6467135,-0.8513218,-0.9022063,-0.87725335,-0.8503127,-0.8513218,-0.8672844,-0.88624376,-0.8992095,-0.90520316,-0.9022063,-0.88924056,-0.87526566,-0.86327845,-0.8533095,-0.8413223,-0.8243506,-0.8103757,-0.80441266,-0.8023944,-0.80141586,-0.7944131,-0.787441,-0.7854533,-0.78245646,-0.77646285,-0.7634971,-0.75349754,-0.75050074,-0.7515099,-0.7485131,-0.7385441,-0.7305628,-0.727566,-0.7255478,-0.7185756,-0.7035916,-0.69062585,-0.687629,-0.6896167,-0.6866505,-0.6746633,-0.6616975,-0.651698,-0.6437167,-0.6337477,-0.6157669,-0.59882575,-0.58582944,-0.5768696,-0.5598979,-0.5369326,-0.5119796,-0.49302024,-0.48305124,-0.47506994,-0.46308273,-0.4521047,-0.4441234,-0.43913895,-0.4341238,-0.42516404,-0.42115808,-0.42614257,-0.43812978,-0.4521047,-0.4660796,-0.48901427,-0.5229577,-0.5628947,-0.601792,-0.6347263,-0.6696788,-0.7105943,-0.7545067,-0.7894286,-0.8103757,-0.8243506,-0.8383255,-0.8513218,-0.85728484,-0.8513218,-0.8423314,-0.8363378,-0.8343501,-0.8273474,-0.8173784,-0.80740947,-0.80441266,-0.80740947,-0.80740947,-0.79841906,-0.78643185,-0.77945966,-0.77545375,-0.7694601,-0.75848204,-0.7495222,-0.7465254,-0.7465254,-0.7445072,-0.737535,-0.7315414,-0.7285446,-0.7285446,-0.7245692,-0.7155788,-0.7115729,-0.71359116,-0.7185756,-0.71658796,-0.7075975,-0.7016039,-0.7035916,-0.7115729,-0.7155788,-0.7105943,-0.7035916,-0.70261306,-0.7075975,-0.7105943,-0.7075975,-0.7065884,-0.7086066,-0.7155788,-0.7185756,-0.71359116,-0.7095852,-0.71359116,-0.7215724,-0.7245692,-0.7185756,-0.7105943,-0.7075975,-0.71359116,-0.7175665,-0.71658796,-0.7145697,-0.71658796,-0.7205633,-0.722551,-0.7185756,-0.7155788,-0.7185756,-0.7235601,-0.7245692,-0.7175665,-0.7095852,-0.7095852,-0.71359116,-0.7155788,-0.7105943,-0.7035916,-0.70261306,-0.7046007,-0.7016039,-0.69362265,-0.6896167,-0.6926135,-0.70261306,-0.7086066,-0.7035916,-0.69362265,-0.6846322,-0.68163544,-0.67964774,-0.67065734,-0.6636852,-0.6656729,-0.67065734,-0.6726756,-0.6656729,-0.6546948,-0.6457044,-0.6387322,-0.6247573,-0.6047888,-0.58485085,-0.5738728,-0.5748514,-0.5798358,-0.58582944,-0.6008134,-0.6327386,-0.67665094,-0.7185756,-0.7445072,-0.7575035,-0.7634971,-0.7684816,-0.7684816,-0.76147884,-0.7545067,-0.7545067,-0.75848204,-0.75949115,-0.752519,-0.7415409,-0.7345382,-0.7365259,-0.737535,-0.7365259,-0.7495222,-0.78444415,-0.8353287,-0.86927205,-0.8343501,-0.6986071,-0.44611108,-0.110774815,0.25648677,0.5788572,0.7375349,0.6646637,0.36027408,-0.09083682,-0.5339358,-0.8393346,-0.96406895,-0.95110315,-0.88025016,-0.8223629,-0.8103757,-0.8323319,-0.8612908,-0.87526566,-0.86826295,-0.8513218,-0.8403437,-0.8373469,-0.8353287,-0.8253597,-0.8143816,-0.8064003,-0.8034035,-0.7993976,-0.7894286,-0.77945966,-0.77545375,-0.77346605,-0.7694601,-0.7575035,-0.7445072,-0.7395227,-0.7395227,-0.737535,-0.727566,-0.7185756,-0.7145697,-0.7175665,-0.7185756,-0.7086066,-0.69463176,-0.68264455,-0.67665094,-0.67166644,-0.6636852,-0.6546948,-0.6507194,-0.6467135,-0.6387322,-0.6247573,-0.60879475,-0.59781665,-0.5878477,-0.57185453,-0.5469016,-0.52197915,-0.50399834,-0.49103254,-0.47705764,-0.4580983,-0.44311428,-0.4361421,-0.43712062,-0.43513292,-0.42516404,-0.41617358,-0.41418594,-0.42017955,-0.42614257,-0.42913932,-0.4361421,-0.45608002,-0.49103254,-0.530939,-0.5688577,-0.6077856,-0.64870113,-0.6926135,-0.7305628,-0.7575035,-0.77945966,-0.8023944,-0.823372,-0.8373469,-0.8373469,-0.8323319,-0.8313533,-0.8343501,-0.8343501,-0.8243506,-0.81239396,-0.80740947,-0.80939716,-0.808388,-0.8004067,-0.787441,-0.78043824,-0.78043824,-0.77945966,-0.7694601,-0.75548524,-0.7455163,-0.7415409,-0.737535,-0.7285446,-0.7205633,-0.7175665,-0.7185756,-0.7155788,-0.70560986,-0.69362265,-0.6896167,-0.69362265,-0.6956103,-0.69163495,-0.6836537,-0.67964774,-0.67964774,-0.67964774,-0.67665094,-0.6746633,-0.6776601,-0.68564135,-0.68863815,-0.6846322,-0.6806569,-0.68163544,-0.687629,-0.6896167,-0.6846322,-0.6776601,-0.67665094,-0.6836537,-0.68863815,-0.6866505,-0.68163544,-0.68163544,-0.6896167,-0.69463176,-0.6926135,-0.687629,-0.68564135,-0.68863815,-0.69062585,-0.687629,-0.68264455,-0.68163544,-0.68564135,-0.68564135,-0.68163544,-0.6776601,-0.67964774,-0.68863815,-0.69362265,-0.6866505,-0.6756724,-0.666682,-0.66267604,-0.6587007,-0.6537162,-0.6477226,-0.6497103,-0.65967923,-0.6656729,-0.6606884,-0.64870113,-0.6337477,-0.6227696,-0.60980386,-0.58882624,-0.5658915,-0.5469016,-0.5419171,-0.5479107,-0.5578796,-0.5748514,-0.6008134,-0.6357354,-0.6726756,-0.7046007,-0.7265569,-0.7395227,-0.7465254,-0.7445072,-0.7325505,-0.722551,-0.7205633,-0.7245692,-0.7265569,-0.7215724,-0.7145697,-0.71359116,-0.71658796,-0.71658796,-0.7095852,-0.7035916,-0.7205633,-0.76646334,-0.8213538,-0.85230035,-0.8133725,-0.6726756,-0.40620464,-0.040930808,0.36727667,0.7215723,0.8912281,0.8143815,0.50497687,0.051878333,-0.39721423,-0.7205633,-0.87526566,-0.89523417,-0.8533095,-0.8203752,-0.8243506,-0.8503127,-0.87226886,-0.87425655,-0.86526614,-0.858294,-0.85529715,-0.8513218,-0.8393346,-0.8253597,-0.8173784,-0.81539077,-0.8113848,-0.79841906,-0.78245646,-0.77046925,-0.7684816,-0.76646334,-0.75848204,-0.7495222,-0.7425195,-0.7405318,-0.7385441,-0.7305628,-0.722551,-0.7185756,-0.7185756,-0.7155788,-0.70560986,-0.69362265,-0.68564135,-0.6846322,-0.6806569,-0.6696788,-0.6566825,-0.6477226,-0.6457044,-0.641729,-0.6297418,-0.6147883,-0.59882575,-0.58582944,-0.5698669,-0.5479107,-0.5259545,-0.5089828,-0.49702615,-0.48305124,-0.4610951,-0.43913895,-0.42415488,-0.41917044,-0.41816133,-0.41118914,-0.40118957,-0.39721423,-0.39822334,-0.40021104,-0.40118957,-0.40920144,-0.43014848,-0.4640919,-0.50002295,-0.5319481,-0.5628947,-0.601792,-0.6497103,-0.69463176,-0.7265569,-0.7485131,-0.7714784,-0.7944131,-0.81239396,-0.8173784,-0.8143816,-0.81239396,-0.8163693,-0.81838757,-0.81239396,-0.8023944,-0.79643136,-0.79841906,-0.8004067,-0.79343456,-0.78144735,-0.7714784,-0.7684816,-0.76747245,-0.7634971,-0.75649434,-0.75050074,-0.7495222,-0.7445072,-0.7345382,-0.722551,-0.7155788,-0.71658796,-0.7175665,-0.7115729,-0.7016039,-0.69463176,-0.6976286,-0.7005948,-0.6986071,-0.69163495,-0.6866505,-0.6866505,-0.687629,-0.687629,-0.68564135,-0.6866505,-0.6896167,-0.687629,-0.6806569,-0.6756724,-0.6786386,-0.687629,-0.6926135,-0.687629,-0.67964774,-0.6746633,-0.67964774,-0.6866505,-0.68564135,-0.68163544,-0.6786386,-0.68264455,-0.6846322,-0.68264455,-0.67964774,-0.68264455,-0.69163495,-0.6986071,-0.6976286,-0.69062585,-0.687629,-0.69163495,-0.69463176,-0.6896167,-0.6806569,-0.6756724,-0.6756724,-0.67665094,-0.6756724,-0.67166644,-0.67365414,-0.67964774,-0.6836537,-0.68163544,-0.6756724,-0.67365414,-0.6776601,-0.6776601,-0.67365414,-0.67065734,-0.67166644,-0.6756724,-0.6746633,-0.6616975,-0.6437167,-0.6327386,-0.6327386,-0.6327386,-0.63176,-0.6307509,-0.6347263,-0.6427381,-0.641729,-0.6277541,-0.6047888,-0.5798358,-0.56387323,-0.5498984,-0.5349449,-0.5259545,-0.52996045,-0.5469016,-0.5698669,-0.5938107,-0.6247573,-0.6656729,-0.7095852,-0.737535,-0.7455163,-0.737535,-0.7285446,-0.7255478,-0.7255478,-0.7215724,-0.7175665,-0.71658796,-0.722551,-0.722551,-0.7145697,-0.70261306,-0.6986071,-0.70560986,-0.7235601,-0.75349754,-0.79643136,-0.84330994,-0.858294,-0.79043776,-0.5938107,-0.26348948,0.14670575,0.56286407,0.8752656,0.9720502,0.8153602,0.43213606,-0.05989033,-0.49302024,-0.76147884,-0.86327845,-0.8622999,-0.8403437,-0.8383255,-0.85529715,-0.87425655,-0.89122826,-0.9011972,-0.90021867,-0.88624376,-0.8642876,-0.8473159,-0.8403437,-0.8353287,-0.8273474,-0.81838757,-0.8113848,-0.80740947,-0.8004067,-0.787441,-0.77346605,-0.76747245,-0.77046925,-0.7744752,-0.7694601,-0.7575035,-0.7455163,-0.7395227,-0.7335291,-0.7245692,-0.7145697,-0.7086066,-0.7086066,-0.7086066,-0.70261306,-0.69163495,-0.6806569,-0.67665094,-0.67065734,-0.6587007,-0.641729,-0.6277541,-0.6217605,-0.6157669,-0.601792,-0.58084494,-0.5628947,-0.5509075,-0.5399294,-0.5229577,-0.50002295,-0.47803622,-0.46308273,-0.450117,-0.4361421,-0.42216718,-0.41317677,-0.41118914,-0.40920144,-0.40320778,-0.39522654,-0.39620507,-0.41017997,-0.42715168,-0.44311428,-0.46207362,-0.49002337,-0.5329572,-0.57885724,-0.6187637,-0.6527071,-0.6866505,-0.7245692,-0.75949115,-0.78245646,-0.79643136,-0.80740947,-0.8213538,-0.8303442,-0.8293656,-0.8203752,-0.8133725,-0.8133725,-0.8143816,-0.808388,-0.7974099,-0.79043776,-0.7894286,-0.787441,-0.77945966,-0.7684816,-0.75949115,-0.75649434,-0.75349754,-0.7425195,-0.7295537,-0.7235601,-0.7255478,-0.7265569,-0.7215724,-0.7115729,-0.7065884,-0.7105943,-0.7145697,-0.7105943,-0.7035916,-0.69961625,-0.7035916,-0.70560986,-0.69961625,-0.687629,-0.6806569,-0.6836537,-0.6896167,-0.6896167,-0.68564135,-0.68163544,-0.68564135,-0.69062585,-0.69163495,-0.68564135,-0.68163544,-0.6846322,-0.6896167,-0.6926135,-0.6926135,-0.6926135,-0.69661945,-0.6976286,-0.6926135,-0.6846322,-0.68163544,-0.687629,-0.69362265,-0.69362265,-0.687629,-0.68564135,-0.6926135,-0.69961625,-0.6986071,-0.6896167,-0.68163544,-0.68264455,-0.6866505,-0.687629,-0.6836537,-0.6806569,-0.68264455,-0.6836537,-0.6806569,-0.6746633,-0.67166644,-0.6746633,-0.6776601,-0.6776601,-0.6746633,-0.6746633,-0.67964774,-0.68163544,-0.6776601,-0.66866964,-0.6646943,-0.66866964,-0.67365414,-0.67365414,-0.66866964,-0.6656729,-0.6696788,-0.67365414,-0.67365414,-0.67065734,-0.6676605,-0.6696788,-0.67065734,-0.6656729,-0.6566825,-0.6507194,-0.6497103,-0.6447258,-0.6357354,-0.6237482,-0.61778516,-0.6227696,-0.6297418,-0.6297418,-0.6227696,-0.6157669,-0.6117915,-0.6057979,-0.58882624,-0.5648824,-0.5439353,-0.5349449,-0.5369326,-0.5439353,-0.5549134,-0.5748514,-0.60879475,-0.651698,-0.69362265,-0.7205633,-0.737535,-0.7465254,-0.7455163,-0.737535,-0.727566,-0.722551,-0.7265569,-0.7325505,-0.7325505,-0.727566,-0.7215724,-0.722551,-0.722551,-0.7205633,-0.7205633,-0.7405318,-0.7884195,-0.84630674,-0.88324696,-0.84630674,-0.70261306,-0.43014848,-0.054905713,0.36525846,0.7405318,0.9281378,0.858294,0.5429262,0.074843645,-0.39122063,-0.7235601,-0.8842561,-0.9091785,