-0.4997602,-0.4938507,-0.49187052,-0.49679,-0.49778008,-0.48890024,-0.47903037,-0.47510093,-0.4800204,-0.48890024,-0.4948098,-0.49679,-0.4957999,-0.48989034,-0.48101056,-0.47114062,-0.46622115,-0.47213072,-0.47804028,-0.4800204,-0.47804028,-0.4741109,-0.47609103,-0.4741109,-0.4691605,-0.46028066,-0.45929056,-0.46622115,-0.47213072,-0.47114062,-0.46325088,-0.45635128,-0.45929056,-0.46523106,-0.46325088,-0.4543711,-0.44747144,-0.44846153,-0.453381,-0.4523909,-0.44252104,-0.42971182,-0.42278123,-0.4198419,-0.4129423,-0.4050216,-0.39911205,-0.4050216,-0.4109621,-0.40109223,-0.37544286,-0.3418728,-0.3172136,-0.30734372,-0.30833375,-0.31919372,-0.3448431,-0.38924217,-0.44153094,-0.4820006,-0.5007503,-0.5007503,-0.4957999,-0.48989034,-0.48398077,-0.47903037,-0.47609103,-0.4820006,-0.48692006,-0.48890024,-0.48692006,-0.48692006,-0.4948098,-0.50368965,-0.50566983,-0.4948098,-0.47804028,-0.4691605,-0.47015053,-0.47213072,-0.4376015,-0.32807356,-0.088318646,0.27182424,0.6388669,0.86086214,0.80758333,0.4681703,-0.017280102,-0.46523106,-0.7552946,-0.8766727,-0.8914621,-0.85495275,-0.79774445,-0.7197754,-0.6289971,-0.55105895,-0.4997602,-0.4800204,-0.47804028,-0.48101056,-0.4820006,-0.47114062,-0.44549125,-0.42773163,-0.41786176,-0.4257515,-0.43661147,-0.43661147,-0.42278123,-0.40700173,-0.4060117,-0.4119522,-0.4129423,-0.4050216,-0.3912223,-0.38234246,-0.3793723,-0.37544286,-0.36950237,-0.3645829,-0.3645829,-0.3645829,-0.35963243,-0.35273284,-0.343853,-0.34979355,-0.35471296,-0.35075265,-0.3428629,-0.33104378,-0.32609338,-0.32411325,-0.3172136,-0.3034143,-0.28958404,-0.28565466,-0.28466457,-0.28169435,-0.27578473,-0.26789504,-0.26492482,-0.26195455,-0.2550549,-0.24518496,-0.23729521,-0.23138571,-0.2323758,-0.23039562,-0.23138571,-0.24125558,-0.2550549,-0.26393467,-0.26591486,-0.26690495,-0.27578473,-0.29552454,-0.31919372,-0.33794343,-0.35372293,-0.37445277,-0.40208232,-0.42872173,-0.44846153,-0.46424103,-0.4731208,-0.48989034,-0.5027305,-0.51062024,-0.5155397,-0.52243936,-0.53428936,-0.5441593,-0.5461395,-0.5441593,-0.5461395,-0.5530391,-0.5579586,-0.55696845,-0.5461395,-0.53824973,-0.5411891,-0.55105895,-0.5560094,-0.55501926,-0.5461395,-0.5411891,-0.5392089,-0.53626955,-0.53725964,-0.53824973,-0.5411891,-0.5421791,-0.5352795,-0.5244195,-0.5145496,-0.51062024,-0.5096302,-0.50174046,-0.4948098,-0.49088043,-0.49679,-0.5027305,-0.5007503,-0.49286056,-0.48299068,-0.47903037,-0.47510093,-0.46622115,-0.4553612,-0.45041078,-0.4573413,-0.4741109,-0.48299068,-0.48593003,-0.48593003,-0.49187052,-0.49778008,-0.49877018,-0.4957999,-0.49286056,-0.4938507,-0.4938507,-0.49187052,-0.4820006,-0.4820006,-0.48989034,-0.49877018,-0.5007503,-0.4938507,-0.48299068,-0.48398077,-0.49286056,-0.49679,-0.4948098,-0.49088043,-0.48890024,-0.49088043,-0.49088043,-0.48593003,-0.48101056,-0.4820006,-0.48692006,-0.48593003,-0.4800204,-0.4741109,-0.4731208,-0.47804028,-0.4820006,-0.48299068,-0.48398077,-0.48890024,-0.48791015,-0.47903037,-0.4681704,-0.4553612,-0.4573413,-0.46424103,-0.47015053,-0.4731208,-0.47510093,-0.48101056,-0.48497087,-0.4820006,-0.4741109,-0.46622115,-0.4681704,-0.4741109,-0.4731208,-0.46523106,-0.4573413,-0.45929056,-0.46226078,-0.46226078,-0.45830047,-0.453381,-0.44942063,-0.44054085,-0.42278123,-0.40406245,-0.39614183,-0.40010214,-0.4050216,-0.40010214,-0.38630283,-0.37346268,-0.36557293,-0.35570306,-0.33596325,-0.31229407,-0.29846388,-0.3053944,-0.32708347,-0.36062253,-0.3951826,-0.4307019,-0.46325088,-0.4820006,-0.48101056,-0.47114062,-0.46424103,-0.4681704,-0.4741109,-0.47213072,-0.4681704,-0.4671803,-0.47609103,-0.49088043,-0.49679,-0.4938507,-0.48989034,-0.49088043,-0.49187052,-0.48101056,-0.4691605,-0.4671803,-0.47609103,-0.46424103,-0.36950237,-0.1435777,0.19880557,0.5559783,0.79279387,0.7957642,0.5401989,0.12383771,-0.3152334,-0.64675677,-0.8184434,-0.8658127,-0.83719313,-0.7789948,-0.704986,-0.61816806,-0.5411891,-0.4997602,-0.4957999,-0.5125694,-0.5214492,-0.5125694,-0.4997602,-0.49286056,-0.49088043,-0.48299068,-0.47213072,-0.46523106,-0.46523106,-0.46622115,-0.46127075,-0.45041078,-0.44054085,-0.44054085,-0.44450122,-0.44153094,-0.42872173,-0.4247614,-0.42773163,-0.4346313,-0.4336412,-0.42377132,-0.409972,-0.40109223,-0.39812195,-0.3951826,-0.39320248,-0.39320248,-0.39911205,-0.40010214,-0.3902322,-0.37346268,-0.3635928,-0.3635928,-0.3645829,-0.35867333,-0.34583318,-0.33497316,-0.33203387,-0.33299303,-0.32609338,-0.3152334,-0.3053944,-0.3034143,-0.3014341,-0.29354435,-0.28367448,-0.2797141,-0.28763485,-0.29846388,-0.3034143,-0.3034143,-0.30833375,-0.3211739,-0.33794343,-0.3488034,-0.35471296,-0.3645829,-0.38630283,-0.409972,-0.4267416,-0.43859166,-0.4523909,-0.47015053,-0.48989034,-0.50566983,-0.5145496,-0.5234294,-0.53725964,-0.5490788,-0.55204904,-0.5560094,-0.5668384,-0.584598,-0.59941834,-0.6023576,-0.59347785,-0.5855881,-0.584598,-0.584598,-0.57967854,-0.57079875,-0.56881857,-0.5747591,-0.5836389,-0.5836389,-0.5757182,-0.5648892,-0.5609288,-0.5579586,-0.55105895,-0.5461395,-0.5451494,-0.55105895,-0.5560094,-0.5471295,-0.5352795,-0.52936995,-0.5332993,-0.5411891,-0.53824973,-0.52936995,-0.5214492,-0.5204901,-0.5244195,-0.5244195,-0.52243936,-0.52243936,-0.52837986,-0.53230923,-0.52639973,-0.5195,-0.5165298,-0.5214492,-0.52738976,-0.5254096,-0.51751983,-0.5116103,-0.5145496,-0.5204901,-0.5195,-0.5155397,-0.5165298,-0.5244195,-0.53230923,-0.53131914,-0.5254096,-0.5214492,-0.5244195,-0.52936995,-0.5254096,-0.51751983,-0.5155397,-0.5214492,-0.5303291,-0.53131914,-0.52243936,-0.5116103,-0.5116103,-0.5135596,-0.5135596,-0.5135596,-0.5135596,-0.5165298,-0.5165298,-0.50864005,-0.49778008,-0.4938507,-0.4997602,-0.50764996,-0.50764996,-0.5027305,-0.50174046,-0.50174046,-0.50368965,-0.5007503,-0.4957999,-0.5007503,-0.5145496,-0.5234294,-0.5214492,-0.5125694,-0.50764996,-0.5125694,-0.5165298,-0.5125694,-0.5027305,-0.4938507,-0.49286056,-0.49679,-0.49286056,-0.48299068,-0.47804028,-0.4800204,-0.47804028,-0.4671803,-0.45041078,-0.4376015,-0.4346313,-0.4376015,-0.4376015,-0.4326511,-0.4267416,-0.42182213,-0.4109621,-0.38531274,-0.35867333,-0.34583318,-0.35372293,-0.37247258,-0.39713186,-0.4257515,-0.4553612,-0.49088043,-0.51751983,-0.5244195,-0.5214492,-0.5195,-0.5234294,-0.52639973,-0.5254096,-0.5234294,-0.52639973,-0.5352795,-0.5411891,-0.53725964,-0.5244195,-0.5165298,-0.5165298,-0.5204901,-0.51751983,-0.5096302,-0.50864005,-0.51851,-0.5165298,-0.44942063,-0.26789504,0.049828887,0.431661,0.749385,0.8638325,0.7030058,0.31523335,-0.15836704,-0.561919,-0.8095636,-0.90628237,-0.90232205,-0.85297257,-0.7760245,-0.6823069,-0.60040843,-0.5461395,-0.5303291,-0.5401989,-0.5490788,-0.54808867,-0.5411891,-0.53131914,-0.51751983,-0.50174046,-0.48791015,-0.48299068,-0.48398077,-0.48890024,-0.48497087,-0.4820006,-0.4800204,-0.4820006,-0.48101056,-0.4681704,-0.4553612,-0.44747144,-0.44942063,-0.45635128,-0.45929056,-0.4543711,-0.45140088,-0.44747144,-0.44054085,-0.42872173,-0.41588157,-0.409972,-0.4119522,-0.41687167,-0.409972,-0.39713186,-0.38825208,-0.38531274,-0.3833326,-0.37346268,-0.35570306,-0.3428629,-0.33992362,-0.33992362,-0.33398312,-0.322164,-0.31328416,-0.31130403,-0.30833375,-0.3024242,-0.29354435,-0.29156423,-0.2994539,-0.30833375,-0.31229407,-0.3162235,-0.32708347,-0.34682328,-0.36161262,-0.37049246,-0.37346268,-0.38531274,-0.4060117,-0.42872173,-0.44252104,-0.4523909,-0.46523106,-0.48593003,-0.50665987,-0.5214492,-0.52936995,-0.5451494,-0.562909,-0.57769835,-0.5836389,-0.58264875,-0.58657813,-0.59347785,-0.6023576,-0.6033478,-0.59842825,-0.59842825,-0.6053279,-0.6082982,-0.6033478,-0.59644806,-0.5925187,-0.5944679,-0.59842825,-0.5925187,-0.57769835,-0.57079875,-0.57079875,-0.57277894,-0.57178885,-0.5678285,-0.56584835,-0.56881857,-0.57178885,-0.56584835,-0.5560094,-0.55006886,-0.55204904,-0.5530391,-0.5461395,-0.5352795,-0.53131914,-0.5352795,-0.5411891,-0.53824973,-0.5303291,-0.5244195,-0.5244195,-0.52936995,-0.5303291,-0.52936995,-0.5303291,-0.53725964,-0.5421791,-0.5392089,-0.5332993,-0.5332993,-0.53824973,-0.5421791,-0.5401989,-0.53428936,-0.53428936,-0.5392089,-0.5451494,-0.5401989,-0.53131914,-0.52936995,-0.53626955,-0.5471295,-0.5490788,-0.5451494,-0.5401989,-0.5401989,-0.5411891,-0.53428936,-0.5254096,-0.5234294,-0.52936995,-0.53725964,-0.53725964,-0.5303291,-0.52738976,-0.5332993,-0.53725964,-0.5332993,-0.5244195,-0.5165298,-0.5165298,-0.5214492,-0.52243936,-0.51851,-0.5214492,-0.52738976,-0.5332993,-0.5352795,-0.53131914,-0.52837986,-0.52936995,-0.53230923,-0.53131914,-0.52837986,-0.52837986,-0.52738976,-0.52243936,-0.5116103,-0.5027305,-0.5027305,-0.51062024,-0.51751983,-0.51751983,-0.5135596,-0.50864005,-0.5096302,-0.51062024,-0.5007503,-0.49286056,-0.49187052,-0.49286056,-0.48791015,-0.47213072,-0.4523909,-0.44153094,-0.44549125,-0.453381,-0.4523909,-0.44351113,-0.4346313,-0.4257515,-0.40898198,-0.3833326,-0.36062253,-0.35174274,-0.36062253,-0.38036233,-0.409972,-0.44351113,-0.48593003,-0.52738976,-0.55006886,-0.54808867,-0.53626955,-0.52837986,-0.52738976,-0.53230923,-0.5332993,-0.5303291,-0.5332993,-0.53725964,-0.5441593,-0.5441593,-0.5441593,-0.54316926,-0.5441593,-0.5411891,-0.52837986,-0.5165298,-0.5204901,-0.5254096,-0.4957999,-0.36851227,-0.10013771,0.28367448,0.662567,0.88654244,0.84508264,0.52243924,0.04292929,-0.42971182,-0.7602451,-0.9171114,-0.9408116,-0.8954224,-0.8273232,-0.7424854,-0.650717,-0.5747591,-0.5332993,-0.5234294,-0.5303291,-0.53131914,-0.52738976,-0.5214492,-0.5214492,-0.5165298,-0.50368965,-0.48791015,-0.4800204,-0.48101056,-0.47903037,-0.47015053,-0.46325088,-0.46028066,-0.4671803,-0.4731208,-0.47114062,-0.46424103,-0.46028066,-0.46226078,-0.45830047,-0.44252104,-0.42872173,-0.4257515,-0.4326511,-0.43958175,-0.43562138,-0.4198419,-0.4060117,-0.40109223,-0.40010214,-0.39320248,-0.3843227,-0.3793723,-0.37544286,-0.37049246,-0.36062253,-0.34979355,-0.343853,-0.343853,-0.33794343,-0.32906365,-0.3162235,-0.31031388,-0.31031388,-0.30833375,-0.3014341,-0.29651463,-0.2994539,-0.30635363,-0.31130403,-0.30932385,-0.31031388,-0.31919372,-0.3418728,-0.3645829,-0.38036233,-0.39320248,-0.40307236,-0.41588157,-0.42773163,-0.4376015,-0.4573413,-0.48791015,-0.5234294,-0.55105895,-0.5609288,-0.5579586,-0.55696845,-0.5648892,-0.5757182,-0.584598,-0.59347785,-0.6013985,-0.6092882,-0.61321765,-0.606318,-0.59743816,-0.6013985,-0.6082982,-0.61222756,-0.606318,-0.5944679,-0.5875683,-0.5885584,-0.5875683,-0.57769835,-0.5698086,-0.56881857,-0.57769835,-0.5855881,-0.5806686,-0.57277894,-0.5698086,-0.57178885,-0.5757182,-0.5678285,-0.5560094,-0.55006886,-0.55105895,-0.5530391,-0.5490788,-0.54316926,-0.5411891,-0.5401989,-0.5392089,-0.53230923,-0.5234294,-0.5254096,-0.5332993,-0.5421791,-0.5441593,-0.5411891,-0.5411891,-0.54316926,-0.5461395,-0.5451494,-0.5421791,-0.54316926,-0.5490788,-0.5540292,-0.55204904,-0.55105895,-0.55204904,-0.5560094,-0.5560094,-0.5451494,-0.5332993,-0.52936995,-0.52936995,-0.53626955,-0.53626955,-0.53626955,-0.5401989,-0.5471295,-0.54808867,-0.53824973,-0.5303291,-0.5254096,-0.52837986,-0.53230923,-0.5303291,-0.52837986,-0.53230923,-0.5421791,-0.54808867,-0.5411891,-0.53230923,-0.52837986,-0.52936995,-0.53131914,-0.5244195,-0.5155397,-0.5125694,-0.51851,-0.52738976,-0.5303291,-0.52936995,-0.52837986,-0.52936995,-0.52738976,-0.5214492,-0.5155397,-0.5145496,-0.51751983,-0.51751983,-0.5116103,-0.50764996,-0.51062024,-0.5155397,-0.5125694,-0.49778008,-0.4800204,-0.47015053,-0.46523106,-0.45830047,-0.44153094,-0.42773163,-0.42773163,-0.44153094,-0.45041078,-0.44252104,-0.4267416,-0.409972,-0.3951826,-0.37643296,-0.35075265,-0.32906365,-0.32708347,-0.34682328,-0.3793723,-0.41489148,-0.4523909,-0.48791015,-0.51751983,-0.53230923,-0.52936995,-0.51751983,-0.50566983,-0.50368965,-0.50864005,-0.51062024,-0.5135596,-0.5195,-0.5195,-0.5165298,-0.5116103,-0.50665987,-0.5096302,-0.5165298,-0.5155397,-0.5046797,-0.4997602,-0.50665987,-0.50174046,-0.43166107,-0.22544521,0.12776709,0.5382186,0.85003316,0.91810143,0.6882163,0.24026537,-0.26294458,-0.66058695,-0.88357234,-0.95068145,-0.92500114,-0.8668028,-0.79378414,-0.70102566,-0.6053279,-0.5332993,-0.5027305,-0.50665987,-0.52243936,-0.52738976,-0.5165298,-0.50368965,-0.4938507,-0.4800204,-0.46028066,-0.44942063,-0.44846153,-0.453381,-0.45830047,-0.44942063,-0.43958175,-0.4376015,-0.44351113,-0.44747144,-0.43859166,-0.4257515,-0.41588157,-0.41687167,-0.42182213,-0.42083198,-0.41687167,-0.4119522,-0.409972,-0.4060117,-0.3951826,-0.3833326,-0.3783822,-0.37445277,-0.37346268,-0.3675531,-0.36161262,-0.35963243,-0.35768324,-0.35075265,-0.33794343,-0.32315403,-0.3162235,-0.3152334,-0.3053944,-0.28859395,-0.2738046,-0.2728145,-0.278755,-0.28367448,-0.278755,-0.26984423,-0.26789504,-0.27182442,-0.28466457,-0.29057413,-0.2974738,-0.30932385,-0.32510328,-0.33794343,-0.3488034,-0.36161262,-0.387262,-0.41390145,-0.43661147,-0.45041078,-0.45929056,-0.47510093,-0.50174046,-0.5254096,-0.5411891,-0.55006886,-0.5540292,-0.55204904,-0.5490788,-0.54316926,-0.5461395,-0.5678285,-0.5925187,-0.60730803,-0.6033478,-0.59152865,-0.58657813,-0.5855881,-0.5855881,-0.57967854,-0.5747591,-0.5816587,-0.5885584,-0.5875683,-0.5747591,-0.55696845,-0.54808867,-0.5441593,-0.5411891,-0.52936995,-0.5195,-0.52243936,-0.5303291,-0.53725964,-0.53131914,-0.5204901,-0.5155397,-0.5155397,-0.5165298,-0.5125694,-0.5046797,-0.49877018,-0.5007503,-0.5027305,-0.50566983,-0.50566983,-0.5096302,-0.51751983,-0.51751983,-0.5096302,-0.5007503,-0.50174046,-0.50665987,-0.5165298,-0.5195,-0.5165298,-0.5195,-0.5234294,-0.52243936,-0.5145496,-0.5046797,-0.50174046,-0.5046797,-0.51062024,-0.51062024,-0.50665987,-0.50174046,-0.4997602,-0.49088043,-0.48101056,-0.4741109,-0.47804028,-0.48593003,-0.49187052,-0.48497087,-0.4741109,-0.46622115,-0.46226078,-0.46226078,-0.45830047,-0.45635128,-0.4573413,-0.46028066,-0.45830047,-0.45041078,-0.44549125,-0.45140088,-0.46226078,-0.46523106,-0.45830047,-0.44846153,-0.44648135,-0.45041078,-0.45635128,-0.4543711,-0.45140088,-0.453381,-0.45830047,-0.4543711,-0.44153094,-0.4307019,-0.42872173,-0.4307019,-0.42773163,-0.4129423,-0.39713186,-0.39320248,-0.40109223,-0.4060117,-0.39911205,-0.3843227,-0.37346268,-0.3626027,-0.3478133,-0.32708347,-0.30734372,-0.30440438,-0.31919372,-0.34979355,-0.38531274,-0.42083198,-0.46127075,-0.49187052,-0.5046797,-0.4938507,-0.48101056,-0.4770502,-0.47903037,-0.48299068,-0.48101056,-0.4741109,-0.4741109,-0.47903037,-0.4800204,-0.47510093,-0.47114062,-0.47609103,-0.48593003,-0.48593003,-0.4691605,-0.4543711,-0.45041078,-0.44747144,-0.39911205,-0.23927546,0.061679125,0.43562126,0.74542475,0.84706295,0.67240596,0.27182424,-0.20276612,-0.59545803,-0.8233938,-0.8934423,-0.8648226,-0.8016739,-0.7286552,-0.6477468,-0.5648892,-0.49778008,-0.46622115,-0.46424103,-0.47114062,-0.4741109,-0.47015053,-0.46325088,-0.46127075,-0.45830047,-0.4523909,-0.44648135,-0.44747144,-0.44747144,-0.44252104,-0.4257515,-0.4129423,-0.4129423,-0.4198419,-0.4247614,-0.42182213,-0.4129423,-0.40898198,-0.4119522,-0.40898198,-0.39911205,-0.387262,-0.38531274,-0.39320248,-0.39911205,-0.39614183,-0.38630283,-0.3793723,-0.37643296,-0.37049246,-0.36062253,-0.35273284,-0.35273284,-0.35471296,-0.35273284,-0.33893353,-0.32708347,-0.32315403,-0.32510328,-0.322164,-0.31130403,-0.2974738,-0.29354435,-0.29552454,-0.2945345,-0.28763485,-0.27776498,-0.2747947,-0.278755,-0.28367448,-0.28664476,-0.29354435,-0.30932385,-0.32609338,-0.33794343,-0.34583318,-0.35471296,-0.37445277,-0.40406245,-0.42773163,-0.44153094,-0.45140088,-0.46325088,-0.48299068,-0.5007503,-0.5135596,-0.5244195,-0.5401989,-0.5540292,-0.562909,-0.5648892,-0.56584835,-0.573769,-0.58657813,-0.59347785,-0.58954847,-0.5806686,-0.5757182,-0.5747591,-0.5747591,-0.57079875,-0.56584835,-0.5668384,-0.5668384,-0.5648892,-0.55696845,-0.5490788,-0.55204904,-0.5589487,-0.561919,-0.5540292,-0.5421791,-0.53626955,-0.53626955,-0.53626955,-0.5332993,-0.52936995,-0.5303291,-0.53428936,-0.53626955,-0.52936995,-0.5234294,-0.5234294,-0.52738976,-0.52738976,-0.5234294,-0.5214492,-0.52837986,-0.53725964,-0.5392089,-0.5332993,-0.52738976,-0.53131914,-0.5411891,-0.5441593,-0.53824973,-0.53131914,-0.53230923,-0.5392089,-0.5451494,-0.5461395,-0.54316926,-0.5471295,-0.55006886,-0.5490788,-0.54316926,-0.5352795,-0.53626955,-0.53824973,-0.53725964,-0.53428936,-0.53428936,-0.5401989,-0.5451494,-0.5421791,-0.53131914,-0.52243936,-0.52639973,-0.53725964,-0.5441593,-0.5451494,-0.5411891,-0.5411891,-0.5421791,-0.5411891,-0.53725964,-0.53428936,-0.53824973,-0.5401989,-0.53824973,-0.53131914,-0.52936995,-0.53626955,-0.5451494,-0.5421791,-0.53131914,-0.5244195,-0.52738976,-0.53725964,-0.53824973,-0.5254096,-0.51062024,-0.50764996,-0.50764996,-0.50174046,-0.48497087,-0.46523106,-0.45140088,-0.4543711,-0.45830047,-0.45635128,-0.453381,-0.44846153,-0.44054085,-0.4198419,-0.39221245,-0.3675531,-0.36062253,-0.37049246,-0.3912223,-0.42083198,-0.4543711,-0.4957999,-0.52936995,-0.5441593,-0.5411891,-0.53131914,-0.52738976,-0.52837986,-0.52738976,-0.5244195,-0.5244195,-0.5352795,-0.5490788,-0.5540292,-0.5471295,-0.5352795,-0.52837986,-0.53131914,-0.53428936,-0.5303291,-0.52738976,-0.53131914,-0.53428936,-0.5007503,-0.38036233,-0.13370782,0.22250581,0.5836078,0.8046441,0.7750344,0.4829905,0.03896904,-0.40406245,-0.7187853,-0.8806021,-0.92206186,-0.8914621,-0.81943345,-0.7257159,-0.63295746,-0.56881857,-0.5461395,-0.5540292,-0.5668384,-0.5668384,-0.5560094,-0.5451494,-0.53725964,-0.52738976,-0.5195,-0.5145496,-0.5155397,-0.51851,-0.5135596,-0.5027305,-0.4948098,-0.4957999,-0.5007503,-0.5007503,-0.49187052,-0.4800204,-0.48101056,-0.48593003,-0.48989034,-0.48593003,-0.47804028,-0.47510093,-0.47213072,-0.4671803,-0.4573413,-0.44747144,-0.44549125,-0.44846153,-0.44351113,-0.4336412,-0.4257515,-0.42182213,-0.42278123,-0.41885185,-0.4050216,-0.3912223,-0.38630283,-0.387262,-0.3843227,-0.38135242,-0.37643296,-0.37544286,-0.37643296,-0.37247258,-0.3626027,-0.35867333,-0.3675531,-0.38234246,-0.38924217,-0.387262,-0.38135242,-0.38531274,-0.39911205,-0.41390145,-0.4307019,-0.44648135,-0.4691605,-0.49088043,-0.50566983,-0.51062024,-0.5155397,-0.52639973,-0.5441593,-0.5609288,-0.57277894,-0.5855881,-0.6013985,-0.6151978,-0.62209743,-0.6230875,-0.62209743,-0.6270479,-0.6309773,-0.6319673,-0.6299872,-0.6309773,-0.6408472,-0.6487369,-0.64480746,-0.6319673,-0.62209743,-0.61915815,-0.62110734,-0.62110734,-0.61321765,-0.6053279,-0.6033478,-0.606318,-0.60730803,-0.606318,-0.60730803,-0.6102783,-0.606318,-0.59347785,-0.57769835,-0.5698086,-0.5767083,-0.5855881,-0.5885584,-0.5816587,-0.573769,-0.5767083,-0.5816587,-0.58264875,-0.57178885,-0.561919,-0.5599388,-0.562909,-0.5648892,-0.5599388,-0.5540292,-0.55501926,-0.561919,-0.5668384,-0.5668384,-0.5668384,-0.57277894,-0.57967854,-0.5806686,-0.57277894,-0.56584835,-0.5678285,-0.5747591,-0.57769835,-0.57079875,-0.5609288,-0.5579586,-0.562909,-0.5648892,-0.5599388,-0.5579586,-0.5609288,-0.5668384,-0.5678285,-0.5599388,-0.55105895,-0.5490788,-0.55204904,-0.5540292,-0.5490788,-0.54316926,-0.5471295,-0.5540292,-0.55696845,-0.5560094,-0.55105895,-0.55006886,-0.55105895,-0.5490788,-0.5421791,-0.5392089,-0.5441593,-0.5471295,-0.5461395,-0.53824973,-0.53131914,-0.52936995,-0.53230923,-0.52936995,-0.5234294,-0.52243936,-0.5303291,-0.53725964,-0.53428936,-0.5254096,-0.5135596,-0.50864005,-0.50764996,-0.49778008,-0.48101056,-0.4681704,-0.46226078,-0.46226078,-0.46226078,-0.46028066,-0.45830047,-0.4553612,-0.44648135,-0.42083198,-0.3833326,-0.34979355,-0.33299303,-0.33398312,-0.34682328,-0.3645829,-0.3951826,-0.43859166,-0.4820006,-0.5135596,-0.52738976,-0.5254096,-0.5234294,-0.52243936,-0.5145496,-0.50764996,-0.50368965,-0.5096302,-0.5204901,-0.52738976,-0.5244195,-0.51751983,-0.51062024,-0.50665987,-0.5007503,-0.49187052,-0.48593003,-0.48890024,-0.4997602,-0.50566983,-0.4731208,-0.35273284,-0.10310799,0.2659148,0.6487367,0.88948166,0.8579229,0.5382186,0.05573857,-0.4198419,-0.74839497,-0.9102118,-0.9418016,-0.8954224,-0.8135239,-0.715846,-0.6260578,-0.5638991,-0.53428936,-0.5254096,-0.5244195,-0.52738976,-0.52738976,-0.51751983,-0.4997602,-0.47804028,-0.46325088,-0.46622115,-0.4741109,-0.47015053,-0.45830047,-0.44450122,-0.44351113,-0.45041078,-0.4543711,-0.44846153,-0.43859166,-0.4326511,-0.42971182,-0.42182213,-0.41489148,-0.409972,-0.4119522,-0.41687167,-0.41390145,-0.40208232,-0.39320248,-0.39419258,-0.39614183,-0.38924217,-0.377423,-0.3645829,-0.3635928,-0.36950237,-0.37049246,-0.36062253,-0.3478133,-0.3369534,-0.33104378,-0.32708347,-0.32315403,-0.322164,-0.32708347,-0.32807356,-0.3211739,-0.31130403,-0.3034143,-0.30635363,-0.31427425,-0.3172136,-0.3152334,-0.31919372,-0.33203387,-0.35075265,-0.3645829,-0.37445277,-0.38234246,-0.39713186,-0.41588157,-0.4307019,-0.44351113,-0.4553612,-0.47213072,-0.49088043,-0.50174046,-0.5096302,-0.5234294,-0.54316926,-0.5589487,-0.56584835,-0.562909,-0.562909,-0.573769,-0.5875683,-0.59347785,-0.58954847,-0.58264875,-0.5885584,-0.59743816,-0.59941834,-0.59545803,-0.58657813,-0.5836389,-0.58657813,-0.584598,-0.57967854,-0.5747591,-0.573769,-0.573769,-0.56881857,-0.5589487,-0.55105895,-0.55204904,-0.5609288,-0.5638991,-0.5609288,-0.55696845,-0.55501926,-0.55105895,-0.5421791,-0.53230923,-0.52837986,-0.5352795,-0.5421791,-0.5392089,-0.52936995,-0.52639973,-0.53428936,-0.5461395,-0.5461395,-0.53626955,-0.52837986,-0.5303291,-0.5411891,-0.5471295,-0.5441593,-0.5401989,-0.5411891,-0.54316926,-0.5411891,-0.53626955,-0.53230923,-0.53725964,-0.5461395,-0.55006886,-0.5490788,-0.55006886,-0.5560094,-0.5599388,-0.5490788,-0.53725964,-0.52936995,-0.53428936,-0.54808867,-0.5530391,-0.54808867,-0.53824973,-0.5352795,-0.53626955,-0.5332993,-0.52837986,-0.52738976,-0.5303291,-0.53428936,-0.53428936,-0.52936995,-0.52639973,-0.53131914,-0.5352795,-0.5303291,-0.5204901,-0.5145496,-0.51851,-0.5244195,-0.5254096,-0.5204901,-0.5204901,-0.52639973,-0.53230923,-0.52243936,-0.5027305,-0.48692006,-0.48299068,-0.4820006,-0.47510093,-0.4573413,-0.44252104,-0.44153094,-0.4553612,-0.46127075,-0.45929056,-0.44846153,-0.42971182,-0.40307236,-0.36950237,-0.3428629,-0.33497316,-0.35174274,-0.38630283,-0.42377132,-0.46127075,-0.49679,-0.5303291,-0.55204904,-0.55204904,-0.5411891,-0.53230923,-0.53230923,-0.5352795,-0.53131914,-0.53230923,-0.5332993,-0.5421791,-0.55105895,-0.54808867,-0.5392089,-0.53428936,-0.53725964,-0.5401989,-0.5352795,-0.5244195,-0.5204901,-0.52738976,-0.50864005,-0.40406245,-0.1642766,0.20966566,0.6092881,0.8786217,0.8875326,0.5954579,0.10802734,-0.40307236,-0.77305424,-0.9467211,-0.97336054,-0.9200817,-0.8500333,-0.77209514,-0.6783466,-0.5885584,-0.52936995,-0.5135596,-0.52243936,-0.52936995,-0.52243936,-0.51062024,-0.50368965,-0.49778008,-0.48692006,-0.4741109,-0.46523106,-0.46622115,-0.47114062,-0.46622115,-0.45140088,-0.44252104,-0.44252104,-0.44648135,-0.44153094,-0.43661147,-0.4346313,-0.44153094,-0.44846153,-0.44054085,-0.42278123,-0.40799183,-0.40307236,-0.4050216,-0.39911205,-0.38924217,-0.3833326,-0.3843227,-0.38531274,-0.37643296,-0.3626027,-0.3488034,-0.3409137,-0.3369534,-0.32708347,-0.31427425,-0.30833375,-0.31229407,-0.3162235,-0.30932385,-0.300444,-0.28958404,-0.28763485,-0.28859395,-0.28367448,-0.278755,-0.2797141,-0.28664476,-0.29651463,-0.29846388,-0.29846388,-0.3053944,-0.32411325,-0.3478133,-0.3675531,-0.3843227,-0.39812195,-0.41390145,-0.4257515,-0.43166107,-0.43859166,-0.45635128,-0.48398077,-0.51062024,-0.5244195,-0.53131914,-0.5392089,-0.55204904,-0.56584835,-0.5698086,-0.5678285,-0.57178885,-0.58264875,-0.59644806,-0.59941834,-0.59545803,-0.5905385,-0.58657813,-0.5816587,-0.5757182,-0.56584835,-0.562909,-0.5698086,-0.573769,-0.5668384,-0.55696845,-0.5490788,-0.55204904,-0.55501926,-0.5540292,-0.5490788,-0.5461395,-0.54808867,-0.5471295,-0.53725964,-0.5254096,-0.5195,-0.5244195,-0.5303291,-0.52243936,-0.5145496,-0.51062024,-0.5155397,-0.5204901,-0.51062024,-0.49286056,-0.48299068,-0.48593003,-0.49877018,-0.4997602,-0.4938507,-0.48593003,-0.48299068,-0.48299068,-0.4820006,-0.4770502,-0.4770502,-0.48593003,-0.4938507,-0.49187052,-0.48497087,-0.4800204,-0.4820006,-0.48791015,-0.49088043,-0.49088043,-0.48989034,-0.4957999,-0.49679,-0.49088043,-0.48497087,-0.48791015,-0.4948098,-0.4997602,-0.4957999,-0.48593003,-0.48101056,-0.48398077,-0.48989034,-0.48692006,-0.4770502,-0.46622115,-0.46226078,-0.46127075,-0.45140088,-0.4376015,-0.4247614,-0.41885185,-0.4198419,-0.42083198,-0.41390145,-0.4050216,-0.40010214,-0.3912223,-0.37148255,-0.34583318,-0.31919372,-0.30440438,-0.3014341,-0.30635363,-0.32609338,-0.36557293,-0.41489148,-0.46424103,-0.4938507,-0.49877018,-0.4957999,-0.4957999,-0.4957999,-0.4938507,-0.4957999,-0.5007503,-0.50864005,-0.51062024,-0.5027305,-0.49286056,-0.4938507,-0.5007503,-0.5027305,-0.49286056,-0.47609103,-0.46424103,-0.46325088,-0.4770502,-0.48497087,-0.4671803,-0.3783822,-0.16526663,0.19190598,0.60532784,0.91120183,0.9526304,0.674386,0.18698645,-0.322164,-0.693136,-0.87964296,-0.92500114,-0.8894819,-0.8184434,-0.73261553,-0.63985705,-0.5589487,-0.5046797,-0.4731208,-0.45929056,-0.45830047,-0.46325088,-0.4671803,-0.46226078,-0.45140088,-0.43958175,-0.4307019,-0.4257515,-0.41786176,-0.409972,-0.40700173,-0.40799183,-0.40799183,-0.40109223,-0.3912223,-0.38531274,-0.387262,-0.38924217,-0.3833326,-0.37445277,-0.36851227,-0.3626027,-0.36161262,-0.35471296,-0.34979355,-0.35075265,-0.35471296,-0.35471296,-0.34583318,-0.33299303,-0.32510328,-0.322164,-0.3211739,-0.30932385,-0.29156423,-0.278755,-0.2747947,-0.27578473,-0.27083433,-0.26096445,-0.25208467,-0.24815524,-0.24914533,-0.24419492,-0.23927546,-0.23336583,-0.2323758,-0.2323758,-0.23138571,-0.23630518,-0.25013536,-0.26888514,-0.28466457,-0.2945345,-0.3034143,-0.32018387,-0.3428629,-0.36656308,-0.38135242,-0.39320248,-0.409972,-0.4326511,-0.4543711,-0.4691605,-0.48101056,-0.4957999,-0.5145496,-0.52936995,-0.53131914,-0.52936995,-0.53824973,-0.5560094,-0.5757182,-0.584598,-0.58264875,-0.5786885,-0.5806686,-0.584598,-0.5816587,-0.57178885,-0.5668384,-0.56881857,-0.57277894,-0.56881857,-0.5589487,-0.5490788,-0.5441593,-0.54316926,-0.53626955,-0.52936995,-0.52936995,-0.53626955,-0.5441593,-0.5411891,-0.52936995,-0.5195,-0.5145496,-0.5116103,-0.50864005,-0.50566983,-0.50764996,-0.5116103,-0.5116103,-0.4997602,-0.48890024,-0.48692006,-0.49679,-0.50764996,-0.5096302,-0.50566983,-0.5027305,-0.50864005,-0.5125694,-0.50764996,-0.4997602,-0.49679,-0.49877018,-0.50174046,-0.50174046,-0.5007503,-0.50174046,-0.50665987,-0.5125694,-0.5046797,-0.4957999,-0.49778008,-0.50566983,-0.50864005,-0.5027305,-0.48989034,-0.4770502,-0.4681704,-0.46226078,-0.4523909,-0.44054085,-0.43661147,-0.43958175,-0.44450122,-0.44054085,-0.4346313,-0.4247614,-0.4109621,-0.38825208,-0.35768324,-0.33299303,-0.32510328,-0.3409137,-0.37643296,-0.4198419,-0.46424103,-0.50566983,-0.5401989,-0.55105895,-0.54316926,-0.52936995,-0.51851,-0.51751983,-0.52243936,-0.5234294,-0.52738976,-0.53626955,-0.5461395,-0.55105895,-0.5471295,-0.53824973,-0.53824973,-0.5451494,-0.55105895,-0.5461395,-0.53824973,-0.53626955,-0.54808867,-0.5461395,-0.4820006,-0.30440438,0.017279983,0.42575145,0.7858943,0.94177055,0.7957642,0.37640178,-0.15341657,-0.61321765,-0.8894819,-0.98914003,-0.9723705,-0.90628237,-0.8283133,-0.7306354,-0.6339475,-0.5678285,-0.5352795,-0.53428936,-0.5411891,-0.54316926,-0.5392089,-0.5303291,-0.5214492,-0.50764996,-0.49778008,-0.4948098,-0.49679,-0.4948098,-0.48101056,-0.4671803,-0.46127075,-0.46424103,-0.47015053,-0.4691605,-0.46325088,-0.46226078,-0.46325088,-0.45929056,-0.44549125,-0.42773163,-0.42083198,-0.4267416,-0.4307019,-0.42377132,-0.4119522,-0.40010214,-0.39614183,-0.39221245,-0.38531274,-0.377423,-0.37544286,-0.3793723,-0.37643296,-0.36161262,-0.3428629,-0.33005375,-0.32708347,-0.32708347,-0.32018387,-0.31130403,-0.3053944,-0.30635363,-0.30932385,-0.3024242,-0.29354435,-0.29156423,-0.2994539,-0.31031388,-0.31919372,-0.32906365,-0.3428629,-0.3635928,-0.3833326,-0.3951826,-0.39911205,-0.4119522,-0.42773163,-0.44942063,-0.4671803,-0.48101056,-0.5007503,-0.5214492,-0.5421791,-0.5579586,-0.57178885,-0.5885584,-0.60730803,-0.6201173,-0.6230875,-0.61816806,-0.61915815,-0.6240776,-0.6319673,-0.6309773,-0.6240776,-0.61915815,-0.61816806,-0.61222756,-0.6033478,-0.59347785,-0.5905385,-0.59347785,-0.5944679,-0.5816587,-0.5668384,-0.5599388,-0.5609288,-0.5638991,-0.5599388,-0.55105895,-0.5461395,-0.5461395,-0.5451494,-0.5401989,-0.53824973,-0.5421791,-0.5490788,-0.55105895,-0.5411891,-0.53131914,-0.52936995,-0.53626955,-0.54316926,-0.53725964,-0.5254096,-0.5204901,-0.5195,-0.52738976,-0.52936995,-0.52639973,-0.52837986,-0.5332993,-0.53626955,-0.53230923,-0.5234294,-0.51851,-0.5204901,-0.5244195,-0.5195,-0.5046797,-0.49088043,-0.48101056,-0.47609103,-0.4741109,-0.47114062,-0.4741109,-0.47609103,-0.4691605,-0.45041078,-0.41885185,-0.38825208,-0.3645829,-0.35174274,-0.3478133,-0.36161262,-0.40010214,-0.45140088,-0.50174046,-0.53626955,-0.55006886,-0.5540292,-0.5560094,-0.5560094,-0.55105895,-0.5451494,-0.5441593,-0.5461395,-0.5471295,-0.5441593,-0.53626955,-0.53725964,-0.5441593,-0.54808867,-0.54808867,-0.5451494,-0.5421791,-0.53824973,-0.53626955,-0.52738976,-0.5244195,-0.5234294,-0.48398077,-0.3418728,-0.044909596,0.36851215,0.7651645,0.9822401,0.91120183,0.5638989,0.066598535,-0.4129423,-0.75136524,-0.91810155,-0.9398215,-0.88456243,-0.803654,-0.7138658,-0.6270479,-0.5540292,-0.5096302,-0.5007503,-0.5116103,-0.5234294,-0.5214492,-0.5116103,-0.50174046,-0.4938507,-0.48398077,-0.4681704,-0.4573413,-0.45635128,-0.46226078,-0.4681704,-0.4573413,-0.44450122,-0.44450122,-0.45041078,-0.4553612,-0.44846153,-0.43166107,-0.41786176,-0.4109621,-0.40799183,-0.40010214,-0.3902322,-0.3843227,-0.38825208,-0.39419258,-0.38630283,-0.37346268,-0.36161262,-0.35372293,-0.34979355,-0.3448431,-0.33398312,-0.32906365,-0.32510328,-0.3172136,-0.30440438,-0.29156423,-0.28859395,-0.2974738,-0.30635363,-0.3024242,-0.28859395,-0.2747947,-0.26690495,-0.26393467,-0.26195455,-0.2590152,-0.26195455,-0.27182442,-0.28367448,-0.2945345,-0.300444,-0.31229407,-0.32906365,-0.3428629,-0.35768324,-0.37247258,-0.39320248,-0.4129423,-0.42971182,-0.44450122,-0.4573413,-0.47903037,-0.50368965,-0.52243936,-0.52738976,-0.52936995,-0.53626955,-0.5461395,-0.5540292,-0.5540292,-0.55204904,-0.5599388,-0.562909,-0.5638991,-0.55204904,-0.5461395,-0.5490788,-0.5589487,-0.561919,-0.54808867,-0.52936995,-0.5204901,-0.52243936,-0.52936995,-0.5254096,-0.5195,-0.5165298,-0.5165298,-0.51851,-0.5145496,-0.5096302,-0.50665987,-0.5027305,-0.4948098,-0.4820006,-0.4691605,-0.4691605,-0.47804028,-0.48398077,-0.48299068,-0.48101056,-0.48593003,-0.49088043,-0.48989034,-0.4820006,-0.4741109,-0.4741109,-0.48497087,-0.49088043,-0.48692006,-0.47510093,-0.47213072,-0.4770502,-0.48497087,-0.48692006,-0.48692006,-0.48692006,-0.48593003,-0.48101056,-0.4671803,-0.44942063,-0.44054085,-0.44252104,-0.44450122,-0.43859166,-0.4267416,-0.41489148,-0.4050216,-0.39911205,-0.39320248,-0.3912223,-0.39812195,-0.4060117,-0.40307236,-0.38135242,-0.3448431,-0.3162235,-0.3053944,-0.31031388,-0.33005375,-0.36161262,-0.40307236,-0.44450122,-0.47903037,-0.4938507,-0.49877018,-0.50368965,-0.50764996,-0.50566983,-0.49679,-0.48890024,-0.49088043,-0.5007503,-0.50665987,-0.50174046,-0.49187052,-0.48593003,-0.48692006,-0.48593003,-0.47903037,-0.4741109,-0.47114062,-0.47015053,-0.46325088,-0.453381,-0.44648135,-0.41687167,-0.31130403,-0.07448846,0.28760386,0.65860665,0.8786217,0.83620286,0.53230906,0.09125781,-0.34583318,-0.66256714,-0.8293034,-0.8668028,-0.8135239,-0.7237357,-0.6260578,-0.53824973,-0.4770502,-0.43661147,-0.42773163,-0.43661147,-0.4523909,-0.4553612,-0.44549125,-0.42971182,-0.4257515,-0.4267416,-0.4257515,-0.4119522,-0.39713186,-0.38825208,-0.3902322,-0.39614183,-0.3951826,-0.39221245,-0.3951826,-0.39911205,-0.39812195,-0.38531274,-0.37445277,-0.36851227,-0.36950237,-0.36851227,-0.36062253,-0.34979355,-0.3488034,-0.35372293,-0.35471296,-0.3488034,-0.3409137,-0.3369534,-0.33794343,-0.33596325,-0.32315403,-0.31031388,-0.30440438,-0.3024242,-0.29651463,-0.28367448,-0.26984423,-0.26294458,-0.26789504,-0.27182442,-0.27083433,-0.27182442,-0.27578473,-0.2807042,-0.278755,-0.26888514,-0.26393467,-0.2728145,-0.2945345,-0.31427425,-0.32018387,-0.322164,-0.33005375,-0.34682328,-0.36161262,-0.36950237,-0.377423,-0.3902322,-0.40898198,-0.42872173,-0.44153094,-0.4523909,-0.46523106,-0.47804028,-0.48890024,-0.4938507,-0.4997602,-0.51062024,-0.5155397,-0.5165298,-0.5116103,-0.51062024,-0.51851,-0.5303291,-0.5332993,-0.5303291,-0.52243936,-0.52639973,-0.5352795,-0.5401989,-0.5352795,-0.5244195,-0.51751983,-0.5195,-0.5204901,-0.5165298,-0.5125694,-0.5155397,-0.5204901,-0.5165298,-0.50764996,-0.49679,-0.4948098,-0.5007503,-0.5027305,-0.4938507,-0.4820006,-0.47804028,-0.48593003,-0.49286056,-0.49187052,-0.48890024,-0.48398077,-0.48692006,-0.4948098,-0.49877018,-0.5007503,-0.5027305,-0.5027305,-0.4997602,-0.4938507,-0.48890024,-0.4938507,-0.50368965,-0.50764996,-0.5027305,-0.49286056,-0.48989034,-0.4948098,-0.49877018,-0.49877018,-0.49187052,-0.4948098,-0.5027305,-0.50864005,-0.50665987,-0.49778008,-0.49187052,-0.4948098,-0.49877018,-0.4948098,-0.49088043,-0.48791015,-0.48989034,-0.49286056,-0.49088043,-0.48593003,-0.48593003,-0.48989034,-0.4948098,-0.49286056,-0.49187052,-0.4938507,-0.4957999,-0.49877018,-0.49286056,-0.48593003,-0.48890024,-0.49286056,-0.49088043,-0.48692006,-0.4800204,-0.47903037,-0.48101056,-0.4800204,-0.4731208,-0.46523106,-0.45929056,-0.453381,-0.44252104,-0.42278123,-0.4109621,-0.41390145,-0.42182213,-0.42377132,-0.4129423,-0.3912223,-0.37247258,-0.35570306,-0.33992362,-0.32411325,-0.3172136,-0.32411325,-0.35867333,-0.40208232,-0.44450122,-0.48299068,-0.51062024,-0.51851,-0.5125694,-0.49778008,-0.48593003,-0.48989034,-0.50368965,-0.5155397,-0.51751983,-0.5155397,-0.51751983,-0.5244195,-0.52837986,-0.5244195,-0.5214492,-0.5214492,-0.5214492,-0.5155397,-0.49679,-0.48890024,-0.48890024,-0.47510093,-0.38825208,-0.16922694,0.18005598,0.5579585,0.8184434,0.8352127,0.5786884,0.14159739,-0.32807356,-0.6852462,-0.8806021,-0.92698133,-0.88159215,-0.8016739,-0.70696616,-0.61717796,-0.5461395,-0.5096302,-0.51062024,-0.52738976,-0.5352795,-0.52243936,-0.50566983,-0.4948098,-0.48890024,-0.48299068,-0.4681704,-0.45830047,-0.46226078,-0.47213072,-0.47510093,-0.46424103,-0.45140088,-0.44450122,-0.44747144,-0.45140088,-0.44747144,-0.44252104,-0.44351113,-0.44450122,-0.44351113,-0.4336412,-0.42083198,-0.41687167,-0.41786176,-0.41588157,-0.409972,-0.40208232,-0.39713186,-0.3951826,-0.387262,-0.37247258,-0.36062253,-0.35963243,-0.36851227,-0.37346268,-0.36950237,-0.35963243,-0.35273284,-0.35372293,-0.35471296,-0.35174274,-0.3488034,-0.3488034,-0.35174274,-0.35273284,-0.35075265,-0.35273284,-0.3645829,-0.3783822,-0.387262,-0.387262,-0.38924217,-0.4050216,-0.4267416,-0.44549125,-0.4543711,-0.45635128,-0.46127075,-0.4671803,-0.47015053,-0.4731208,-0.4770502,-0.49088043,-0.50864005,-0.5165298,-0.5195,-0.52837986,-0.5451494,-0.5648892,-0.57277894,-0.5668384,-0.55696845,-0.55696845,-0.5638991,-0.56881857,-0.561919,-0.5530391,-0.5490788,-0.55105895,-0.55501926,-0.5530391,-0.5471295,-0.5421791,-0.53824973,-0.5303291,-0.5195,-0.51062024,-0.5096302,-0.51062024,-0.50764996,-0.50566983,-0.50368965,-0.5116103,-0.51751983,-0.5145496,-0.50566983,-0.4997602,-0.5046797,-0.51062024,-0.50864005,-0.49877018,-0.48890024,-0.49187052,-0.50174046,-0.50665987,-0.5027305,-0.4948098,-0.49286056,-0.4938507,-0.49088043,-0.48890024,-0.48791015,-0.49778008,-0.5096302,-0.5155397,-0.5116103,-0.50566983,-0.50665987,-0.5116103,-0.5125694,-0.5096302,-0.50566983,-0.50566983,-0.50864005,-0.50665987,-0.49778008,-0.49286056,-0.49286056,-0.49877018,-0.5027305,-0.49877018,-0.4957999,-0.5007503,-0.50864005,-0.5116103,-0.50665987,-0.5007503,-0.49877018,-0.49877018,-0.49679,-0.48989034,-0.48497087,-0.49187052,-0.4997602,-0.50174046,-0.49187052,-0.48101056,-0.48398077,-0.4948098,-0.50566983,-0.5096302,-0.5096302,-0.50764996,-0.50764996,-0.50368965,-0.4957999,-0.49286056,-0.49778008,-0.50174046,-0.4948098,-0.48101056,-0.4681704,-0.47015053,-0.4800204,-0.48593003,-0.48299068,-0.4770502,-0.4800204,-0.48692006,-0.49187052,-0.49088043,-0.48497087,-0.4820006,-0.47804028,-0.4691605,-0.45929056,-0.45830047,-0.4681704,-0.4800204,-0.48299068,-0.47015053,-0.4543711,-0.45041078,-0.4523909,-0.45140088,-0.44153094,-0.4267416,-0.41885185,-0.41786176,-0.41687167,-0.4119522,-0.4060117,-0.40307236,-0.39713186,-0.38135242,-0.35273284,-0.3211739,-0.3034143,-0.300444,-0.30833375,-0.33203387,-0.37247258,-0.42278123,-0.46622115,-0.49088043,-0.49286056,-0.48593003,-0.48593003,-0.48989034,-0.48791015,-0.48692006,-0.48497087,-0.49088043,-0.5007503,-0.5027305,-0.49778008,-0.49187052,-0.49088043,-0.49286056,-0.49187052,-0.48299068,-0.47015053,-0.46622115,-0.4731208,-0.47510093,-0.4336412,-0.29255426,-0.012329638,0.37640178,0.749385,0.9477111,0.85693276,0.48200047,-0.02516979,-0.48398077,-0.7829242,-0.91120183,-0.9190916,-0.8618833,-0.7770146,-0.6734271,-0.57967854,-0.51751983,-0.48989034,-0.48398077,-0.48497087,-0.48497087,-0.48593003,-0.48497087,-0.47609103,-0.46028066,-0.44549125,-0.44153094,-0.44648135,-0.44747144,-0.44351113,-0.4346313,-0.43166107,-0.42773163,-0.41786176,-0.409972,-0.40799183,-0.41885185,-0.4307019,-0.42971182,-0.41885185,-0.40700173,-0.4050216,-0.4050216,-0.39419258,-0.38036233,-0.37049246,-0.37049246,-0.37643296,-0.377423,-0.37247258,-0.3675531,-0.37148255,-0.37544286,-0.37049246,-0.35963243,-0.35174274,-0.35273284,-0.35372293,-0.35075265,-0.3418728,-0.33893353,-0.343853,-0.34979355,-0.34583318,-0.3369534,-0.33497316,-0.34583318,-0.36161262,-0.37049246,-0.37544286,-0.3793723,-0.3902322,-0.40700173,-0.41786176,-0.42377132,-0.42971182,-0.44648135,-0.4671803,-0.4800204,-0.48299068,-0.48101056,-0.48398077,-0.48890024,-0.49286056,-0.49679,-0.50174046,-0.5145496,-0.5303291,-0.53725964,-0.53824973,-0.5392089,-0.5441593,-0.5490788,-0.55006886,-0.5471295,-0.54808867,-0.55501926,-0.5579586,-0.5490788,-0.53131914,-0.51851,-0.5195,-0.52639973,-0.53131914,-0.52639973,-0.5204901,-0.5195,-0.51851,-0.5116103,-0.49778008,-0.48989034,-0.48989034,-0.4948098,-0.4938507,-0.48593003,-0.47903037,-0.48101056,-0.48791015,-0.49187052,-0.48989034,-0.48593003,-0.48398077,-0.48593003,-0.48101056,-0.47510093,-0.4731208,-0.4820006,-0.4957999,-0.5046797,-0.50764996,-0.50368965,-0.5007503,-0.4948098,-0.48398077,-0.47609103,-0.47510093,-0.48791015,-0.5007503,-0.5046797,-0.4997602,-0.4948098,-0.4957999,-0.5007503,-0.49778008,-0.49187052,-0.48791015,-0.49187052,-0.49778008,-0.4957999,-0.48791015,-0.48101056,-0.48593003,-0.4938507,-0.49187052,-0.48398077,-0.47510093,-0.47609103,-0.48497087,-0.48593003,-0.4800204,-0.47510093,-0.4770502,-0.48593003,-0.48791015,-0.48101056,-0.47015053,-0.4691605,-0.4731208,-0.47015053,-0.46424103,-0.45830047,-0.45635128,-0.45635128,-0.45140088,-0.44351113,-0.43958175,-0.44549125,-0.4543711,-0.4543711,-0.44747144,-0.44153094,-0.44351113,-0.44846153,-0.44648135,-0.43958175,-0.4376015,-0.44450122,-0.45041078,-0.44648135,-0.4336412,-0.42377132,-0.4257515,-0.4336412,-0.4376015,-0.43562138,-0.4307019,-0.43166107,-0.4307019,-0.42182213,-0.41390145,-0.4109621,-0.41687167,-0.42377132,-0.42278123,-0.4119522,-0.4050216,-0.4060117,-0.4050216,-0.3951826,-0.38036233,-0.36656308,-0.36557293,-0.36851227,-0.3635928,-0.35075265,-0.33992362,-0.33596325,-0.33104378,-0.31229407,-0.2826844,-0.2590152,-0.2550549,-0.26888514,-0.29255426,-0.32411325,-0.36161262,-0.4050216,-0.44252104,-0.46028066,-0.45929056,-0.4523909,-0.45140088,-0.4523909,-0.44942063,-0.44450122,-0.44351113,-0.45041078,-0.4573413,-0.4573413,-0.45041078,-0.44648135,-0.45041078,-0.45830047,-0.46028066,-0.44942063,-0.43859166,-0.4376015,-0.4376015,-0.4060117,-0.28859395,-0.039959252,0.3300537,0.7148558,0.96250033,0.9358611,0.6073079,0.10310793,-0.39614183,-0.7336056,-0.88357234,-0.8974026,-0.847063,-0.77998483,-0.694126,-0.59842825,-0.5135596,-0.46226078,-0.44450122,-0.44252104,-0.44252104,-0.43859166,-0.4336412,-0.42773163,-0.41786176,-0.4050216,-0.3951826,-0.39320248,-0.39221245,-0.38531274,-0.37643296,-0.37247258,-0.37544286,-0.3793723,-0.37544286,-0.36557293,-0.3626027,-0.3675531,-0.36851227,-0.36062253,-0.34583318,-0.33497316,-0.3369534,-0.34583318,-0.34682328,-0.33992362,-0.33104378,-0.32609338,-0.32411325,-0.31919372,-0.31229407,-0.31031388,-0.3152334,-0.3162235,-0.30734372,-0.29846388,-0.29255426,-0.29552454,-0.300444,-0.29651463,-0.28664476,-0.28169435,-0.28565466,-0.29156423,-0.28958404,-0.28367448,-0.2807042,-0.28664476,-0.300444,-0.31031388,-0.3162235,-0.3211739,-0.33104378,-0.3418728,-0.34979355,-0.36062253,-0.37643296,-0.40010214,-0.42182213,-0.43166107,-0.43562138,-0.4376015,-0.44648135,-0.45830047,-0.46523106,-0.47213072,-0.4820006,-0.49778008,-0.5145496,-0.52243936,-0.5244195,-0.53131914,-0.5411891,-0.55105895,-0.5540292,-0.55006886,-0.54316926,-0.5441593,-0.5461395,-0.54316926,-0.53626955,-0.53131914,-0.52936995,-0.52936995,-0.5204901,-0.5096302,-0.50665987,-0.5116103,-0.5135596,-0.51062024,-0.4997602,-0.48890024,-0.48890024,-0.49088043,-0.48593003,-0.47804028,-0.4741109,-0.47903037,-0.48398077,-0.4800204,-0.47114062,-0.46523106,-0.4681704,-0.47114062,-0.46523106,-0.4543711,-0.44747144,-0.4523909,-0.46424103,-0.4691605,-0.47015053,-0.4731208,-0.4820006,-0.48989034,-0.48593003,-0.47510093,-0.46523106,-0.46622115,-0.47510093,-0.4800204,-0.48101056,-0.48101056,-0.48497087,-0.48398077,-0.4770502,-0.4691605,-0.4671803,-0.47510093,-0.48398077,-0.48497087,-0.4770502,-0.4731208,-0.47510093,-0.47609103,-0.4691605,-0.46028066,-0.45635128,-0.46226078,-0.4681704,-0.4681704,-0.46127075,-0.4543711,-0.45635128,-0.46325088,-0.46325088,-0.45929056,-0.45830047,-0.46325088,-0.4681704,-0.46523106,-0.45830047,-0.4523909,-0.4553612,-0.46226078,-0.46028066,-0.4543711,-0.44846153,-0.45140088,-0.4553612,-0.4573413,-0.453381,-0.45140088,-0.453381,-0.4553612,-0.45140088,-0.44351113,-0.44252104,-0.44846153,-0.4553612,-0.4523909,-0.44450122,-0.43958175,-0.44549125,-0.45635128,-0.45929056,-0.4573413,-0.453381,-0.4553612,-0.4553612,-0.45041078,-0.44153094,-0.4326511,-0.4326511,-0.4307019,-0.41687167,-0.40010214,-0.387262,-0.387262,-0.38924217,-0.38630283,-0.37346268,-0.3645829,-0.36161262,-0.35570306,-0.3369534,-0.30932385,-0.28859395,-0.28466457,-0.29846388,-0.3211739,-0.35273284,-0.3912223,-0.4336412,-0.4681704,-0.4800204,-0.47609103,-0.47015053,-0.47114062,-0.4731208,-0.47114062,-0.4671803,-0.4691605,-0.4800204,-0.49187052,-0.4957999,-0.48989034,-0.48692006,-0.49187052,-0.49286056,-0.4820006,-0.46622115,-0.4543711,-0.46424103,-0.4671803,-0.409972,-0.23927546,0.075478435,0.47506988,0.81745327,0.9565909,0.7967541,0.3724724,-0.15146738,-0.59347785,-0.8460729,-0.92305195,-0.8934423,-0.8302935,-0.7622252,-0.67933667,-0.5905385,-0.5195,-0.4820006,-0.4741109,-0.47609103,-0.4770502,-0.47114062,-0.46622115,-0.46028066,-0.44648135,-0.4326511,-0.42278123,-0.42182213,-0.4267416,-0.4247614,-0.41687167,-0.4109621,-0.40898198,-0.409972,-0.40406245,-0.3951826,-0.3912223,-0.39221245,-0.39320248,-0.387262,-0.3783822,-0.37148255,-0.37148255,-0.37148255,-0.36161262,-0.3488034,-0.3428629,-0.3428629,-0.3409137,-0.32906365,-0.3162235,-0.3053944,-0.31031388,-0.3152334,-0.31229407,-0.3024242,-0.29255426,-0.28466457,-0.278755,-0.27182442,-0.26690495,-0.26888514,-0.278755,-0.28367448,-0.278755,-0.26888514,-0.26195455,-0.26789504,-0.2797141,-0.28958404,-0.29846388,-0.31130403,-0.32609338,-0.3409137,-0.3478133,-0.34979355,-0.35963243,-0.37544286,-0.39812195,-0.41390145,-0.42377132,-0.43661147,-0.4543711,-0.4691605,-0.47609103,-0.4800204,-0.48398077,-0.49679,-0.5096302,-0.5155397,-0.5195,-0.52837986,-0.54316926,-0.5560094,-0.55696845,-0.54808867,-0.54316926,-0.5461395,-0.5530391,-0.55204904,-0.54808867,-0.5392089,-0.53131914,-0.5254096,-0.5155397,-0.50764996,-0.50864005,-0.5116103,-0.5125694,-0.5046797,-0.4938507,-0.49088043,-0.4938507,-0.49778008,-0.49187052,-0.4800204,-0.4691605,-0.46622115,-0.4681704,-0.46325088,-0.4543711,-0.44747144,-0.44747144,-0.45140088,-0.4523909,-0.45140088,-0.4553612,-0.45830047,-0.46523106,-0.46226078,-0.45635128,-0.4543711,-0.4573413,-0.46226078,-0.45929056,-0.453381,-0.45041078,-0.4553612,-0.46424103,-0.46622115,-0.46424103,-0.46325088,-0.46523106,-0.47015053,-0.4671803,-0.46226078,-0.45929056,-0.46226078,-0.4671803,-0.46424103,-0.4573413,-0.453381,-0.45830047,-0.46424103,-0.46523106,-0.46127075,-0.46028066,-0.46226078,-0.46127075,-0.45140088,-0.44153094,-0.44153094,-0.4523909,-0.46523106,-0.4681704,-0.46028066,-0.4573413,-0.45929056,-0.46028066,-0.45929056,-0.4523909,-0.4523909,-0.46226078,-0.4731208,-0.4731208,-0.4681704,-0.46424103,-0.46226078,-0.46325088,-0.45635128,-0.45041078,-0.44942063,-0.4553612,-0.46127075,-0.45635128,-0.45041078,-0.45140088,-0.46127075,-0.47015053,-0.4681704,-0.4573413,-0.45041078,-0.4543711,-0.46226078,-0.46424103,-0.46127075,-0.45830047,-0.45929056,-0.4573413,-0.44846153,-0.4376015,-0.42872173,-0.4257515,-0.42278123,-0.40799183,-0.39419258,-0.38825208,-0.387262,-0.3912223,-0.38531274,-0.37247258,-0.35570306,-0.3369534,-0.3152334,-0.29255426,-0.28466457,-0.2994539,-0.3369534,-0.38135242,-0.41687167,-0.44450122,-0.46325088,-0.4741109,-0.47510093,-0.46622115,-0.45929056,-0.46028066,-0.4691605,-0.4770502,-0.47510093,-0.4691605,-0.47114062,-0.48101056,-0.48890024,-0.48890024,-0.48299068,-0.47510093,-0.4681704,-0.4671803,-0.46523106,-0.4681704,-0.4553612,-0.37445277,-0.16229641,0.20177591,0.6132175,0.9082315,0.93982136,0.6645161,0.19388616,-0.2994539,-0.66946673,-0.8658127,-0.9161213,-0.8737024,-0.79873455,-0.715846,-0.6280379,-0.55105895,-0.4938507,-0.46325088,-0.46523106,-0.48101056,-0.48593003,-0.4731208,-0.4543711,-0.44054085,-0.4376015,-0.43661147,-0.42773163,-0.41588157,-0.40898198,-0.4109621,-0.4129423,-0.4060117,-0.3951826,-0.38825208,-0.3912223,-0.39419258,-0.38825208,-0.37643296,-0.37148255,-0.37445277,-0.38135242,-0.38036233,-0.37148255,-0.36161262,-0.35768324,-0.35570306,-0.3478133,-0.33794343,-0.33398312,-0.33497316,-0.33299303,-0.32315403,-0.30833375,-0.29846388,-0.29651463,-0.29354435,-0.28859395,-0.2807042,-0.278755,-0.2807042,-0.2797141,-0.26984423,-0.2550549,-0.25013536,-0.2530747,-0.25703508,-0.25703508,-0.2580251,-0.26294458,-0.27776498,-0.28763485,-0.29255426,-0.2974738,-0.31328416,-0.3409137,-0.3645829,-0.37346268,-0.377423,-0.38924217,-0.40799183,-0.42773163,-0.43661147,-0.4376015,-0.44942063,-0.4681704,-0.49088043,-0.5046797,-0.5135596,-0.5254096,-0.53725964,-0.5471295,-0.5421791,-0.53824973,-0.5421791,-0.5540292,-0.56584835,-0.5668384,-0.561919,-0.5609288,-0.5648892,-0.56584835,-0.5609288,-0.5540292,-0.55204904,-0.5540292,-0.55006886,-0.53725964,-0.5254096,-0.51751983,-0.5165298,-0.51851,-0.51062024,-0.50174046,-0.49877018,-0.50368965,-0.5096302,-0.50665987,-0.4948098,-0.48593003,-0.4800204,-0.47903037,-0.47804028,-0.47804028,-0.47903037,-0.4820006,-0.48299068,-0.47804028,-0.4741109,-0.47609103,-0.4800204,-0.48692006,-0.48791015,-0.48791015,-0.49679,-0.50368965,-0.50566983,-0.4957999,-0.48692006,-0.48497087,-0.48791015,-0.49286056,-0.49088043,-0.48692006,-0.48791015,-0.49187052,-0.49286056,-0.48692006,-0.4820006,-0.48593003,-0.4948098,-0.50174046,-0.4957999,-0.48692006,-0.48299068,-0.48497087,-0.49088043,-0.49187052,-0.48791015,-0.48497087,-0.48299068,-0.4770502,-0.46622115,-0.45929056,-0.46523106,-0.4800204,-0.48989034,-0.48890024,-0.4800204,-0.47609103,-0.47510093,-0.47213072,-0.46127075,-0.44942063,-0.44846153,-0.45830047,-0.47114062,-0.47213072,-0.4691605,-0.46622115,-0.4731208,-0.48101056,-0.47903037,-0.4741109,-0.47213072,-0.4731208,-0.4741109,-0.46622115,-0.45830047,-0.45635128,-0.46226078,-0.4671803,-0.46325088,-0.4553612,-0.4523909,-0.4553612,-0.45929056,-0.45041078,-0.4307019,-0.4129423,-0.40208232,-0.40010214,-0.39911205,-0.40010214,-0.40208232,-0.40208232,-0.39614183,-0.37148255,-0.33992362,-0.31031388,-0.29552454,-0.2974738,-0.31229407,-0.3428629,-0.3912223,-0.43859166,-0.4770502,-0.4997602,-0.5027305,-0.5027305,-0.50368965,-0.49877018,-0.48890024,-0.48101056,-0.48299068,-0.49088043,-0.49778008,-0.49877018,-0.49679,-0.49778008,-0.5007503,-0.49778008,-0.48791015,-0.4770502,-0.4741109,-0.47903037,-0.48890024,-0.47213072,-0.39221245,-0.19586647,0.14159739,0.5470985,0.8717222,0.9615104,0.7405052,0.28859377,-0.21854556,-0.61420774,-0.84016335,-0.91810155,-0.90430224,-0.8480531,-0.7632153,-0.6645473,-0.57769835,-0.5234294,-0.4997602,-0.49286056,-0.49187052,-0.49187052,-0.48791015,-0.4770502,-0.45929056,-0.44054085,-0.42971182,-0.42773163,-0.42872173,-0.42377132,-0.4198419,-0.4198419,-0.4247614,-0.42773163,-0.4198419,-0.4050216,-0.3951826,-0.3951826,-0.39713186,-0.39713186,-0.39320248,-0.38924217,-0.3833326,-0.37544286,-0.3626027,-0.35174274,-0.34979355,-0.35174274,-0.3488034,-0.33398312,-0.3172136,-0.30833375,-0.31229407,-0.32018387,-0.3172136,-0.30734372,-0.29354435,-0.2826844,-0.27182442,-0.26096445,-0.25703508,-0.26393467,-0.27083433,-0.2728145,-0.26294458,-0.25013536,-0.24716514,-0.25013536,-0.25703508,-0.25703508,-0.2600053,-0.27578473,-0.2945345,-0.30734372,-0.31229407,-0.3172136,-0.33299303,-0.35768324,-0.3783822,-0.38825208,-0.39419258,-0.40406245,-0.42278123,-0.44153094,-0.45041078,-0.46028066,-0.47510093,-0.49187052,-0.5046797,-0.50665987,-0.50864005,-0.51751983,-0.5332993,-0.54316926,-0.54316926,-0.53824973,-0.5411891,-0.5490788,-0.55204904,-0.55006886,-0.5441593,-0.5421791,-0.5441593,-0.5421791,-0.5303291,-0.5195,-0.51751983,-0.52243936,-0.5234294,-0.5155397,-0.50368965,-0.49679,-0.4948098,-0.49187052,-0.48497087,-0.4820006,-0.48791015,-0.4948098,-0.4957999,-0.48692006,-0.47609103,-0.4741109,-0.47609103,-0.47510093,-0.46622115,-0.45929056,-0.46424103,-0.47510093,-0.4820006,-0.47609103,-0.46523106,-0.45929056,-0.46424103,-0.47114062,-0.47114062,-0.46622115,-0.46325088,-0.46325088,-0.46622115,-0.46622115,-0.46424103,-0.4681704,-0.47510093,-0.47804028,-0.47510093,-0.47213072,-0.4741109,-0.4770502,-0.47804028,-0.47114062,-0.46424103,-0.4681704,-0.47510093,-0.4820006,-0.48101056,-0.47609103,-0.47804028,-0.48101056,-0.47903037,-0.4681704,-0.4573413,-0.4543711,-0.46325088,-0.4741109,-0.47903037,-0.4800204,-0.48101056,-0.4800204,-0.4770502,-0.4691605,-0.46226078,-0.46523106,-0.47213072,-0.47609103,-0.4681704,-0.45830047,-0.4553612,-0.4573413,-0.46127075,-0.45929056,-0.4543711,-0.4543711,-0.4573413,-0.4573413,-0.45041078,-0.44351113,-0.44747144,-0.4553612,-0.45929056,-0.453381,-0.44450122,-0.44054085,-0.44153094,-0.43958175,-0.4257515,-0.40700173,-0.39320248,-0.3843227,-0.3793723,-0.37247258,-0.3675531,-0.37346268,-0.38135242,-0.38135242,-0.36557293,-0.33893353,-0.31031388,-0.29057413,-0.27776498,-0.2738046,-0.28367448,-0.31229407,-0.35372293,-0.39713186,-0.42971182,-0.45041078,-0.46028066,-0.4671803,-0.47114062,-0.47114062,-0.47114062,-0.47510093,-0.48101056,-0.47903037,-0.4741109,-0.47114062,-0.47609103,-0.48692006,-0.4948098,-0.4948098,-0.48692006,-0.4820006,-0.47903037,-0.47903037,-0.4800204,-0.45830047,-0.37049246,-0.16034722,0.1968255,0.6132175,0.9240109,0.97633064,0.717795,0.24716508,-0.2580251,-0.64282733,-0.85396266,-0.9151622,-0.88159215,-0.81055367,-0.72670597,-0.6408472,-0.5638991,-0.5046797,-0.47114062,-0.46226078,-0.4731208,-0.48101056,-0.4731208,-0.4553612,-0.43958175,-0.4346313,-0.43562138,-0.4326511,-0.42083198,-0.4109621,-0.4119522,-0.4198419,-0.42182213,-0.4109621,-0.39713186,-0.387262,-0.387262,-0.3843227,-0.38135242,-0.37643296,-0.3783822,-0.38036233,-0.3783822,-0.3675531,-0.35669315,-0.35570306,-0.35669315,-0.35174274,-0.33794343,-0.32609338,-0.3211739,-0.322164,-0.31919372,-0.31031388,-0.300444,-0.29651463,-0.29651463,-0.29156423,-0.27776498,-0.26096445,-0.2530747,-0.25208467,-0.2530747,-0.25112545,-0.25112545,-0.2540648,-0.2580251,-0.2590152,-0.2530747,-0.25013536,-0.25703508,-0.27182442,-0.28664476,-0.29552454,-0.3034143,-0.31919372,-0.33794343,-0.35471296,-0.3635928,-0.37346268,-0.39320248,-0.41588157,-0.4376015,-0.45041078,-0.46028066,-0.47609103,-0.4957999,-0.5116103,-0.51851,-0.5244195,-0.5332993,-0.54316926,-0.55006886,-0.5530391,-0.5560094,-0.561919,-0.562909,-0.5579586,-0.5490788,-0.54808867,-0.55696845,-0.56584835,-0.562909,-0.5490788,-0.53626955,-0.5352795,-0.5401989,-0.53725964,-0.52639973,-0.5165298,-0.5165298,-0.5195,-0.51851,-0.5096302,-0.5007503,-0.50174046,-0.50864005,-0.50864005,-0.49778008,-0.48398077,-0.4800204,-0.4800204,-0.48101056,-0.47804028,-0.47114062,-0.47213072,-0.47804028,-0.47903037,-0.47510093,-0.46622115,-0.46424103,-0.4691605,-0.47213072,-0.4731208,-0.4731208,-0.47510093,-0.47609103,-0.47609103,-0.4741109,-0.4770502,-0.48989034,-0.50174046,-0.5027305,-0.49286056,-0.48299068,-0.47804028,-0.4800204,-0.48101056,-0.47804028,-0.47510093,-0.4770502,-0.4770502,-0.47510093,-0.4681704,-0.46325088,-0.46622115,-0.4671803,-0.46127075,-0.4553612,-0.44942063,-0.45635128,-0.47015053,-0.47804028,-0.47510093,-0.47114062,-0.47213072,-0.47609103,-0.4770502,-0.4731208,-0.4671803,-0.47114062,-0.47804028,-0.47804028,-0.4741109,-0.46523106,-0.46325088,-0.4691605,-0.47213072,-0.46622115,-0.46226078,-0.46226078,-0.46424103,-0.46127075,-0.453381,-0.44648135,-0.44846153,-0.45635128,-0.46127075,-0.45830047,-0.4543711,-0.4543711,-0.4543711,-0.44942063,-0.4376015,-0.4307019,-0.43661147,-0.44747144,-0.453381,-0.44846153,-0.4376015,-0.4346313,-0.43661147,-0.4307019,-0.41588157,-0.39713186,-0.38234246,-0.3783822,-0.38135242,-0.3833326,-0.3833326,-0.38630283,-0.38036233,-0.35867333,-0.322164,-0.29156423,-0.27776498,-0.28466457,-0.3024242,-0.32906365,-0.36161262,-0.40307236,-0.44450122,-0.4691605,-0.4741109,-0.4691605,-0.4681704,-0.47015053,-0.4691605,-0.46127075,-0.4543711,-0.46028066,-0.47213072,-0.4820006,-0.48101056,-0.4741109,-0.4681704,-0.4671803,-0.46523106,-0.46028066,-0.4543711,-0.45830047,-0.4691605,-0.4543711,-0.36851227,-0.16034722,0.18500638,0.5885583,0.90922153,0.9940903,0.7701149,0.31031382,-0.2116459,-0.61915815,-0.84214354,-0.9102118,-0.88654256,-0.8283133,-0.75136524,-0.65761673,-0.56881857,-0.51062024,-0.48593003,-0.4820006,-0.4820006,-0.47903037,-0.47510093,-0.46424103,-0.45140088,-0.4326511,-0.41786176,-0.41885185,-0.42278123,-0.4257515,-0.42083198,-0.41489148,-0.41390145,-0.41588157,-0.41489148,-0.40898198,-0.40307236,-0.4050216,-0.40700173,-0.40406245,-0.39320248,-0.38234246,-0.3783822,-0.37445277,-0.36950237,-0.36062253,-0.35174274,-0.35372293,-0.35471296,-0.34682328,-0.33203387,-0.3211739,-0.31919372,-0.32411325,-0.322164,-0.31031388,-0.29552454,-0.28565466,-0.2747947,-0.26492482,-0.25604498,-0.2540648,-0.2600053,-0.26591486,-0.2580251,-0.24125558,-0.23039562,-0.2323758,-0.24518496,-0.2600053,-0.26888514,-0.27776498,-0.29057413,-0.3034143,-0.31328416,-0.3211739,-0.33299303,-0.35372293,-0.37148255,-0.38234246,-0.39320248,-0.40799183,-0.4336412,-0.45830047,-0.47114062,-0.47510093,-0.4820006,-0.50174046,-0.52243936,-0.5352795,-0.53725964,-0.5392089,-0.54808867,-0.5599388,-0.5648892,-0.5609288,-0.55501926,-0.5589487,-0.56584835,-0.56584835,-0.5599388,-0.55105895,-0.5471295,-0.5490788,-0.5471295,-0.5401989,-0.53230923,-0.52936995,-0.52639973,-0.51851,-0.51062024,-0.50566983,-0.50764996,-0.5135596,-0.51062024,-0.4997602,-0.48989034,-0.48692006,-0.48791015,-0.48791015,-0.48497087,-0.48398077,-0.4820006,-0.4800204,-0.47510093,-0.46424103,-0.45830047,-0.46622115,-0.4731208,-0.4731208,-0.46523106,-0.46127075,-0.4681704,-0.4800204,-0.48692006,-0.48101056,-0.4691605,-0.4671803,-0.47213072,-0.47510093,-0.47510093,-0.47510093,-0.4800204,-0.48890024,-0.48890024,-0.48101056,-0.47510093,-0.4770502,-0.48101056,-0.4800204,-0.47114062,-0.46523106,-0.4691605,-0.47609103,-0.47903037,-0.47609103,-0.47114062,-0.47510093,-0.4770502,-0.47213072,-0.46523106,-0.46325088,-0.4691605,-0.47609103,-0.47213072,-0.45929056,-0.4543711,-0.46127075,-0.47114062,-0.47510093,-0.4671803,-0.45929056,-0.46028066,-0.46325088,-0.46028066,-0.4553612,-0.4523909,-0.4573413,-0.4671803,-0.4681704,-0.45635128,-0.44351113,-0.44153094,-0.44549125,-0.44747144,-0.44846153,-0.45140088,-0.4553612,-0.45635128,-0.4553612,-0.44747144,-0.44351113,-0.44747144,-0.453381,-0.453381,-0.45140088,-0.45041078,-0.453381,-0.453381,-0.44450122,-0.4336412,-0.4267416,-0.42872173,-0.43661147,-0.44153094,-0.44252104,-0.43859166,-0.4376015,-0.43166107,-0.41885185,-0.40208232,-0.38630283,-0.38135242,-0.38531274,-0.38630283,-0.3843227,-0.37643296,-0.36557293,-0.35471296,-0.33893353,-0.31427425,-0.29156423,-0.2807042,-0.2807042,-0.28565466,-0.31130403,-0.35273284,-0.4050216,-0.453381,-0.47903037,-0.4770502,-0.46226078,-0.4523909,-0.44747144,-0.44549125,-0.44450122,-0.44450122,-0.4523909,-0.46028066,-0.46226078,-0.45929056,-0.45635128,-0.45635128,-0.46028066,-0.4543711,-0.43958175,-0.4267416,-0.4257515,-0.43661147,-0.42278123,-0.33497316,-0.1218577,0.22742522,0.6230875,0.912192,0.94672096,0.6753762,0.19781554,-0.30440438,-0.661577,-0.8342538,-0.8677929,-0.8322736,-0.7780047,-0.70894635,-0.6240776,-0.5421791,-0.48692006,-0.4573413,-0.44648135,-0.44450122,-0.44054085,-0.43859166,-0.43661147,-0.42278123,-0.4060117,-0.39419258,-0.3912223,-0.3902322,-0.38630283,-0.3793723,-0.37346268,-0.3783822,-0.3843227,-0.38135242,-0.37346268,-0.3626027,-0.35768324,-0.35273284,-0.34682328,-0.33794343,-0.33596325,-0.3409137,-0.34583318,-0.343853,-0.3369534,-0.32708347,-0.32315403,-0.322164,-0.3152334,-0.30734372,-0.2994539,-0.29354435,-0.28664476,-0.2728145,-0.26195455,-0.25703508,-0.2600053,-0.26591486,-0.26195455,-0.25112545,-0.23927546,-0.23336583,-0.23138571,-0.22448605,-0.22052568,-0.22052568,-0.23039562,-0.23630518,-0.2323758,-0.2264353,-0.2264353,-0.23927546,-0.26096445,-0.2738046,-0.278755,-0.28466457,-0.3024242,-0.32609338,-0.34682328,-0.3626027,-0.37346268,-0.38924217,-0.40898198,-0.42377132,-0.43958175,-0.4543711,-0.47510093,-0.4938507,-0.5046797,-0.50665987,-0.5046797,-0.51062024,-0.5214492,-0.53230923,-0.5392089,-0.5411891,-0.5421791,-0.5401989,-0.5352795,-0.53131914,-0.52837986,-0.53131914,-0.5332993,-0.52639973,-0.5135596,-0.50368965,-0.5027305,-0.5046797,-0.5027305,-0.49778008,-0.48989034,-0.48692006,-0.48398077,-0.4741109,-0.46325088,-0.46226078,-0.4681704,-0.47510093,-0.47114062,-0.46028066,-0.453381,-0.45635128,-0.46325088,-0.46127075,-0.4553612,-0.44942063,-0.453381,-0.46028066,-0.4573413,-0.4523909,-0.44942063,-0.45140088,-0.46028066,-0.46127075,-0.45635128,-0.45140088,-0.453381,-0.45830047,-0.45929056,-0.46028066,-0.46523106,-0.4731208,-0.4800204,-0.4741109,-0.46226078,-0.45140088,-0.45635128,-0.4681704,-0.4741109,-0.47015053,-0.45929056,-0.4543711,-0.4523909,-0.4553612,-0.4573413,-0.46028066,-0.46424103,-0.46622115,-0.46325088,-0.46028066,-0.46226078,-0.4671803,-0.47015053,-0.4681704,-0.46325088,-0.46226078,-0.46622115,-0.4671803,-0.46028066,-0.4553612,-0.4553612,-0.46523106,-0.47609103,-0.47609103,-0.4671803,-0.4573413,-0.453381,-0.45140088,-0.45140088,-0.44846153,-0.453381,-0.46028066,-0.46622115,-0.46622115,-0.46127075,-0.45929056,-0.46127075,-0.46424103,-0.46226078,-0.45830047,-0.4553612,-0.45929056,-0.46424103,-0.46127075,-0.45830047,-0.45929056,-0.46424103,-0.46325088,-0.44942063,-0.43166107,-0.41687167,-0.4119522,-0.4109621,-0.4050216,-0.39614183,-0.39812195,-0.40898198,-0.41687167,-0.4060117,-0.38531274,-0.3645829,-0.35174274,-0.3428629,-0.33203387,-0.31820363,-0.31919372,-0.3428629,-0.3833326,-0.42182213,-0.4553612,-0.48101056,-0.49877018,-0.50764996,-0.5027305,-0.49286056,-0.48692006,-0.48890024,-0.4957999,-0.4957999,-0.4938507,-0.4948098,-0.4997602,-0.50174046,-0.4948098,-0.48497087,-0.48299068,-0.48791015,-0.49187052,-0.48593003,-0.48101056,-0.47213072,-0.42773163,-0.28565466,0.00047945976,0.38528168,0.73459554,0.8954222,0.7799537,0.43265104,-0.01331979,-0.41885185,-0.693136,-0.8302935,-0.85495275,-0.81649417,-0.7493851,-0.6704569,-0.59545803,-0.5392089,-0.50864005,-0.50368965,-0.5125694,-0.51851,-0.5096302,-0.49286056,-0.48101056,-0.47903037,-0.47903037,-0.4741109,-0.46523106,-0.4573413,-0.45830047,-0.46028066,-0.4553612,-0.44549125,-0.43661147,-0.42872173,-0.4247614,-0.4198419,-0.41588157,-0.4198419,-0.42773163,-0.42971182,-0.42182213,-0.4129423,-0.40898198,-0.40898198,-0.409972,-0.40208232,-0.39320248,-0.387262,-0.38531274,-0.3793723,-0.36950237,-0.35768324,-0.35273284,-0.35372293,-0.35471296,-0.3448431,-0.33497316,-0.32807356,-0.32510328,-0.3172136,-0.3034143,-0.29057413,-0.29057413,-0.3024242,-0.3053944,-0.3014341,-0.29156423,-0.28763485,-0.29846388,-0.31229407,-0.31820363,-0.32411325,-0.3369534,-0.35768324,-0.38036233,-0.39320248,-0.40208232,-0.40898198,-0.42182213,-0.43859166,-0.44942063,-0.46127075,-0.47804028,-0.4957999,-0.5116103,-0.5195,-0.52639973,-0.53824973,-0.55501926,-0.5678285,-0.5678285,-0.562909,-0.5599388,-0.562909,-0.5698086,-0.5678285,-0.5668384,-0.56881857,-0.5747591,-0.5757182,-0.56881857,-0.561919,-0.561919,-0.5678285,-0.56881857,-0.5599388,-0.5461395,-0.53725964,-0.53824973,-0.5401989,-0.53230923,-0.5214492,-0.51851,-0.52243936,-0.52936995,-0.52936995,-0.52639973,-0.5254096,-0.5303291,-0.5332993,-0.5244195,-0.5125694,-0.5046797,-0.5046797,-0.50764996,-0.50174046,-0.48989034,-0.48593003,-0.49088043,-0.49877018,-0.50174046,-0.49778008,-0.49778008,-0.50174046,-0.50566983,-0.5046797,-0.49877018,-0.49679,-0.5007503,-0.50665987,-0.5046797,-0.50174046,-0.50368965,-0.50864005,-0.5116103,-0.50665987,-0.50174046,-0.5007503,-0.50665987,-0.5145496,-0.5135596,-0.50665987,-0.50174046,-0.49679,-0.49286056,-0.48890024,-0.48593003,-0.48890024,-0.4957999,-0.49877018,-0.4948098,-0.49187052,-0.4938507,-0.4997602,-0.50368965,-0.4997602,-0.49187052,-0.48890024,-0.4938507,-0.49778008,-0.4957999,-0.49088043,-0.48989034,-0.48989034,-0.48890024,-0.4800204,-0.47114062,-0.47114062,-0.4770502,-0.4800204,-0.47804028,-0.47114062,-0.47015053,-0.47609103,-0.48299068,-0.4820006,-0.47609103,-0.47804028,-0.48101056,-0.4820006,-0.4731208,-0.46424103,-0.46325088,-0.47114062,-0.4800204,-0.47804028,-0.47213072,-0.47114062,-0.47804028,-0.48593003,-0.48299068,-0.47213072,-0.46523106,-0.4681704,-0.47213072,-0.4681704,-0.46028066,-0.4573413,-0.45830047,-0.46226078,-0.45635128,-0.43958175,-0.42182213,-0.40700173,-0.39812195,-0.3912223,-0.38531274,-0.38825208,-0.3951826,-0.39713186,-0.3912223,-0.38036233,-0.3645829,-0.3478133,-0.33005375,-0.31031388,-0.300444,-0.31328416,-0.3478133,-0.39320248,-0.43166107,-0.46127075,-0.4820006,-0.49286056,-0.4948098,-0.48890024,-0.48497087,-0.48497087,-0.49877018,-0.5096302,-0.5096302,-0.5046797,-0.50368965,-0.50368965,-0.50368965,-0.49679,-0.48791015,-0.48989034,-0.4957999,-0.49877018,-0.49286056,-0.48692006,-0.47213072,-0.409972,-0.23630518,0.0863384,0.48592985,0.8115436,0.9141718,0.7276648,0.3280735,-0.14060742,-0.53230923,-0.7789948,-0.88654256,-0.88654256,-0.8322736,-0.75136524,-0.661577,-0.5836389,-0.52738976,-0.5046797,-0.51062024,-0.52639973,-0.52738976,-0.5096302,-0.48593003,-0.47213072,-0.47213072,-0.47510093,-0.47213072,-0.46226078,-0.4573413,-0.45929056,-0.45830047,-0.44942063,-0.43958175,-0.4336412,-0.43562138,-0.44054085,-0.43859166,-0.43562138,-0.43562138,-0.43562138,-0.4336412,-0.42182213,-0.4129423,-0.4119522,-0.41489148,-0.4129423,-0.40010214,-0.3833326,-0.37445277,-0.37643296,-0.38135242,-0.37643296,-0.36851227,-0.3645829,-0.3626027,-0.35570306,-0.3418728,-0.32708347,-0.3211739,-0.32411325,-0.32510328,-0.31427425,-0.300444,-0.2945345,-0.300444,-0.31031388,-0.31328416,-0.31229407,-0.3152334,-0.32411325,-0.33794343,-0.34583318,-0.35471296,-0.36656308,-0.38234246,-0.39419258,-0.39713186,-0.40109223,-0.41390145,-0.43661147,-0.45929056,-0.47213072,-0.4820006,-0.49286056,-0.50864005,-0.5234294,-0.53131914,-0.53725964,-0.5441593,-0.561919,-0.5757182,-0.57967854,-0.57769835,-0.5806686,-0.5875683,-0.59347785,-0.5885584,-0.5806686,-0.5747591,-0.57769835,-0.5836389,-0.5836389,-0.5786885,-0.5757182,-0.5698086,-0.5638991,-0.5540292,-0.5441593,-0.5461395,-0.5540292,-0.55696845,-0.54808867,-0.53626955,-0.53428936,-0.5411891,-0.5490788,-0.5471295,-0.53824973,-0.53230923,-0.52837986,-0.5254096,-0.5135596,-0.5027305,-0.50174046,-0.5096302,-0.5165298,-0.5145496,-0.50864005,-0.5096302,-0.5135596,-0.5155397,-0.5096302,-0.5027305,-0.50368965,-0.5116103,-0.5165298,-0.5116103,-0.5046797,-0.50566983,-0.51751983,-0.52639973,-0.5234294,-0.5135596,-0.5046797,-0.50665987,-0.51062024,-0.5116103,-0.5135596,-0.5165298,-0.5145496,-0.51062024,-0.5027305,-0.50174046,-0.51062024,-0.52243936,-0.5244195,-0.5145496,-0.50174046,-0.49877018,-0.5046797,-0.5096302,-0.50665987,-0.5046797,-0.5096302,-0.5165298,-0.51851,-0.5125694,-0.50566983,-0.50665987,-0.5116103,-0.5135596,-0.50665987,-0.49778008,-0.4957999,-0.5046797,-0.50665987,-0.50368965,-0.4997602,-0.4997602,-0.50665987,-0.5125694,-0.5116103,-0.50566983,-0.50174046,-0.5027305,-0.49877018,-0.48989034,-0.4820006,-0.48299068,-0.49088043,-0.4938507,-0.49088043,-0.48791015,-0.48890024,-0.49679,-0.5046797,-0.5027305,-0.49679,-0.4957999,-0.49778008,-0.49679,-0.4938507,-0.48989034,-0.49088043,-0.4957999,-0.49679,-0.48989034,-0.48398077,-0.48692006,-0.49286056,-0.4957999,-0.48497087,-0.4671803,-0.4523909,-0.44747144,-0.44351113,-0.43166107,-0.42278123,-0.41687167,-0.4198419,-0.42278123,-0.41885185,-0.4109621,-0.40700173,-0.40406245,-0.39221245,-0.3626027,-0.32315403,-0.3053944,-0.30635363,-0.32510328,-0.35174274,-0.38630283,-0.42872173,-0.4731208,-0.50764996,-0.5195,-0.5155397,-0.5135596,-0.5145496,-0.5145496,-0.50764996,-0.5027305,-0.50764996,-0.5155397,-0.5204901,-0.5155397,-0.50665987,-0.50764996,-0.5145496,-0.5195,-0.5165298,-0.50566983,-0.4997602,-0.50864005,-0.5096302,-0.46226078,-0.3162235,-0.031079412,0.36359274,0.7405052,0.94375074,0.8599031,0.49282956,-0.014309883,-0.4800204,-0.7849043,-0.9200817,-0.93193173,-0.87964296,-0.79774445,-0.70006657,-0.6082982,-0.5490788,-0.5234294,-0.5214492,-0.52243936,-0.51851,-0.5135596,-0.50864005,-0.5027305,-0.48989034,-0.47609103,-0.47015053,-0.46622115,-0.46127075,-0.45140088,-0.44054085,-0.43958175,-0.44549125,-0.44747144,-0.43661147,-0.42872173,-0.42773163,-0.4326511,-0.43859166,-0.4346313,-0.4247614,-0.4198419,-0.4198419,-0.41885185,-0.40898198,-0.39713186,-0.3902322,-0.38825208,-0.38234246,-0.37346268,-0.36656308,-0.3645829,-0.3635928,-0.35768324,-0.3409137,-0.32510328,-0.31919372,-0.31919372,-0.32018387,-0.31229407,-0.3014341,-0.29846388,-0.3014341,-0.300444,-0.29156423,-0.28367448,-0.2807042,-0.28664476,-0.2945345,-0.29846388,-0.3034143,-0.3172136,-0.33497316,-0.34979355,-0.35669315,-0.3645829,-0.3793723,-0.40208232,-0.42083198,-0.42971182,-0.43562138,-0.45041078,-0.4741109,-0.4948098,-0.50764996,-0.5165298,-0.52936995,-0.54316926,-0.5560094,-0.561919,-0.561919,-0.5668384,-0.5757182,-0.5836389,-0.5855881,-0.58657813,-0.58954847,-0.5925187,-0.59152865,-0.584598,-0.5786885,-0.57769835,-0.5767083,-0.5698086,-0.55501926,-0.5461395,-0.55006886,-0.55696845,-0.5599388,-0.54808867,-0.53626955,-0.5352795,-0.5441593,-0.55006886,-0.5461395,-0.5332993,-0.52639973,-0.52639973,-0.52738976,-0.5244195,-0.51851,-0.5195,-0.5234294,-0.5234294,-0.51751983,-0.5096302,-0.51062024,-0.51851,-0.5234294,-0.5204901,-0.5165298,-0.5155397,-0.5214492,-0.52738976,-0.5244195,-0.5165298,-0.5165298,-0.5195,-0.5214492,-0.52243936,-0.5234294,-0.5254096,-0.52936995,-0.52936995,-0.5254096,-0.5234294,-0.52837986,-0.5332993,-0.52936995,-0.51851,-0.50665987,-0.50764996,-0.5145496,-0.5195,-0.5195,-0.51751983,-0.5204901,-0.52639973,-0.5254096,-0.51751983,-0.51062024,-0.5116103,-0.51751983,-0.51751983,-0.5096302,-0.5027305,-0.4997602,-0.50174046,-0.5027305,-0.49679,-0.4948098,-0.5007503,-0.50566983,-0.5096302,-0.5096302,-0.51062024,-0.5204901,-0.5303291,-0.52936995,-0.51851,-0.50764996,-0.50864005,-0.5155397,-0.5135596,-0.5007503,-0.48791015,-0.4820006,-0.49286056,-0.5046797,-0.5116103,-0.5116103,-0.5116103,-0.5125694,-0.51062024,-0.50566983,-0.4997602,-0.4997602,-0.4997602,-0.4948098,-0.48497087,-0.47804028,-0.4800204,-0.48101056,-0.47213072,-0.453381,-0.43562138,-0.43166107,-0.43562138,-0.4346313,-0.4257515,-0.41588157,-0.4119522,-0.40700173,-0.38825208,-0.35570306,-0.33005375,-0.32807356,-0.3448431,-0.37049246,-0.40109223,-0.4336412,-0.4741109,-0.5125694,-0.5332993,-0.5352795,-0.52837986,-0.5244195,-0.5234294,-0.5214492,-0.5145496,-0.5116103,-0.5204901,-0.53230923,-0.53824973,-0.5352795,-0.52837986,-0.5254096,-0.52639973,-0.5204901,-0.50665987,-0.49679,-0.5007503,-0.5046797,-0.4573413,-0.29846388,0.0034496784,0.4040314,0.7710738,0.948701,0.83620286,0.44942057,-0.070558965,-0.5352795,-0.825374,-0.9358611,-0.9279714,-0.87568265,-0.8095636,-0.7276651,-0.63691777,-0.5599388,-0.5204901,-0.5145496,-0.5195,-0.51851,-0.5125694,-0.50566983,-0.50174046,-0.49187052,-0.47609103,-0.46424103,-0.46127075,-0.46127075,-0.45830047,-0.44846153,-0.44054085,-0.44054085,-0.44252104,-0.44054085,-0.43166107,-0.42377132,-0.42377132,-0.4247614,-0.41885185,-0.409972,-0.40208232,-0.40109223,-0.40109223,-0.3951826,-0.38135242,-0.36950237,-0.36851227,-0.36950237,-0.36851227,-0.3626027,-0.35372293,-0.34979355,-0.34682328,-0.33893353,-0.32510328,-0.31427425,-0.30932385,-0.30440438,-0.29552454,-0.2797141,-0.26690495,-0.26888514,-0.27677482,-0.28367448,-0.28169435,-0.2738046,-0.26984423,-0.26984423,-0.27182442,-0.27578473,-0.28367448,-0.29846388,-0.3172136,-0.33398312,-0.343853,-0.35471296,-0.36950237,-0.38825208,-0.4050216,-0.4198419,-0.4346313,-0.4553612,-0.4800204,-0.49778008,-0.5096302,-0.5204901,-0.5352795,-0.55204904,-0.5609288,-0.562909,-0.5648892,-0.573769,-0.584598,-0.59152865,-0.58954847,-0.5855881,-0.59152865,-0.59743816,-0.60040843,-0.5925187,-0.5816587,-0.5786885,-0.58264875,-0.5836389,-0.57769835,-0.56881857,-0.562909,-0.5560094,-0.54808867,-0.5332993,-0.5195,-0.51751983,-0.5234294,-0.5254096,-0.5234294,-0.51851,-0.5165298,-0.5116103,-0.5027305,-0.49286056,-0.48989034,-0.49877018,-0.50368965,-0.5007503,-0.48692006,-0.47609103,-0.4800204,-0.48791015,-0.4957999,-0.49778008,-0.49679,-0.5027305,-0.50864005,-0.50764996,-0.5046797,-0.5007503,-0.50368965,-0.50864005,-0.50764996,-0.49877018,-0.49187052,-0.49286056,-0.4957999,-0.49679,-0.48989034,-0.48593003,-0.48593003,-0.48989034,-0.48989034,-0.47804028,-0.4681704,-0.47609103,-0.49088043,-0.4997602,-0.49778008,-0.48989034,-0.48692006,-0.49088043,-0.4957999,-0.49286056,-0.48299068,-0.47804028,-0.47804028,-0.4770502,-0.4770502,-0.47609103,-0.48101056,-0.48989034,-0.48989034,-0.48593003,-0.48398077,-0.4938507,-0.50566983,-0.50764996,-0.49778008,-0.48692006,-0.48497087,-0.49187052,-0.4957999,-0.49088043,-0.4820006,-0.47903037,-0.4800204,-0.47903037,-0.47114062,-0.46523106,-0.46424103,-0.4671803,-0.46028066,-0.44153094,-0.42182213,-0.409972,-0.4109621,-0.41489148,-0.41489148,-0.41390145,-0.41390145,-0.4119522,-0.39614183,-0.3645829,-0.33104378,-0.3152334,-0.3162235,-0.32807356,-0.3488034,-0.3793723,-0.42182213,-0.46622115,-0.4957999,-0.50566983,-0.5027305,-0.5046797,-0.50665987,-0.50764996,-0.5007503,-0.50174046,-0.50665987,-0.5125694,-0.5125694,-0.50174046,-0.49679,-0.5027305,-0.5096302,-0.50764996,-0.49187052,-0.47114062,-0.46127075,-0.46622115,-0.46622115,-0.42872173,-0.3034143,-0.045868695,0.31820357,0.6714468,0.86284244,0.7750344,0.41786158,-0.06266928,-0.49088043,-0.7612351,-0.8707632,-0.87469256,-0.8283133,-0.7632153,-0.6823069,-0.6013985,-0.53725964,-0.49286056,-0.47213072,-0.46424103,-0.46226078,-0.4671803,-0.4671803,-0.45929056,-0.44450122,-0.42971182,-0.42182213,-0.4119522,-0.39911205,-0.3902322,-0.38825208,-0.3951826,-0.40109223,-0.39419258,-0.377423,-0.3675531,-0.37445277,-0.38234246,-0.38135242,-0.37148255,-0.36062253,-0.3626027,-0.36950237,-0.37049246,-0.35963243,-0.3478133,-0.3448431,-0.3418728,-0.33794343,-0.32807356,-0.31820363,-0.31919372,-0.31919372,-0.31130403,-0.29846388,-0.29156423,-0.29156423,-0.28859395,-0.27776498,-0.2590152,-0.24125558,-0.23927546,-0.24815524,-0.25208467,-0.2530747,-0.25112545,-0.25112545,-0.25208467,-0.24914533,-0.24320483,-0.24125558,-0.25013536,-0.26690495,-0.2807042,-0.28958404,-0.3014341,-0.3172136,-0.33794343,-0.35867333,-0.37544286,-0.39419258,-0.42083198,-0.44846153,-0.46622115,-0.4800204,-0.48791015,-0.5007503,-0.5165298,-0.52738976,-0.53428936,-0.54316926,-0.55204904,-0.5589487,-0.5599388,-0.55696845,-0.5589487,-0.5678285,-0.5757182,-0.5767083,-0.56881857,-0.5579586,-0.5560094,-0.5579586,-0.5540292,-0.5451494,-0.53230923,-0.52837986,-0.52936995,-0.53131914,-0.5332993,-0.53131914,-0.52936995,-0.5195,-0.50864005,-0.49679,-0.4938507,-0.50174046,-0.50764996,-0.5027305,-0.49187052,-0.48497087,-0.48989034,-0.49778008,-0.49679,-0.48398077,-0.47213072,-0.47015053,-0.47609103,-0.48299068,-0.48890024,-0.49877018,-0.50864005,-0.5125694,-0.5027305,-0.48791015,-0.4800204,-0.48692006,-0.49778008,-0.50368965,-0.49877018,-0.49187052,-0.49286056,-0.49778008,-0.4948098,-0.49187052,-0.49088043,-0.49679,-0.50764996,-0.5116103,-0.50864005,-0.5007503,-0.49286056,-0.48692006,-0.48299068,-0.48101056,-0.48692006,-0.50174046,-0.5096302,-0.50665987,-0.49679,-0.48692006,-0.48692006,-0.4948098,-0.5007503,-0.50174046,-0.5046797,-0.50665987,-0.50764996,-0.50174046,-0.49187052,-0.49187052,-0.5007503,-0.5116103,-0.5145496,-0.5027305,-0.48890024,-0.48497087,-0.48398077,-0.47804028,-0.46523106,-0.44747144,-0.4346313,-0.42773163,-0.4257515,-0.4257515,-0.42971182,-0.4376015,-0.44054085,-0.4257515,-0.39812195,-0.37148255,-0.35669315,-0.35570306,-0.3645829,-0.38135242,-0.40799183,-0.44747144,-0.49187052,-0.5244195,-0.53824973,-0.53824973,-0.53230923,-0.52639973,-0.5214492,-0.51851,-0.5204901,-0.53131914,-0.5401989,-0.54316926,-0.5392089,-0.5392089,-0.5441593,-0.5471295,-0.5392089,-0.52936995,-0.52243936,-0.5254096,-0.53824973,-0.53725964,-0.49286056,-0.36557293,-0.11693829,0.23531497,0.5924877,0.8085735,0.76024497,0.45140076,0.005429983,-0.4257515,-0.7237357,-0.8737024,-0.9190916,-0.8894819,-0.81943345,-0.7257159,-0.63985705,-0.58657813,-0.56584835,-0.5678285,-0.57178885,-0.5648892,-0.5599388,-0.5490788,-0.53626955,-0.52639973,-0.5165298,-0.5116103,-0.50864005,-0.4997602,-0.49088043,-0.4948098,-0.51062024,-0.5303291,-0.5441593,-0.5490788,-0.5530391,-0.5599388,-0.5668384,-0.56584835,-0.5589487,-0.55204904,-0.55105895,-0.5490788,-0.5421791,-0.5303291,-0.52837986,-0.5352795,-0.5411891,-0.53824973,-0.52738976,-0.51851,-0.5214492,-0.5303291,-0.53230923,-0.5303291,-0.52738976,-0.52936995,-0.53131914,-0.5234294,-0.50665987,-0.4948098,-0.48890024,-0.48890024,-0.48989034,-0.48989034,-0.48989034,-0.4938507,-0.49286056,-0.48398077,-0.4741109,-0.4741109,-0.48692006,-0.50368965,-0.5125694,-0.5155397,-0.5204901,-0.53428936,-0.5540292,-0.56881857,-0.5786885,-0.58954847,-0.6053279,-0.6250677,-0.64183724,-0.6517072,-0.6645473,-0.6773565,-0.68821645,-0.693136,-0.69019663,-0.694126,-0.70795625,-0.7207655,-0.72670597,-0.72274566,-0.715846,-0.71188563,-0.7148559,-0.7168361,-0.7168361,-0.7168361,-0.7187853,-0.715846,-0.704986,-0.6921458,-0.68131685,-0.67636645,-0.66946673,-0.6566266,-0.64480746,-0.63787687,-0.6408472,-0.64480746,-0.6408472,-0.6319673,-0.6280379,-0.6299872,-0.6309773,-0.6201173,-0.6033478,-0.58954847,-0.5855881,-0.5875683,-0.5816587,-0.5816587,-0.5855881,-0.5925187,-0.59545803,-0.5855881,-0.57277894,-0.56881857,-0.57769835,-0.5885584,-0.5855881,-0.5757182,-0.5648892,-0.562909,-0.5668384,-0.56584835,-0.5638991,-0.5638991,-0.5678285,-0.5668384,-0.5579586,-0.5441593,-0.5392089,-0.5451494,-0.55696845,-0.5579586,-0.5530391,-0.54808867,-0.5471295,-0.5490788,-0.54316926,-0.5352795,-0.52837986,-0.53725964,-0.55105895,-0.5560094,-0.5530391,-0.5441593,-0.5352795,-0.52936995,-0.5254096,-0.5214492,-0.5204901,-0.52738976,-0.53626955,-0.53626955,-0.53230923,-0.5254096,-0.5244195,-0.52738976,-0.52639973,-0.5254096,-0.5234294,-0.5214492,-0.5165298,-0.50566983,-0.49778008,-0.49877018,-0.5096302,-0.5195,-0.5145496,-0.50174046,-0.4957999,-0.49679,-0.5027305,-0.5027305,-0.4948098,-0.48398077,-0.47114062,-0.46028066,-0.44351113,-0.4326511,-0.4346313,-0.44648135,-0.4543711,-0.44846153,-0.43166107,-0.41390145,-0.39911205,-0.3833326,-0.3635928,-0.34682328,-0.34682328,-0.37148255,-0.4129423,-0.453381,-0.48890024,-0.51851,-0.53725964,-0.54316926,-0.5352795,-0.52243936,-0.5125694,-0.5145496,-0.5214492,-0.5254096,-0.52837986,-0.5352795,-0.54316926,-0.54808867,-0.5401989,-0.52738976,-0.51751983,-0.5145496,-0.5145496,-0.50864005,-0.50368965,-0.50368965,-0.49088043,-0.4129423,-0.20672643,0.13565683,0.531319,0.837193,0.91612136,0.7197753,0.32216382,-0.14258754,-0.53230923,-0.7819341,-0.8786529,-0.86977303,-0.8076143,-0.7187853,-0.6289971,-0.5589487,-0.52243936,-0.51851,-0.5392089,-0.5540292,-0.5461395,-0.53230923,-0.5204901,-0.5155397,-0.5096302,-0.49286056,-0.4681704,-0.45041078,-0.44252104,-0.44252104,-0.43562138,-0.42971182,-0.43166107,-0.44648135,-0.46127075,-0.4671803,-0.46226078,-0.4573413,-0.4543711,-0.4543711,-0.44942063,-0.43661147,-0.4267416,-0.4247614,-0.4198419,-0.4119522,-0.40010214,-0.39419258,-0.39419258,-0.3951826,-0.387262,-0.37544286,-0.3635928,-0.35867333,-0.35471296,-0.34583318,-0.33794343,-0.33299303,-0.33203387,-0.32807356,-0.3152334,-0.30440438,-0.300444,-0.3053944,-0.31229407,-0.3053944,-0.300444,-0.3024242,-0.31427425,-0.32807356,-0.33794343,-0.33992362,-0.34583318,-0.36062253,-0.377423,-0.38924217,-0.40010214,-0.41687167,-0.43859166,-0.4543711,-0.46028066,-0.4573413,-0.46028066,-0.4770502,-0.4948098,-0.50864005,-0.5135596,-0.51851,-0.52837986,-0.5411891,-0.5490788,-0.5540292,-0.561919,-0.57079875,-0.5757182,-0.56881857,-0.5599388,-0.55696845,-0.562909,-0.573769,-0.57178885,-0.56584835,-0.5589487,-0.5560094,-0.5530391,-0.5451494,-0.53626955,-0.53626955,-0.5421791,-0.54316926,-0.53428936,-0.52243936,-0.5155397,-0.5204901,-0.5254096,-0.5214492,-0.5135596,-0.50864005,-0.51062024,-0.51751983,-0.5155397,-0.51062024,-0.5096302,-0.5135596,-0.51851,-0.51751983,-0.5135596,-0.51062024,-0.5116103,-0.5116103,-0.5046797,-0.49679,-0.4957999,-0.50368965,-0.5135596,-0.51751983,-0.51751983,-0.51751983,-0.5204901,-0.5234294,-0.5165298,-0.5096302,-0.51062024,-0.51851,-0.52837986,-0.53131914,-0.5254096,-0.5234294,-0.5254096,-0.52738976,-0.5234294,-0.51751983,-0.5125694,-0.5145496,-0.5155397,-0.51062024,-0.50665987,-0.50566983,-0.5125694,-0.5155397,-0.5125694,-0.51062024,-0.5116103,-0.5165298,-0.51751983,-0.5125694,-0.50368965,-0.50368965,-0.5125694,-0.5195,-0.51751983,-0.50864005,-0.4997602,-0.49679,-0.49877018,-0.4948098,-0.48989034,-0.49187052,-0.49877018,-0.50368965,-0.50368965,-0.49778008,-0.4948098,-0.49877018,-0.5027305,-0.49778008,-0.49088043,-0.48791015,-0.49088043,-0.4938507,-0.4938507,-0.49187052,-0.4938507,-0.4997602,-0.50368965,-0.4948098,-0.48791015,-0.48791015,-0.4948098,-0.50174046,-0.4997602,-0.48989034,-0.48398077,-0.48593003,-0.48890024,-0.48692006,-0.48593003,-0.48791015,-0.4948098,-0.5007503,-0.49778008,-0.48890024,-0.48299068,-0.48398077,-0.48398077,-0.4800204,-0.4731208,-0.47015053,-0.47114062,-0.4731208,-0.46523106,-0.45140088,-0.4376015,-0.43166107,-0.43166107,-0.42971182,-0.42971182,-0.42971182,-0.42971182,-0.4247614,-0.40700173,-0.3793723,-0.35372293,-0.33398312,-0.32708347,-0.32708347,-0.3409137,-0.377423,-0.4247614,-0.47213072,-0.50368965,-0.5145496,-0.5204901,-0.5254096,-0.52639973,-0.51851,-0.50864005,-0.50764996,-0.51751983,-0.5303291,-0.52837986,-0.51851,-0.50764996,-0.50566983,-0.51062024,-0.51062024,-0.5046797,-0.49679,-0.4948098,-0.5007503,-0.50174046,-0.4741109,-0.3635928,-0.118887424,0.2609644,0.6763663,0.96448064,0.98323023,0.7010256,0.23138559,-0.2530747,-0.61717796,-0.8233938,-0.8934423,-0.8737024,-0.8046441,-0.70795625,-0.61123747,-0.53824973,-0.4938507,-0.4770502,-0.47609103,-0.4820006,-0.48593003,-0.47804028,-0.46325088,-0.44942063,-0.44054085,-0.43859166,-0.43661147,-0.4267416,-0.41786176,-0.41588157,-0.41687167,-0.41489148,-0.4050216,-0.39419258,-0.39221245,-0.39713186,-0.4060117,-0.40898198,-0.4109621,-0.4129423,-0.4119522,-0.4050216,-0.3902322,-0.37346268,-0.36656308,-0.36950237,-0.37148255,-0.36656308,-0.35963243,-0.35768324,-0.35768324,-0.35174274,-0.3409137,-0.32609338,-0.32018387,-0.32411325,-0.32906365,-0.32609338,-0.32018387,-0.3162235,-0.3152334,-0.31427425,-0.30833375,-0.3024242,-0.3024242,-0.30734372,-0.31130403,-0.30932385,-0.30635363,-0.3162235,-0.33497316,-0.35570306,-0.36950237,-0.37445277,-0.3833326,-0.39419258,-0.40307236,-0.409972,-0.41390145,-0.4257515,-0.44252104,-0.4573413,-0.4691605,-0.4770502,-0.48890024,-0.50864005,-0.5214492,-0.5254096,-0.5254096,-0.52936995,-0.53824973,-0.5461395,-0.54808867,-0.5461395,-0.54808867,-0.5560094,-0.5599388,-0.55501926,-0.55105895,-0.55006886,-0.5540292,-0.5540292,-0.5471295,-0.53626955,-0.5352795,-0.5411891,-0.5441593,-0.5392089,-0.52738976,-0.51851,-0.5135596,-0.51062024,-0.50368965,-0.49877018,-0.5007503,-0.5096302,-0.5155397,-0.5116103,-0.50174046,-0.49286056,-0.49088043,-0.49286056,-0.4948098,-0.49778008,-0.5027305,-0.50864005,-0.50566983,-0.49877018,-0.49187052,-0.4957999,-0.5096302,-0.5195,-0.5145496,-0.5027305,-0.49286056,-0.49088043,-0.4938507,-0.49877018,-0.50368965,-0.5135596,-0.5254096,-0.52738976,-0.5165298,-0.5046797,-0.5007503,-0.50764996,-0.5155397,-0.5135596,-0.50665987,-0.5027305,-0.50566983,-0.51062024,-0.5116103,-0.50864005,-0.50764996,-0.50764996,-0.50864005,-0.50174046,-0.4957999,-0.49286056,-0.4948098,-0.5007503,-0.5007503,-0.4997602,-0.5007503,-0.5046797,-0.50764996,-0.50174046,-0.49088043,-0.48692006,-0.49187052,-0.4997602,-0.50368965,-0.50368965,-0.5046797,-0.51062024,-0.51851,-0.5165298,-0.5135596,-0.5135596,-0.51751983,-0.5244195,-0.5214492,-0.5155397,-0.5145496,-0.5204901,-0.5254096,-0.5244195,-0.51751983,-0.51751983,-0.5214492,-0.52738976,-0.5204901,-0.50764996,-0.4957999,-0.48989034,-0.48890024,-0.48692006,-0.48593003,-0.49088043,-0.4957999,-0.49679,-0.48593003,-0.47114062,-0.46622115,-0.4681704,-0.47213072,-0.4691605,-0.46325088,-0.46325088,-0.46622115,-0.4671803,-0.45929056,-0.44846153,-0.44846153,-0.4523909,-0.4543711,-0.44747144,-0.4326511,-0.42182213,-0.41786176,-0.41489148,-0.4050216,-0.3912223,-0.387262,-0.387262,-0.38825208,-0.38825208,-0.3843227,-0.3833326,-0.38036233,-0.36656308,-0.33992362,-0.31229407,-0.29651463,-0.2974738,-0.31130403,-0.32807356,-0.35570306,-0.39812195,-0.44153094,-0.47510093,-0.48497087,-0.47804028,-0.47114062,-0.4691605,-0.4681704,-0.46226078,-0.45830047,-0.46226078,-0.4731208,-0.48593003,-0.48692006,-0.4820006,-0.47903037,-0.4820006,-0.48593003,-0.4820006,-0.47510093,-0.4671803,-0.46622115,-0.46325088,-0.4267416,-0.30734372,-0.061679125,0.29846382,0.662567,0.8786217,0.8233937,0.48592985,0.004439831,-0.44153094,-0.73654497,-0.8648226,-0.88456243,-0.84904313,-0.7888647,-0.70300585,-0.60730803,-0.53131914,-0.48692006,-0.4731208,-0.47510093,-0.47510093,-0.4770502,-0.47609103,-0.4691605,-0.453381,-0.43562138,-0.4257515,-0.42278123,-0.42377132,-0.42083198,-0.41786176,-0.4129423,-0.40898198,-0.40406245,-0.3951826,-0.3902322,-0.3902322,-0.39320248,-0.39320248,-0.38825208,-0.38234246,-0.38234246,-0.3833326,-0.377423,-0.3645829,-0.35372293,-0.35174274,-0.35075265,-0.35273284,-0.3488034,-0.3409137,-0.33992362,-0.33893353,-0.33203387,-0.3211739,-0.31427425,-0.3162235,-0.31919372,-0.3172136,-0.3034143,-0.28859395,-0.2807042,-0.2797141,-0.27776498,-0.26984423,-0.26492482,-0.27182442,-0.28565466,-0.2945345,-0.29651463,-0.29354435,-0.29846388,-0.31328416,-0.32906365,-0.33596325,-0.343853,-0.35570306,-0.37148255,-0.3843227,-0.3912223,-0.40208232,-0.42377132,-0.45041078,-0.46424103,-0.46226078,-0.45929056,-0.4691605,-0.49187052,-0.5135596,-0.5234294,-0.52243936,-0.5234294,-0.5303291,-0.5352795,-0.53428936,-0.53428936,-0.53824973,-0.5461395,-0.55006886,-0.5490788,-0.5471295,-0.5490788,-0.55105895,-0.5490788,-0.5411891,-0.53230923,-0.5303291,-0.53230923,-0.52639973,-0.5165298,-0.50764996,-0.50566983,-0.5135596,-0.5204901,-0.51851,-0.5195,-0.5214492,-0.5244195,-0.52243936,-0.51062024,-0.49877018,-0.4948098,-0.49679,-0.50174046,-0.5027305,-0.5007503,-0.5046797,-0.5116103,-0.5145496,-0.5116103,-0.50566983,-0.50764996,-0.5096302,-0.5145496,-0.5145496,-0.51751983,-0.52243936,-0.5244195,-0.5204901,-0.50764996,-0.4997602,-0.50566983,-0.5155397,-0.5195,-0.5125694,-0.5046797,-0.5046797,-0.5096302,-0.5135596,-0.5116103,-0.50764996,-0.51062024,-0.5155397,-0.5135596,-0.4997602,-0.48791015,-0.48890024,-0.49877018,-0.50665987,-0.50864005,-0.50665987,-0.50764996,-0.5135596,-0.5135596,-0.50368965,-0.4938507,-0.4948098,-0.50174046,-0.50174046,-0.49187052,-0.48398077,-0.48497087,-0.4957999,-0.50566983,-0.50368965,-0.4938507,-0.49088043,-0.49679,-0.50566983,-0.50368965,-0.49679,-0.49187052,-0.48989034,-0.48890024,-0.48497087,-0.48497087,-0.49088043,-0.49877018,-0.5007503,-0.48692006,-0.4741109,-0.47015053,-0.47609103,-0.48398077,-0.48101056,-0.47510093,-0.4731208,-0.47903037,-0.4820006,-0.48101056,-0.47609103,-0.4741109,-0.4770502,-0.47609103,-0.4691605,-0.46424103,-0.46424103,-0.4691605,-0.4731208,-0.47114062,-0.46622115,-0.46622115,-0.46325088,-0.4573413,-0.44450122,-0.43166107,-0.4326511,-0.4376015,-0.44054085,-0.43562138,-0.42182213,-0.41390145,-0.40898198,-0.40700173,-0.40109223,-0.39419258,-0.39221245,-0.387262,-0.37247258,-0.35075265,-0.32906365,-0.31820363,-0.3211739,-0.33203387,-0.35471296,-0.39221245,-0.44153094,-0.48593003,-0.5027305,-0.4948098,-0.47609103,-0.4691605,-0.47609103,-0.48593003,-0.49187052,-0.49679,-0.5027305,-0.50864005,-0.5116103,-0.5027305,-0.4938507,-0.49286056,-0.4997602,-0.5027305,-0.49778008,-0.49187052,-0.4957999,-0.49877018,-0.46226078,-0.32708347,-0.061679125,0.30536342,0.662567,0.8697419,0.81550395,0.5007502,0.040949225,-0.40799183,-0.715846,-0.8648226,-0.890472,-0.8510234,-0.7819341,-0.68920654,-0.59644806,-0.52837986,-0.5027305,-0.50566983,-0.5125694,-0.5135596,-0.50566983,-0.50368965,-0.5027305,-0.49679,-0.48101056,-0.46523106,-0.46226078,-0.4691605,-0.4681704,-0.46028066,-0.4523909,-0.4543711,-0.46523106,-0.47510093,-0.47114062,-0.45830047,-0.44648135,-0.43859166,-0.42971182,-0.4257515,-0.4247614,-0.42971182,-0.43166107,-0.4247614,-0.409972,-0.39713186,-0.3951826,-0.39812195,-0.39419258,-0.38234246,-0.37049246,-0.36062253,-0.35669315,-0.35372293,-0.35174274,-0.35174274,-0.35273284,-0.35075265,-0.3428629,-0.32609338,-0.31328416,-0.31031388,-0.3152334,-0.31820363,-0.32018387,-0.32411325,-0.33203387,-0.3409137,-0.343853,-0.3418728,-0.33893353,-0.3478133,-0.36161262,-0.37544286,-0.387262,-0.40208232,-0.4247614,-0.44846153,-0.46028066,-0.46622115,-0.4691605,-0.4820006,-0.5007503,-0.51751983,-0.5254096,-0.5303291,-0.53824973,-0.55105895,-0.561919,-0.57277894,-0.5836389,-0.59545803,-0.6043378,-0.6033478,-0.59644806,-0.59152865,-0.59545803,-0.6013985,-0.60040843,-0.59152865,-0.58264875,-0.5836389,-0.5885584,-0.5885584,-0.5806686,-0.5698086,-0.5648892,-0.5638991,-0.561919,-0.5530391,-0.5411891,-0.53824973,-0.5392089,-0.53626955,-0.53131914,-0.52738976,-0.53230923,-0.5401989,-0.53824973,-0.52738976,-0.5145496,-0.50864005,-0.51062024,-0.5135596,-0.51062024,-0.50566983,-0.50864005,-0.51751983,-0.5195,-0.5155397,-0.50566983,-0.49679,-0.49286056,-0.49088043,-0.48497087,-0.48593003,-0.4948098,-0.50764996,-0.51751983,-0.51851,-0.5145496,-0.5125694,-0.5116103,-0.50566983,-0.49877018,-0.4938507,-0.4957999,-0.49877018,-0.49877018,-0.4938507,-0.49088043,-0.4938507,-0.49877018,-0.49778008,-0.4938507,-0.49286056,-0.49187052,-0.4938507,-0.48890024,-0.48398077,-0.4820006,-0.48791015,-0.49187052,-0.48101056,-0.47015053,-0.46424103,-0.4671803,-0.47804028,-0.48101056,-0.47609103,-0.4691605,-0.4671803,-0.4681704,-0.4691605,-0.46523106,-0.46424103,-0.47114062,-0.47804028,-0.4800204,-0.4770502,-0.4691605,-0.4671803,-0.4671803,-0.46325088,-0.45635128,-0.453381,-0.4573413,-0.46523106,-0.46523106,-0.46127075,-0.45830047,-0.46127075,-0.46523106,-0.46424103,-0.453381,-0.44846153,-0.4543711,-0.46424103,-0.4671803,-0.46028066,-0.45041078,-0.45140088,-0.46127075,-0.47015053,-0.47213072,-0.4691605,-0.46622115,-0.4681704,-0.46523106,-0.4543711,-0.44054085,-0.4326511,-0.4307019,-0.42773163,-0.42083198,-0.4109621,-0.4050216,-0.40307236,-0.39812195,-0.39614183,-0.3951826,-0.39911205,-0.40010214,-0.3833326,-0.34979355,-0.3172136,-0.300444,-0.30440438,-0.32315403,-0.35372293,-0.3912223,-0.4346313,-0.47213072,-0.49187052,-0.4938507,-0.48890024,-0.48989034,-0.49286056,-0.49187052,-0.48692006,-0.48299068,-0.48989034,-0.4997602,-0.5027305,-0.4997602,-0.4948098,-0.49877018,-0.50864005,-0.5145496,-0.50665987,-0.49187052,-0.48692006,-0.49286056,-0.47903037,-0.39320248,-0.18599647,0.15638685,0.5540291,0.85396254,0.9102117,0.6645161,0.20276606,-0.3034143,-0.68821645,-0.8944323,-0.9575811,-0.9358611,-0.8737024,-0.7849043,-0.67933667,-0.5885584,-0.53626955,-0.5204901,-0.5214492,-0.5244195,-0.52243936,-0.5195,-0.5125694,-0.4957999,-0.4741109,-0.4573413,-0.453381,-0.4553612,-0.4553612,-0.45140088,-0.44846153,-0.44942063,-0.4523909,-0.44846153,-0.44153094,-0.4376015,-0.44153094,-0.44252104,-0.43562138,-0.42278123,-0.41390145,-0.41390145,-0.42182213,-0.42083198,-0.40898198,-0.39221245,-0.38825208,-0.3912223,-0.3902322,-0.38135242,-0.3675531,-0.35768324,-0.35174274,-0.3448431,-0.33893353,-0.33005375,-0.32708347,-0.32411325,-0.31229407,-0.29846388,-0.29057413,-0.29255426,-0.2974738,-0.29651463,-0.28763485,-0.2797141,-0.28466457,-0.29156423,-0.29354435,-0.28859395,-0.2826844,-0.29354435,-0.31328416,-0.33203387,-0.3488034,-0.3645829,-0.3843227,-0.4060117,-0.4198419,-0.4257515,-0.43166107,-0.44747144,-0.46523106,-0.48101056,-0.48890024,-0.49679,-0.5116103,-0.5244195,-0.53131914,-0.53725964,-0.5461395,-0.561919,-0.5757182,-0.5767083,-0.5698086,-0.5648892,-0.5747591,-0.5875683,-0.59152865,-0.5855881,-0.57277894,-0.5638991,-0.5609288,-0.55501926,-0.5490788,-0.5471295,-0.55204904,-0.55501926,-0.54808867,-0.53230923,-0.5234294,-0.5244195,-0.53230923,-0.5303291,-0.5195,-0.51062024,-0.5096302,-0.5135596,-0.5125694,-0.5007503,-0.48890024,-0.4820006,-0.49187052,-0.5007503,-0.50566983,-0.50864005,-0.50665987,-0.5007503,-0.49187052,-0.48890024,-0.49088043,-0.5007503,-0.5096302,-0.5096302,-0.50368965,-0.4997602,-0.50368965,-0.50864005,-0.50566983,-0.49877018,-0.4948098,-0.49877018,-0.50174046,-0.4997602,-0.4938507,-0.48989034,-0.49778008,-0.50665987,-0.50566983,-0.4957999,-0.48593003,-0.48593003,-0.49187052,-0.49286056,-0.48989034,-0.48692006,-0.48989034,-0.49679,-0.49679,-0.49088043,-0.4820006,-0.4820006,-0.48890024,-0.49187052,-0.48692006,-0.48101056,-0.47804028,-0.47804028,-0.4770502,-0.4741109,-0.47213072,-0.4800204,-0.48692006,-0.48692006,-0.47903037,-0.47015053,-0.4681704,-0.4691605,-0.46622115,-0.46028066,-0.4573413,-0.46028066,-0.4691605,-0.47213072,-0.47114062,-0.4741109,-0.47903037,-0.48398077,-0.48101056,-0.47015053,-0.45929056,-0.45830047,-0.46127075,-0.46424103,-0.46325088,-0.45830047,-0.45830047,-0.46028066,-0.45929056,-0.45830047,-0.46028066,-0.46622115,-0.47114062,-0.4681704,-0.46028066,-0.4523909,-0.45041078,-0.44942063,-0.44450122,-0.4346313,-0.42872173,-0.42773163,-0.4257515,-0.41687167,-0.40799183,-0.40208232,-0.40700173,-0.41390145,-0.40700173,-0.38630283,-0.35963243,-0.33596325,-0.31427425,-0.29552454,-0.29057413,-0.2974738,-0.322164,-0.36062253,-0.39614183,-0.42872173,-0.4573413,-0.4800204,-0.48989034,-0.48299068,-0.47213072,-0.46325088,-0.46523106,-0.4741109,-0.47804028,-0.47609103,-0.47903037,-0.48497087,-0.48890024,-0.48593003,-0.4800204,-0.47510093,-0.4741109,-0.47015053,-0.46028066,-0.45635128,-0.46127075,-0.44054085,-0.33203387,-0.07745862,0.3142432,0.71584594,0.95857096,0.9220618,0.5905384,0.089277625,-0.40307236,-0.74641484,-0.90529233,-0.92305195,-0.8707632,-0.8026639,-0.72964525,-0.6438174,-0.55501926,-0.48398077,-0.4523909,-0.46028066,-0.4770502,-0.4770502,-0.46424103,-0.44648135,-0.43859166,-0.44054085,-0.43562138,-0.4247614,-0.4119522,-0.40700173,-0.409972,-0.409972,-0.4060117,-0.39812195,-0.3902322,-0.38234246,-0.37643296,-0.37247258,-0.37247258,-0.37445277,-0.3675531,-0.34979355,-0.33596325,-0.32906365,-0.33497316,-0.343853,-0.3409137,-0.32609338,-0.31328416,-0.30734372,-0.30734372,-0.30440438,-0.29651463,-0.28859395,-0.2826844,-0.27776498,-0.26690495,-0.2530747,-0.24320483,-0.24026549,-0.24125558,-0.23531508,-0.22940552,-0.22349596,-0.22250593,-0.22544521,-0.22052568,-0.21854556,-0.22250593,-0.23336583,-0.24125558,-0.24224567,-0.24419492,-0.2530747,-0.2747947,-0.2994539,-0.31427425,-0.32411325,-0.33299303,-0.3478133,-0.36656308,-0.3833326,-0.40208232,-0.4267416,-0.4523909,-0.4681704,-0.4691605,-0.46226078,-0.46028066,-0.4741109,-0.49286056,-0.51062024,-0.5214492,-0.5332993,-0.5461395,-0.5530391,-0.54808867,-0.53725964,-0.52639973,-0.52639973,-0.52936995,-0.52936995,-0.5234294,-0.5195,-0.5195,-0.5165298,-0.5135596,-0.50566983,-0.5007503,-0.5007503,-0.49778008,-0.48593003,-0.47609103,-0.47510093,-0.48299068,-0.49088043,-0.4820006,-0.46226078,-0.44747144,-0.44648135,-0.4543711,-0.45929056,-0.45635128,-0.45140088,-0.453381,-0.4543711,-0.4553612,-0.45140088,-0.44846153,-0.44942063,-0.44942063,-0.44648135,-0.44450122,-0.453381,-0.46523106,-0.4741109,-0.47015053,-0.46028066,-0.453381,-0.4553612,-0.46325088,-0.46523106,-0.46523106,-0.46622115,-0.4691605,-0.4731208,-0.47015053,-0.46028066,-0.453381,-0.45140088,-0.45140088,-0.45041078,-0.45041078,-0.453381,-0.45830047,-0.46028066,-0.45041078,-0.44054085,-0.4376015,-0.44846153,-0.46127075,-0.46325088,-0.46028066,-0.4543711,-0.453381,-0.4543711,-0.44846153,-0.43859166,-0.4336412,-0.43859166,-0.44549125,-0.44450122,-0.43562138,-0.42971182,-0.42773163,-0.4257515,-0.42182213,-0.42278123,-0.4326511,-0.44846153,-0.46325088,-0.46622115,-0.4523909,-0.43562138,-0.4267416,-0.42083198,-0.4198419,-0.42278123,-0.4307019,-0.43958175,-0.44252104,-0.43562138,-0.42971182,-0.4267416,-0.4326511,-0.44252104,-0.44351113,-0.43661147,-0.42971182,-0.4257515,-0.4257515,-0.41885185,-0.4050216,-0.38924217,-0.3793723,-0.37544286,-0.37445277,-0.37544286,-0.37247258,-0.37049246,-0.36557293,-0.34979355,-0.32807356,-0.30833375,-0.29651463,-0.29156423,-0.29156423,-0.30932385,-0.3409137,-0.3843227,-0.4267416,-0.45041078,-0.4573413,-0.4573413,-0.4553612,-0.45041078,-0.43859166,-0.4307019,-0.43166107,-0.44747144,-0.46127075,-0.46325088,-0.45929056,-0.45635128,-0.46226078,-0.4681704,-0.46325088,-0.44351113,-0.42182213,-0.41390145,-0.41588157,-0.4060117,-0.33596325,-0.15245742,0.16328645,0.5283797,0.805634,0.849043,0.60334766,0.16130614,-0.3034143,-0.63985705,-0.8076143,-0.84904313,-0.825374,-0.7750344,-0.70399594,-0.6151978,-0.53131914,-0.47213072,-0.44648135,-0.43859166,-0.44351113,-0.44846153,-0.45140088,-0.44450122,-0.4307019,-0.41687167,-0.4109621,-0.4129423,-0.41588157,-0.4119522,-0.40307236,-0.39812195,-0.40109223,-0.40307236,-0.39713186,-0.3843227,-0.37544286,-0.37346268,-0.37148255,-0.36557293,-0.35963243,-0.36062253,-0.36656308,-0.36656308,-0.35471296,-0.33794343,-0.33005375,-0.33398312,-0.33299303,-0.32708347,-0.31427425,-0.30734372,-0.31031388,-0.31328416,-0.30734372,-0.2945345,-0.28466457,-0.2807042,-0.2807042,-0.27578473,-0.27182442,-0.26591486,-0.2590152,-0.24815524,-0.23138571,-0.22151577,-0.22448605,-0.23729521,-0.23927546,-0.23432505,-0.23138571,-0.23927546,-0.2590152,-0.27677482,-0.28169435,-0.28664476,-0.29846388,-0.3211739,-0.3418728,-0.34979355,-0.35669315,-0.36950237,-0.39419258,-0.42278123,-0.44153094,-0.4543711,-0.4681704,-0.4820006,-0.4948098,-0.49877018,-0.49679,-0.50174046,-0.5145496,-0.52738976,-0.5303291,-0.5332993,-0.53725964,-0.54808867,-0.5560094,-0.5530391,-0.5392089,-0.5254096,-0.52243936,-0.52639973,-0.52738976,-0.52639973,-0.5244195,-0.5195,-0.5165298,-0.5116103,-0.50864005,-0.51062024,-0.5125694,-0.50864005,-0.4957999,-0.48497087,-0.48497087,-0.4938507,-0.4997602,-0.49286056,-0.4800204,-0.4741109,-0.4770502,-0.48593003,-0.48593003,-0.48101056,-0.47903037,-0.48299068,-0.48692006,-0.48398077,-0.4820006,-0.48497087,-0.4938507,-0.50368965,-0.50566983,-0.5007503,-0.5007503,-0.50665987,-0.50864005,-0.5046797,-0.49679,-0.4938507,-0.49679,-0.5027305,-0.50665987,-0.5116103,-0.5165298,-0.5254096,-0.5303291,-0.5244195,-0.5165298,-0.5145496,-0.51751983,-0.51751983,-0.51062024,-0.50174046,-0.49877018,-0.50566983,-0.5135596,-0.5125694,-0.50566983,-0.50174046,-0.5046797,-0.5096302,-0.5096302,-0.50368965,-0.49778008,-0.4957999,-0.4957999,-0.49187052,-0.48497087,-0.48398077,-0.48989034,-0.49088043,-0.48299068,-0.4731208,-0.4671803,-0.47015053,-0.47804028,-0.4800204,-0.47903037,-0.47804028,-0.4820006,-0.48299068,-0.47609103,-0.4671803,-0.46424103,-0.46622115,-0.4691605,-0.46325088,-0.453381,-0.45041078,-0.453381,-0.4543711,-0.44942063,-0.44450122,-0.44252104,-0.44450122,-0.44351113,-0.43166107,-0.41687167,-0.4060117,-0.40208232,-0.39812195,-0.38924217,-0.38135242,-0.37643296,-0.36656308,-0.34979355,-0.32609338,-0.31031388,-0.31229407,-0.33497316,-0.3675531,-0.39812195,-0.43166107,-0.46622115,-0.4948098,-0.50864005,-0.5046797,-0.49088043,-0.48101056,-0.4770502,-0.47903037,-0.47903037,-0.48101056,-0.48497087,-0.4938507,-0.49778008,-0.4957999,-0.49286056,-0.4938507,-0.49679,-0.49187052,-0.47804028,-0.47015053,-0.46622115,-0.43859166,-0.32411325,-0.072508216,0.29747367,0.66157687,0.8727124,0.8164631,0.5026994,0.05180919,-0.38630283,-0.69118667,-0.84214354,-0.8707632,-0.8302935,-0.76417446,-0.68326604,-0.59941834,-0.52738976,-0.48593003,-0.48101056,-0.49088043,-0.49679,-0.48791015,-0.47213072,-0.46424103,-0.46523106,-0.46523106,-0.4543711,-0.44054085,-0.43562138,-0.4336412,-0.4326511,-0.4247614,-0.4129423,-0.4109621,-0.4198419,-0.4257515,-0.42182213,-0.4119522,-0.40307236,-0.40307236,-0.4050216,-0.40208232,-0.3951826,-0.39419258,-0.39419258,-0.3912223,-0.3793723,-0.3645829,-0.35768324,-0.35867333,-0.36062253,-0.35471296,-0.3428629,-0.33398312,-0.33203387,-0.33104378,-0.32510328,-0.31427425,-0.30833375,-0.30635363,-0.300444,-0.29057413,-0.2797141,-0.2738046,-0.2728145,-0.2738046,-0.26789504,-0.26393467,-0.26984423,-0.2826844,-0.29255426,-0.29552454,-0.29552454,-0.30635363,-0.32510328,-0.3428629,-0.35471296,-0.36557293,-0.38234246,-0.40700173,-0.42872173,-0.44153094,-0.44942063,-0.46325088,-0.4820006,-0.5027305,-0.5135596,-0.51851,-0.5254096,-0.5352795,-0.5471295,-0.5540292,-0.5609288,-0.57178885,-0.57769835,-0.5757182,-0.5648892,-0.5540292,-0.5540292,-0.56584835,-0.5757182,-0.56881857,-0.5540292,-0.5421791,-0.53626955,-0.53428936,-0.5332993,-0.52936995,-0.52837986,-0.5303291,-0.5303291,-0.52243936,-0.5155397,-0.5145496,-0.51751983,-0.51751983,-0.51062024,-0.5027305,-0.50174046,-0.5027305,-0.49877018,-0.48791015,-0.47804028,-0.48101056,-0.4948098,-0.50566983,-0.5007503,-0.48791015,-0.4770502,-0.48299068,-0.49088043,-0.49187052,-0.49187052,-0.49088043,-0.4948098,-0.5027305,-0.50368965,-0.49778008,-0.4938507,-0.49187052,-0.49286056,-0.48989034,-0.48989034,-0.4938507,-0.50368965,-0.51062024,-0.50864005,-0.50174046,-0.49877018,-0.49877018,-0.5007503,-0.5007503,-0.4997602,-0.5007503,-0.50764996,-0.5135596,-0.5155397,-0.5165298,-0.5145496,-0.50864005,-0.4997602,-0.48593003,-0.47903037,-0.48299068,-0.49286056,-0.49877018,-0.49679,-0.49088043,-0.48890024,-0.4948098,-0.5007503,-0.5007503,-0.4997602,-0.50174046,-0.50368965,-0.5007503,-0.49088043,-0.48101056,-0.47903037,-0.48497087,-0.49088043,-0.48989034,-0.48791015,-0.49286056,-0.49679,-0.4957999,-0.48497087,-0.47804028,-0.4800204,-0.49187052,-0.4997602,-0.4948098,-0.4820006,-0.47609103,-0.4731208,-0.47015053,-0.46424103,-0.4553612,-0.44549125,-0.43859166,-0.4307019,-0.41786176,-0.4119522,-0.4129423,-0.41588157,-0.4109621,-0.39320248,-0.37049246,-0.3478133,-0.32807356,-0.3152334,-0.3034143,-0.3034143,-0.32411325,-0.3626027,-0.40700173,-0.44549125,-0.4741109,-0.48890024,-0.49877018,-0.4997602,-0.49679,-0.4957999,-0.49877018,-0.50368965,-0.5046797,-0.5007503,-0.4957999,-0.49679,-0.4997602,-0.4997602,-0.49286056,-0.48890024,-0.49187052,-0.49286056,-0.48890024,-0.4820006,-0.47804028,-0.46127075,-0.37148255,-0.1484971,0.21854544,0.6250676,0.9013319,0.91120183,0.62899697,0.16427636,-0.32018387,-0.68425614,-0.88159215,-0.9388314,-0.90034187,-0.8243839,-0.7336056,-0.63787687,-0.5560094,-0.49877018,-0.47609103,-0.48497087,-0.5007503,-0.5046797,-0.4938507,-0.47804028,-0.4731208,-0.4731208,-0.47015053,-0.46127075,-0.45041078,-0.44648135,-0.44942063,-0.44846153,-0.44054085,-0.43661147,-0.4376015,-0.44450122,-0.44549125,-0.4346313,-0.42377132,-0.42083198,-0.4247614,-0.4257515,-0.41588157,-0.40208232,-0.3951826,-0.39812195,-0.39911205,-0.39221245,-0.377423,-0.3675531,-0.3635928,-0.36161262,-0.35471296,-0.343853,-0.33992362,-0.3369534,-0.33299303,-0.322164,-0.30932385,-0.3034143,-0.3034143,-0.3014341,-0.29354435,-0.28466457,-0.2807042,-0.28169435,-0.28367448,-0.2797141,-0.27677482,-0.28367448,-0.2945345,-0.3053944,-0.30932385,-0.31229407,-0.32411325,-0.3448431,-0.3675531,-0.3833326,-0.39713186,-0.409972,-0.4247614,-0.43859166,-0.44549125,-0.45635128,-0.47510093,-0.4957999,-0.5165298,-0.52936995,-0.5401989,-0.5540292,-0.56584835,-0.57079875,-0.5668384,-0.5609288,-0.5668384,-0.5806686,-0.5875683,-0.5816587,-0.57277894,-0.57079875,-0.5747591,-0.5806686,-0.5757182,-0.56584835,-0.5589487,-0.5589487,-0.5589487,-0.55204904,-0.54808867,-0.55006886,-0.55204904,-0.55204904,-0.5411891,-0.5254096,-0.5165298,-0.5135596,-0.5145496,-0.51062024,-0.50764996,-0.50864005,-0.5096302,-0.50665987,-0.5007503,-0.4938507,-0.49778008,-0.5046797,-0.5046797,-0.49679,-0.48593003,-0.48299068,-0.48593003,-0.49088043,-0.48890024,-0.48497087,-0.48593003,-0.48989034,-0.49286056,-0.49088043,-0.48989034,-0.49778008,-0.50764996,-0.5116103,-0.50764996,-0.4997602,-0.4957999,-0.49286056,-0.48791015,-0.4770502,-0.47213072,-0.4770502,-0.48398077,-0.49286056,-0.4948098,-0.4938507,-0.4997602,-0.50566983,-0.5027305,-0.49286056,-0.48398077,-0.48593003,-0.4938507,-0.4997602,-0.4957999,-0.49088043,-0.48989034,-0.49286056,-0.4948098,-0.48791015,-0.48101056,-0.48299068,-0.48989034,-0.49679,-0.4938507,-0.48593003,-0.48101056,-0.48101056,-0.48398077,-0.48299068,-0.4800204,-0.4820006,-0.48398077,-0.49088043,-0.48989034,-0.48890024,-0.49286056,-0.4938507,-0.4938507,-0.48890024,-0.4820006,-0.48299068,-0.48497087,-0.48398077,-0.47804028,-0.4691605,-0.46622115,-0.46523106,-0.46325088,-0.45140088,-0.4346313,-0.4198419,-0.4109621,-0.40700173,-0.4050216,-0.40208232,-0.4050216,-0.40010214,-0.38825208,-0.36557293,-0.33992362,-0.31919372,-0.31031388,-0.31031388,-0.3172136,-0.3409137,-0.3833326,-0.42872173,-0.46325088,-0.48299068,-0.48791015,-0.49088043,-0.4948098,-0.4938507,-0.48593003,-0.4820006,-0.48890024,-0.5007503,-0.50665987,-0.5027305,-0.49088043,-0.48791015,-0.48593003,-0.48101056,-0.47510093,-0.47015053,-0.47114062,-0.47903037,-0.48398077,-0.4671803,-0.40799183,-0.2590152,0.024179697,0.410962,0.7750344,0.9516405,0.8302934,0.4366113,-0.06956893,-0.51062024,-0.7839142,-0.8954224,-0.8944323,-0.83917326,-0.76516455,-0.67933667,-0.59644806,-0.52639973,-0.4820006,-0.45929056,-0.4543711,-0.46226078,-0.47015053,-0.46622115,-0.4543711,-0.44054085,-0.43166107,-0.42773163,-0.4247614,-0.41588157,-0.409972,-0.41489148,-0.42278123,-0.42773163,-0.42182213,-0.4060117,-0.39419258,-0.38924217,-0.38630283,-0.38135242,-0.37643296,-0.37643296,-0.37544286,-0.37346268,-0.36656308,-0.35963243,-0.36161262,-0.36656308,-0.3645829,-0.35174274,-0.3369534,-0.32807356,-0.3211739,-0.31820363,-0.31229407,-0.30440438,-0.3014341,-0.29651463,-0.28664476,-0.26984423,-0.2580251,-0.2580251,-0.26690495,-0.2738046,-0.27083433,-0.26294458,-0.25604498,-0.2540648,-0.2540648,-0.25208467,-0.25703508,-0.27083433,-0.28565466,-0.2945345,-0.2994539,-0.3053944,-0.32315403,-0.343853,-0.35867333,-0.3645829,-0.36851227,-0.3843227,-0.4060117,-0.4267416,-0.44054085,-0.4543711,-0.4741109,-0.49877018,-0.5165298,-0.5214492,-0.5234294,-0.52738976,-0.53824973,-0.54808867,-0.55204904,-0.55696845,-0.5638991,-0.57079875,-0.5747591,-0.5648892,-0.5530391,-0.55006886,-0.55105895,-0.55105895,-0.5461395,-0.5401989,-0.5392089,-0.5401989,-0.53626955,-0.52639973,-0.51751983,-0.5145496,-0.5135596,-0.50764996,-0.49877018,-0.49088043,-0.4938507,-0.5027305,-0.50368965,-0.49679,-0.48890024,-0.48692006,-0.49286056,-0.49679,-0.4938507,-0.48692006,-0.48593003,-0.48890024,-0.49088043,-0.48791015,-0.48398077,-0.48497087,-0.49088043,-0.49877018,-0.5027305,-0.5007503,-0.4997602,-0.4948098,-0.48593003,-0.4800204,-0.4820006,-0.49187052,-0.50174046,-0.49877018,-0.48890024,-0.48101056,-0.48890024,-0.5046797,-0.50566983,-0.4997602,-0.49286056,-0.49187052,-0.4997602,-0.50174046,-0.49286056,-0.48497087,-0.48497087,-0.49187052,-0.49286056,-0.48593003,-0.47804028,-0.4800204,-0.48989034,-0.49286056,-0.48890024,-0.48398077,-0.48497087,-0.49088043,-0.48989034,-0.48791015,-0.4800204,-0.4820006,-0.48791015,-0.48593003,-0.48101056,-0.47213072,-0.47213072,-0.4770502,-0.4820006,-0.48101056,-0.47609103,-0.4741109,-0.4731208,-0.47015053,-0.46523106,-0.46226078,-0.46424103,-0.46325088,-0.4553612,-0.44450122,-0.4346313,-0.42872173,-0.4247614,-0.41885185,-0.4119522,-0.4129423,-0.42278123,-0.42872173,-0.42083198,-0.40208232,-0.3793723,-0.35963243,-0.33794343,-0.3211739,-0.3152334,-0.32411325,-0.36062253,-0.40898198,-0.44942063,-0.47804028,-0.4948098,-0.50174046,-0.50368965,-0.4957999,-0.48593003,-0.4820006,-0.48593003,-0.4938507,-0.4957999,-0.48989034,-0.48497087,-0.48692006,-0.4938507,-0.4948098,-0.48791015,-0.47903037,-0.48101056,-0.48299068,-0.48101056,-0.4820006,-0.47213072,-0.41786176,-0.26492482,0.032069325,0.41885173,0.7533144,0.8835722,0.7355548,0.35864222,-0.09917861,-0.4948098,-0.74839497,-0.85990316,-0.8618833,-0.8066243,-0.7336056,-0.6566266,-0.584598,-0.52738976,-0.48989034,-0.4770502,-0.48398077,-0.49187052,-0.48593003,-0.46424103,-0.44846153,-0.44351113,-0.45041078,-0.453381,-0.44351113,-0.42872173,-0.4198419,-0.42377132,-0.42377132,-0.41786176,-0.4109621,-0.40700173,-0.40799183,-0.409972,-0.40799183,-0.40208232,-0.39812195,-0.39419258,-0.38234246,-0.37049246,-0.3645829,-0.3635928,-0.3645829,-0.35768324,-0.34682328,-0.3418728,-0.3488034,-0.35570306,-0.35372293,-0.3409137,-0.32411325,-0.3162235,-0.3172136,-0.3162235,-0.30833375,-0.2994539,-0.29354435,-0.29156423,-0.28664476,-0.27776498,-0.26690495,-0.26591486,-0.26888514,-0.26591486,-0.26195455,-0.26096445,-0.27083433,-0.29057413,-0.30833375,-0.3152334,-0.322164,-0.33497316,-0.35372293,-0.36656308,-0.37346268,-0.3833326,-0.40307236,-0.4257515,-0.44549125,-0.4573413,-0.46622115,-0.48101056,-0.49778008,-0.50864005,-0.5125694,-0.5204901,-0.53824973,-0.55696845,-0.5648892,-0.5589487,-0.55105895,-0.5560094,-0.56881857,-0.57967854,-0.57967854,-0.57178885,-0.5698086,-0.573769,-0.5757182,-0.57277894,-0.5638991,-0.5579586,-0.55696845,-0.5540292,-0.55006886,-0.5441593,-0.54316926,-0.54316926,-0.53824973,-0.53230923,-0.52738976,-0.52738976,-0.52936995,-0.5254096,-0.5165298,-0.5116103,-0.5145496,-0.5204901,-0.5145496,-0.50368965,-0.49679,-0.49679,-0.50665987,-0.5135596,-0.5125694,-0.51062024,-0.51062024,-0.5155397,-0.5116103,-0.50566983,-0.50368965,-0.50764996,-0.5116103,-0.51062024,-0.50368965,-0.49877018,-0.50368965,-0.5125694,-0.5135596,-0.50665987,-0.49877018,-0.4948098,-0.4948098,-0.49286056,-0.48890024,-0.48989034,-0.4938507,-0.49877018,-0.4938507,-0.49187052,-0.4938507,-0.5046797,-0.5135596,-0.5116103,-0.5007503,-0.49187052,-0.4957999,-0.5046797,-0.50864005,-0.50764996,-0.5046797,-0.5046797,-0.5046797,-0.49877018,-0.48692006,-0.4800204,-0.4820006,-0.48692006,-0.48791015,-0.4820006,-0.4770502,-0.47903037,-0.48497087,-0.48989034,-0.48890024,-0.48791015,-0.48890024,-0.49088043,-0.49088043,-0.48692006,-0.48398077,-0.48593003,-0.48692006,-0.48101056,-0.47213072,-0.46622115,-0.47015053,-0.4770502,-0.47903037,-0.4741109,-0.47015053,-0.4691605,-0.4681704,-0.46325088,-0.44648135,-0.4307019,-0.42083198,-0.41588157,-0.4119522,-0.40898198,-0.4129423,-0.4257515,-0.43661147,-0.4336412,-0.41489148,-0.38630283,-0.36062253,-0.3418728,-0.33104378,-0.32906365,-0.343853,-0.38036233,-0.4247614,-0.46325088,-0.48890024,-0.5046797,-0.5145496,-0.5195,-0.5165298,-0.50864005,-0.50566983,-0.51062024,-0.51751983,-0.5204901,-0.5195,-0.5195,-0.5244195,-0.52837986,-0.52243936,-0.5116103,-0.5027305,-0.50368965,-0.50566983,-0.50864005,-0.50368965,-0.47903037,-0.39320248,-0.1919061,0.14258742,0.531319,0.8302934,0.8964124,0.6822758,0.2757846,-0.18698663,-0.5609288,-0.79675436,-0.8934423,-0.88159215,-0.814514,-0.72274566,-0.63787687,-0.57178885,-0.52936995,-0.51062024,-0.51062024,-0.5214492,-0.52738976,-0.5195,-0.50566983,-0.49187052,-0.48692006,-0.48791015,-0.4800204,-0.4681704,-0.45635128,-0.4543711,-0.453381,-0.44846153,-0.44153094,-0.43859166,-0.44153094,-0.44942063,-0.45041078,-0.44153094,-0.4326511,-0.43166107,-0.4336412,-0.4346313,-0.4307019,-0.4267416,-0.42278123,-0.41786176,-0.40898198,-0.39713186,-0.39221245,-0.39614183,-0.40010214,-0.3951826,-0.38531274,-0.37346268,-0.3645829,-0.36062253,-0.34979355,-0.3369534,-0.32807356,-0.32807356,-0.32906365,-0.32018387,-0.31031388,-0.30440438,-0.30635363,-0.3172136,-0.32510328,-0.32609338,-0.32906365,-0.33992362,-0.35471296,-0.36656308,-0.37544286,-0.38234246,-0.3951826,-0.409972,-0.42377132,-0.43166107,-0.44153094,-0.45635128,-0.4731208,-0.48791015,-0.49877018,-0.50764996,-0.52243936,-0.53428936,-0.5411891,-0.5461395,-0.5560094,-0.5698086,-0.5855881,-0.5875683,-0.5806686,-0.57769835,-0.584598,-0.5944679,-0.59347785,-0.58657813,-0.57769835,-0.5757182,-0.5816587,-0.5816587,-0.57277894,-0.5648892,-0.5648892,-0.5678285,-0.5698086,-0.56584835,-0.5638991,-0.5648892,-0.5609288,-0.55105895,-0.53824973,-0.5332993,-0.54316926,-0.5560094,-0.5599388,-0.5540292,-0.5441593,-0.5411891,-0.5401989,-0.53230923,-0.5254096,-0.52639973,-0.5332993,-0.5421791,-0.5411891,-0.53230923,-0.5254096,-0.5254096,-0.5303291,-0.52837986,-0.5244195,-0.5244195,-0.5303291,-0.53725964,-0.5332993,-0.52243936,-0.5135596,-0.51751983,-0.52738976,-0.5352795,-0.53626955,-0.5303291,-0.52837986,-0.52639973,-0.5244195,-0.52243936,-0.5214492,-0.5244195,-0.5254096,-0.5195,-0.5125694,-0.5116103,-0.51751983,-0.5204901,-0.5145496,-0.50764996,-0.50665987,-0.5096302,-0.5165298,-0.5145496,-0.5096302,-0.51062024,-0.5195,-0.5214492,-0.5096302,-0.49088043,-0.4820006,-0.48791015,-0.50566983,-0.5155397,-0.5165298,-0.5096302,-0.50665987,-0.50764996,-0.5046797,-0.5027305,-0.5046797,-0.5096302,-0.5125694,-0.50368965,-0.49187052,-0.48692006,-0.4938507,-0.5046797,-0.5046797,-0.49778008,-0.48989034,-0.49088043,-0.4957999,-0.49877018,-0.4948098,-0.48989034,-0.49187052,-0.49187052,-0.48890024,-0.48299068,-0.47903037,-0.48299068,-0.48692006,-0.48497087,-0.4770502,-0.4681704,-0.46424103,-0.46127075,-0.44942063,-0.4326511,-0.42083198,-0.41588157,-0.41687167,-0.41489148,-0.409972,-0.40307236,-0.40208232,-0.40010214,-0.387262,-0.3635928,-0.3409137,-0.32510328,-0.322164,-0.32411325,-0.33794343,-0.36950237,-0.41687167,-0.4691605,-0.5046797,-0.5155397,-0.5116103,-0.5027305,-0.4948098,-0.48989034,-0.48989034,-0.4938507,-0.50368965,-0.50864005,-0.50174046,-0.49088043,-0.48791015,-0.4938507,-0.5007503,-0.50174046,-0.4948098,-0.48791015,-0.48593003,-0.49187052,-0.48593003,-0.44252104,-0.3172136,-0.06461847,0.31031382,0.6970962,0.93289065,0.88948166,0.5530391,0.057718754,-0.41489148,-0.7355858,-0.8875327,-0.9200817,-0.88357234,-0.81154376,-0.7148559,-0.6201173,-0.5490788,-0.51851,-0.5116103,-0.5155397,-0.51751983,-0.5165298,-0.5116103,-0.4997602,-0.4820006,-0.46523106,-0.4573413,-0.4553612,-0.45140088,-0.44549125,-0.44351113,-0.44942063,-0.4543711,-0.45140088,-0.44351113,-0.4336412,-0.42773163,-0.4267416,-0.4247614,-0.42083198,-0.41687167,-0.41489148,-0.409972,-0.39911205,-0.38924217,-0.38924217,-0.39614183,-0.4050216,-0.40010214,-0.38924217,-0.37643296,-0.37148255,-0.36851227,-0.35768324,-0.3428629,-0.33299303,-0.32807356,-0.33005375,-0.32609338,-0.3152334,-0.30932385,-0.30932385,-0.31031388,-0.3053944,-0.2974738,-0.29255426,-0.29552454,-0.3034143,-0.30833375,-0.30932385,-0.3162235,-0.33203387,-0.34979355,-0.3635928,-0.37247258,-0.38234246,-0.39614183,-0.4129423,-0.42377132,-0.4307019,-0.44153094,-0.46127075,-0.4820006,-0.49778008,-0.5096302,-0.5214492,-0.53428936,-0.5461395,-0.5490788,-0.54808867,-0.55105895,-0.55501926,-0.5638991,-0.56881857,-0.5678285,-0.573769,-0.5836389,-0.5885584,-0.584598,-0.5767083,-0.5747591,-0.5747591,-0.57178885,-0.5589487,-0.5441593,-0.5352795,-0.5411891,-0.5490788,-0.5471295,-0.53824973,-0.52837986,-0.5244195,-0.52243936,-0.5155397,-0.50665987,-0.50368965,-0.50566983,-0.50764996,-0.50174046,-0.4948098,-0.49286056,-0.4938507,-0.4997602,-0.49679,-0.49187052,-0.49187052,-0.49778008,-0.50174046,-0.49679,-0.48890024,-0.48791015,-0.49286056,-0.4997602,-0.50174046,-0.4997602,-0.49778008,-0.5007503,-0.5027305,-0.5007503,-0.5007503,-0.5046797,-0.5125694,-0.5145496,-0.50864005,-0.5007503,-0.50174046,-0.50864005,-0.5135596,-0.51062024,-0.50566983,-0.50665987,-0.5135596,-0.5214492,-0.5195,-0.5116103,-0.50764996,-0.50864005,-0.50764996,-0.5007503,-0.49286056,-0.48890024,-0.49286056,-0.50368965,-0.50764996,-0.50665987,-0.5027305,-0.49877018,-0.4938507,-0.48497087,-0.48398077,-0.48890024,-0.49778008,-0.50566983,-0.5007503,-0.4948098,-0.4957999,-0.4957999,-0.49877018,-0.49187052,-0.4800204,-0.47804028,-0.48398077,-0.49187052,-0.48890024,-0.48299068,-0.47804028,-0.4800204,-0.48497087,-0.48692006,-0.48101056,-0.47804028,-0.4800204,-0.48398077,-0.48299068,-0.48398077,-0.48101056,-0.47903037,-0.47609103,-0.46622115,-0.45929056,-0.45635128,-0.45635128,-0.45140088,-0.43562138,-0.41885185,-0.40898198,-0.40898198,-0.4109621,-0.40799183,-0.39911205,-0.38630283,-0.36656308,-0.34583318,-0.32018387,-0.3053944,-0.3172136,-0.35273284,-0.40010214,-0.43859166,-0.47015053,-0.49187052,-0.50368965,-0.5135596,-0.5116103,-0.50764996,-0.50566983,-0.50864005,-0.5116103,-0.51062024,-0.50864005,-0.51062024,-0.51751983,-0.5214492,-0.51751983,-0.51062024,-0.50864005,-0.5125694,-0.5145496,-0.50665987,-0.4997602,-0.48890024,-0.43661147,-0.28565466,0.01628983,0.42377114,0.7868842,0.94573104,0.80068374,0.39122224,-0.12482798,-0.5757182,-0.8520134,-0.95362073,-0.93193173,-0.85891306,-0.7829242,-0.70399594,-0.6240776,-0.55204904,-0.50174046,-0.48497087,-0.49187052,-0.4997602,-0.49187052,-0.4731208,-0.46028066,-0.4573413,-0.46226078,-0.46226078,-0.4543711,-0.44747144,-0.44450122,-0.44450122,-0.44054085,-0.43562138,-0.43166107,-0.43166107,-0.4307019,-0.42182213,-0.41489148,-0.4109621,-0.4119522,-0.41390145,-0.4109621,-0.4050216,-0.40010214,-0.39614183,-0.3912223,-0.3833326,-0.3783822,-0.38036233,-0.3843227,-0.3833326,-0.37049246,-0.35273284,-0.33992362,-0.33299303,-0.32807356,-0.31820363,-0.30635363,-0.2974738,-0.2974738,-0.2994539,-0.29354435,-0.2826844,-0.27677482,-0.278755,-0.28466457,-0.28664476,-0.28466457,-0.2826844,-0.28466457,-0.29354435,-0.29846388,-0.3053944,-0.31820363,-0.3369534,-0.35669315,-0.37148255,-0.38630283,-0.40109223,-0.4198419,-0.43958175,-0.4523909,-0.46523106,-0.4800204,-0.4948098,-0.50665987,-0.5096302,-0.5135596,-0.5214492,-0.53626955,-0.55105895,-0.55696845,-0.562909,-0.5698086,-0.57769835,-0.5836389,-0.57769835,-0.5668384,-0.5668384,-0.573769,-0.5816587,-0.5786885,-0.5678285,-0.5579586,-0.5540292,-0.55204904,-0.5451494,-0.53824973,-0.53824973,-0.5421791,-0.54316926,-0.53230923,-0.51851,-0.51062024,-0.5155397,-0.52243936,-0.5214492,-0.5195,-0.5145496,-0.5135596,-0.5046797,-0.49286056,-0.48398077,-0.48398077,-0.4938507,-0.4997602,-0.49679,-0.48890024,-0.48890024,-0.4957999,-0.5007503,-0.4957999,-0.48791015,-0.48989034,-0.4997602,-0.5096302,-0.50864005,-0.49877018,-0.49286056,-0.49679,-0.5027305,-0.5007503,-0.49286056,-0.48791015,-0.4938507,-0.5007503,-0.5027305,-0.4997602,-0.5007503,-0.5027305,-0.50665987,-0.50665987,-0.50174046,-0.5007503,-0.50368965,-0.50566983,-0.49778008,-0.49286056,-0.4948098,-0.5027305,-0.5096302,-0.50368965,-0.49187052,-0.48692006,-0.48890024,-0.4938507,-0.4948098,-0.49187052,-0.49187052,-0.49088043,-0.48989034,-0.4820006,-0.4770502,-0.4820006,-0.49088043,-0.49778008,-0.4957999,-0.49187052,-0.49286056,-0.49286056,-0.48497087,-0.4681704,-0.45635128,-0.4553612,-0.46622115,-0.4770502,-0.4741109,-0.46424103,-0.45830047,-0.4573413,-0.45635128,-0.44846153,-0.4376015,-0.42773163,-0.42182213,-0.41687167,-0.4119522,-0.409972,-0.41489148,-0.41786176,-0.4109621,-0.387262,-0.35570306,-0.32609338,-0.31328416,-0.31031388,-0.31130403,-0.32510328,-0.35768324,-0.40406245,-0.453381,-0.48692006,-0.49778008,-0.4938507,-0.48989034,-0.48791015,-0.48692006,-0.48299068,-0.48398077,-0.4938507,-0.5046797,-0.5145496,-0.5165298,-0.5145496,-0.5096302,-0.50174046,-0.4938507,-0.48791015,-0.48299068,-0.47903037,-0.47609103,-0.4691605,-0.44054085,-0.35075265,-0.1376372,0.21164572,0.60532784,0.8786217,0.8875326,0.59644794,0.12284768,-0.35273284,-0.69118667,-0.85990316,-0.90232205,-0.86977303,-0.8046441,-0.7257159,-0.6408472,-0.5638991,-0.5096302,-0.47903037,-0.47114062,-0.47609103,-0.47903037,-0.47213072,-0.453381,-0.43958175,-0.43661147,-0.43958175,-0.4376015,-0.42773163,-0.4129423,-0.40799183,-0.4119522,-0.41390145,-0.40700173,-0.39614183,-0.39419258,-0.3951826,-0.39614183,-0.3902322,-0.3783822,-0.37148255,-0.37346268,-0.3783822,-0.37445277,-0.3675531,-0.36062253,-0.35471296,-0.34979355,-0.34583318,-0.33893353,-0.33299303,-0.33005375,-0.32018387,-0.31031388,-0.3024242,-0.3014341,-0.3024242,-0.29552454,-0.27776498,-0.26393467,-0.2600053,-0.26393467,-0.26591486,-0.2540648,-0.2382853,-0.22742534,-0.22841543,-0.2323758,-0.2323758,-0.23432505,-0.24320483,-0.25604498,-0.26984423,-0.2797141,-0.28466457,-0.2974738,-0.3162235,-0.33497316,-0.34979355,-0.3645829,-0.38531274,-0.4129423,-0.43562138,-0.44846153,-0.4573413,-0.4671803,-0.47903037,-0.48791015,-0.4948098,-0.5007503,-0.5195,-0.53824973,-0.55105895,-0.54808867,-0.5401989,-0.5352795,-0.5421791,-0.55204904,-0.55696845,-0.5589487,-0.5609288,-0.561919,-0.55696845,-0.5411891,-0.5254096,-0.51851,-0.51751983,-0.5195,-0.5145496,-0.50764996,-0.5046797,-0.50665987,-0.50665987,-0.5027305,-0.49778008,-0.4938507,-0.49286056,-0.48791015,-0.4741109,-0.46325088,-0.46325088,-0.4731208,-0.4820006,-0.48299068,-0.47804028,-0.47510093,-0.47609103,-0.47609103,-0.47213072,-0.47114062,-0.4741109,-0.47804028,-0.4770502,-0.46622115,-0.4573413,-0.45830047,-0.47114062,-0.47903037,-0.47903037,-0.47609103,-0.47804028,-0.48593003,-0.49088043,-0.48497087,-0.47609103,-0.4741109,-0.48101056,-0.48890024,-0.48989034,-0.48791015,-0.48989034,-0.49286056,-0.4938507,-0.48398077,-0.4691605,-0.46424103,-0.4671803,-0.4770502,-0.48101056,-0.4800204,-0.4820006,-0.4800204,-0.4741109,-0.46127075,-0.4523909,-0.4523909,-0.46226078,-0.47015053,-0.4691605,-0.46325088,-0.4573413,-0.45635128,-0.45830047,-0.45635128,-0.4553612,-0.46226078,-0.47114062,-0.47510093,-0.47114062,-0.46127075,-0.45635128,-0.4543711,-0.44846153,-0.43562138,-0.42377132,-0.41786176,-0.41489148,-0.4119522,-0.4060117,-0.39614183,-0.39419258,-0.39419258,-0.387262,-0.37049246,-0.3478133,-0.32510328,-0.31031388,-0.300444,-0.29354435,-0.3024242,-0.33203387,-0.37445277,-0.41687167,-0.45140088,-0.47015053,-0.4800204,-0.48593003,-0.48497087,-0.47510093,-0.4681704,-0.4681704,-0.4731208,-0.47903037,-0.4770502,-0.47114062,-0.4731208,-0.47213072,-0.4770502,-0.47804028,-0.4820006,-0.48791015,-0.48791015,-0.47804028,-0.46622115,-0.45041078,-0.4060117,-0.26690495,0.008369207,0.38528168,0.728655,0.8835722,0.7562846,0.38924205,-0.072508216,-0.4820006,-0.7493851,-0.8677929,-0.87469256,-0.8155041,-0.7306354,-0.6408472,-0.562909,-0.50665987,-0.47510093,-0.47114062,-0.48398077,-0.49286056,-0.49088043,-0.4741109,-0.4553612,-0.44549125,-0.44450122,-0.44252104,-0.4376015,-0.4307019,-0.42773163,-0.42773163,-0.4267416,-0.4198419,-0.41489148,-0.41786176,-0.42278123,-0.42278123,-0.4129423,-0.40406245,-0.40010214,-0.40109223,-0.39911205,-0.387262,-0.37346268,-0.37049246,-0.37643296,-0.3793723,-0.37445277,-0.36161262,-0.35174274,-0.3448431,-0.33992362,-0.3369534,-0.33299303,-0.33299303,-0.33203387,-0.32411325,-0.30932385,-0.29354435,-0.28958404,-0.29255426,-0.29156423,-0.28466457,-0.27776498,-0.27578473,-0.27677482,-0.278755,-0.2747947,-0.27083433,-0.278755,-0.29255426,-0.3034143,-0.30635363,-0.30734372,-0.31820363,-0.33596325,-0.35768324,-0.37445277,-0.387262,-0.40700173,-0.4257515,-0.43661147,-0.44351113,-0.44846153,-0.46127075,-0.48101056,-0.49778008,-0.50665987,-0.5145496,-0.52738976,-0.5401989,-0.5471295,-0.5421791,-0.53626955,-0.5401989,-0.55204904,-0.5599388,-0.5589487,-0.55696845,-0.5540292,-0.5530391,-0.54808867,-0.53626955,-0.5254096,-0.5234294,-0.52936995,-0.53230923,-0.5303291,-0.52639973,-0.52639973,-0.52738976,-0.5254096,-0.5195,-0.51062024,-0.50864005,-0.50665987,-0.50566983,-0.4997602,-0.49877018,-0.5027305,-0.50368965,-0.4957999,-0.4800204,-0.4671803,-0.46622115,-0.4741109,-0.4820006,-0.48497087,-0.48101056,-0.48593003,-0.49187052,-0.49088043,-0.48593003,-0.4820006,-0.48692006,-0.5007503,-0.5125694,-0.51062024,-0.50174046,-0.4948098,-0.49088043,-0.48890024,-0.48593003,-0.48299068,-0.48890024,-0.4957999,-0.49679,-0.48890024,-0.47903037,-0.47804028,-0.48497087,-0.49088043,-0.48791015,-0.48299068,-0.48299068,-0.48299068,-0.4820006,-0.4770502,-0.47609103,-0.4800204,-0.48791015,-0.49088043,-0.48398077,-0.47903037,-0.48299068,-0.48593003,-0.48398077,-0.47510093,-0.4681704,-0.4731208,-0.48101056,-0.48593003,-0.48398077,-0.48299068,-0.49187052,-0.49877018,-0.49778008,-0.48593003,-0.4731208,-0.4741109,-0.48299068,-0.48989034,-0.48791015,-0.48299068,-0.48593003,-0.48890024,-0.49088043,-0.48299068,-0.47015053,-0.46424103,-0.46226078,-0.46028066,-0.4523909,-0.43958175,-0.4326511,-0.42872173,-0.4247614,-0.41786176,-0.41489148,