-0.86250097,-0.8564371,-0.84834164,-0.84529436,-0.84631014,-0.8442786,-0.8331666,-0.82103884,-0.82002306,-0.82608694,-0.8321508,-0.8271027,-0.81799155,-0.81395924,-0.8169757,-0.8230704,-0.8220546,-0.8190073,-0.82103884,-0.8271027,-0.8291343,-0.8250712,-0.81799155,-0.81799155,-0.8250712,-0.83113503,-0.8271027,-0.8190073,-0.81599075,-0.8190073,-0.8230704,-0.8190073,-0.81395924,-0.81294346,-0.8169757,-0.8190073,-0.8119277,-0.80383223,-0.80284727,-0.80789536,-0.81294346,-0.80789536,-0.7997999,-0.79878414,-0.8018315,-0.80383223,-0.79776835,-0.7866564,-0.7795768,-0.7755444,-0.7684648,-0.7573221,-0.7462101,-0.74116194,-0.73811466,-0.72903425,-0.70373225,-0.67544436,-0.6582378,-0.6511581,-0.65318966,-0.6602693,-0.6713813,-0.693636,-0.71687573,-0.72903425,-0.7249712,-0.7158907,-0.7209388,-0.74417853,-0.77652943,-0.80383223,-0.8220546,-0.83621395,-0.84631014,-0.84834164,-0.8392305,-0.8281185,-0.8250712,-0.83011925,-0.83621395,-0.8331666,-0.8271027,-0.8240554,-0.82608694,-0.8341824,-0.85237396,-0.87866104,-0.89989996,-0.8604694,-0.6875721,-0.3640015,0.06471717,0.4843247,0.75227404,0.7927203,0.619823,0.28110802,-0.12335515,-0.4994998,-0.7836091,-0.9403463,-0.9787611,-0.9474259,-0.89586765,-0.8574221,-0.841262,-0.841262,-0.8513582,-0.86351675,-0.8695806,-0.86250097,-0.8493574,-0.84227777,-0.84329355,-0.8442786,-0.8371989,-0.82608694,-0.82103884,-0.8220546,-0.8230704,-0.81599075,-0.804848,-0.79776835,-0.79776835,-0.79776835,-0.7897037,-0.77652943,-0.7684648,-0.76643324,-0.7644017,-0.7532897,-0.73811466,-0.72903425,-0.7249712,-0.7219546,-0.71182764,-0.69665253,-0.68350905,-0.6774452,-0.6693498,-0.65318966,-0.6339823,-0.6188072,-0.608711,-0.5975683,-0.57734513,-0.5530896,-0.5318507,-0.5156599,-0.4994998,-0.4752136,-0.4499423,-0.43276644,-0.4226395,-0.41555983,-0.40140057,-0.38825703,-0.38625622,-0.39939976,-0.4226395,-0.44590998,-0.4752136,-0.51667565,-0.5702655,-0.6269027,-0.6723971,-0.7097961,-0.7462101,-0.78262407,-0.81294346,-0.8321508,-0.84227777,-0.8544055,-0.86754906,-0.87764525,-0.87764525,-0.87361294,-0.8746287,-0.8817083,-0.8867564,-0.8817083,-0.8715814,-0.8665333,-0.8705656,-0.87564445,-0.87259716,-0.8645017,-0.8594536,-0.8614852,-0.8665333,-0.8645017,-0.8594536,-0.85843784,-0.8614852,-0.86351675,-0.8574221,-0.84834164,-0.84529436,-0.8493574,-0.8554213,-0.85034245,-0.84024626,-0.8341824,-0.8341824,-0.8371989,-0.8331666,-0.8271027,-0.82608694,-0.83011925,-0.8341824,-0.8281185,-0.81799155,-0.8119277,-0.814975,-0.82002306,-0.8169757,-0.8089111,-0.80383223,-0.804848,-0.8068796,-0.8018315,-0.79373604,-0.7897037,-0.7927203,-0.79776835,-0.7947518,-0.78767216,-0.7856406,-0.7897037,-0.7957676,-0.79373604,-0.78868794,-0.78868794,-0.7917045,-0.7947518,-0.7897037,-0.78160834,-0.7795768,-0.7856406,-0.7917045,-0.7897037,-0.78262407,-0.778561,-0.78059256,-0.7856406,-0.78262407,-0.77652943,-0.7755444,-0.78059256,-0.7856406,-0.7836091,-0.7775452,-0.7755444,-0.7795768,-0.7836091,-0.7795768,-0.7694806,-0.7624009,-0.7583378,-0.7543055,-0.73913044,-0.7229396,-0.714875,-0.7138592,-0.71182764,-0.6976683,-0.6723971,-0.6491574,-0.6339823,-0.6269027,-0.62185454,-0.6269027,-0.6440785,-0.6723971,-0.6946518,-0.6986841,-0.6885879,-0.67947674,-0.68655634,-0.70779526,-0.73408234,-0.76036936,-0.7866564,-0.80789536,-0.82103884,-0.82608694,-0.83621395,-0.8554213,-0.8806926,-0.8705656,-0.82608694,-0.7644017,-0.7178915,-0.7097961,-0.7320508,-0.7583378,-0.78868794,-0.8271027,-0.8564371,-0.8250712,-0.65420544,-0.3326664,0.09503651,0.5308349,0.8321508,0.91507506,0.77049637,0.43378222,0.0070950985,-0.3973682,-0.70576376,-0.8837399,-0.93831474,-0.91507506,-0.8614852,-0.814975,-0.7957676,-0.8018315,-0.8190073,-0.83011925,-0.82608694,-0.81294346,-0.80383223,-0.80284727,-0.80383223,-0.79878414,-0.78868794,-0.78160834,-0.78059256,-0.78160834,-0.7735129,-0.7624009,-0.75532126,-0.75532126,-0.75633705,-0.74925745,-0.7350981,-0.7239554,-0.7209388,-0.7219546,-0.714875,-0.70373225,-0.6946518,-0.6905887,-0.6885879,-0.67846096,-0.6653174,-0.65420544,-0.6491574,-0.6440785,-0.6289342,-0.60969603,-0.59353596,-0.5854405,-0.57734513,-0.56016934,-0.5368988,-0.5146749,-0.49848402,-0.4833089,-0.46108502,-0.43679875,-0.4165756,-0.40647942,-0.39939976,-0.3852405,-0.3680339,-0.3569219,-0.35793763,-0.3690496,-0.38117737,-0.39939976,-0.4287033,-0.47422856,-0.5257869,-0.5733128,-0.61375916,-0.6552212,-0.6986841,-0.7370989,-0.7624009,-0.7775452,-0.79068875,-0.80992687,-0.8271027,-0.8341824,-0.8331666,-0.83113503,-0.8341824,-0.8392305,-0.8382147,-0.83113503,-0.82608694,-0.8281185,-0.83113503,-0.82608694,-0.8169757,-0.80992687,-0.8109119,-0.81294346,-0.8089111,-0.8008157,-0.79776835,-0.8018315,-0.8068796,-0.80383223,-0.79373604,-0.78868794,-0.7917045,-0.7967526,-0.7947518,-0.78767216,-0.78262407,-0.7856406,-0.7897037,-0.7856406,-0.77652943,-0.767449,-0.7684648,-0.77148134,-0.77046555,-0.76643324,-0.7624009,-0.7644017,-0.76643324,-0.7624009,-0.75532126,-0.75125813,-0.7532897,-0.7583378,-0.7573221,-0.75125813,-0.74824166,-0.7502424,-0.752274,-0.74824166,-0.7401462,-0.73811466,-0.74316275,-0.74925745,-0.7472259,-0.73811466,-0.73306656,-0.7361139,-0.7421777,-0.7401462,-0.731035,-0.7249712,-0.72801846,-0.73408234,-0.73306656,-0.7249712,-0.71890724,-0.7209388,-0.72598696,-0.7270027,-0.719923,-0.7158907,-0.719923,-0.7270027,-0.7270027,-0.7219546,-0.71687573,-0.719923,-0.7249712,-0.7239554,-0.7178915,-0.7138592,-0.7178915,-0.7239554,-0.7219546,-0.71182764,-0.70071566,-0.6946518,-0.68957293,-0.67947674,-0.667349,-0.65722203,-0.65420544,-0.6491574,-0.6289342,-0.59858406,-0.5702655,-0.557122,-0.5631858,-0.5793767,-0.6016314,-0.62588686,-0.64712584,-0.65925354,-0.65420544,-0.6450943,-0.6491574,-0.6734128,-0.70779526,-0.7350981,-0.74824166,-0.75125813,-0.7543055,-0.75532126,-0.7502424,-0.7421777,-0.7350981,-0.7370989,-0.74116194,-0.73913044,-0.7320508,-0.7270027,-0.72903425,-0.73811466,-0.75935364,-0.78868794,-0.8058638,-0.7694806,-0.608711,-0.298284,0.11427474,0.5217545,0.7755443,0.80284715,0.6258869,0.29425156,-0.087956965,-0.44590998,-0.7239554,-0.8837399,-0.9251712,-0.8877722,-0.8250712,-0.77652943,-0.7532897,-0.75125813,-0.75935364,-0.7684648,-0.7735129,-0.767449,-0.75532126,-0.74417853,-0.7421777,-0.74417853,-0.73811466,-0.7300192,-0.7219546,-0.7229396,-0.7249712,-0.719923,-0.70881104,-0.6976683,-0.693636,-0.693636,-0.6875721,-0.67544436,-0.6663332,-0.66430163,-0.66328585,-0.65420544,-0.6390304,-0.62385535,-0.61677563,-0.61477494,-0.6066795,-0.59353596,-0.5803924,-0.5722971,-0.5682647,-0.5551212,-0.535883,-0.51667565,-0.5025164,-0.48937285,-0.46816468,-0.44086188,-0.41355908,-0.3973682,-0.38320893,-0.36603314,-0.34377837,-0.3255868,-0.31647557,-0.31142747,-0.30130047,-0.28917277,-0.28209317,-0.29120427,-0.31345904,-0.33974606,-0.37108117,-0.4125433,-0.46914965,-0.5308349,-0.58340895,-0.62487113,-0.65925354,-0.69665253,-0.7320508,-0.7543055,-0.767449,-0.7775452,-0.7917045,-0.804848,-0.8089111,-0.804848,-0.79878414,-0.8008157,-0.8058638,-0.80383223,-0.7957676,-0.79068875,-0.79373604,-0.7997999,-0.8018315,-0.79776835,-0.79373604,-0.7967526,-0.80284727,-0.80284727,-0.7967526,-0.7917045,-0.7947518,-0.8008157,-0.7997999,-0.79068875,-0.78160834,-0.78160834,-0.7866564,-0.7856406,-0.778561,-0.77148134,-0.77046555,-0.7724971,-0.7684648,-0.7583378,-0.7472259,-0.7472259,-0.75125813,-0.7502424,-0.74316275,-0.7350981,-0.7361139,-0.7421777,-0.73811466,-0.72903425,-0.7219546,-0.7249712,-0.7370989,-0.74316275,-0.7401462,-0.73408234,-0.73408234,-0.73913044,-0.73913044,-0.73408234,-0.72903425,-0.73408234,-0.7421777,-0.74316275,-0.7370989,-0.731035,-0.73306656,-0.7401462,-0.7421777,-0.7370989,-0.731035,-0.73408234,-0.7401462,-0.74116194,-0.7361139,-0.7300192,-0.7320508,-0.7401462,-0.74116194,-0.73306656,-0.7229396,-0.71687573,-0.714875,-0.70881104,-0.6976683,-0.6845248,-0.6774452,-0.6693498,-0.6511581,-0.62487113,-0.6016314,-0.59252024,-0.59959984,-0.61477494,-0.63093495,-0.6491574,-0.667349,-0.67544436,-0.6713813,-0.66328585,-0.6663332,-0.6926203,-0.731035,-0.76036936,-0.7735129,-0.7745287,-0.7755444,-0.778561,-0.7775452,-0.77148134,-0.76643324,-0.7684648,-0.7745287,-0.7755444,-0.7694806,-0.7624009,-0.7633859,-0.7694806,-0.7866564,-0.8119277,-0.83113503,-0.80992687,-0.67947674,-0.40546364,-0.02325505,0.3720969,0.6339823,0.68655646,0.5369296,0.23358214,-0.12738752,-0.47016543,-0.7421777,-0.9029473,-0.952474,-0.9201231,-0.85843784,-0.80383223,-0.7724971,-0.7644017,-0.7694806,-0.78160834,-0.79068875,-0.78868794,-0.7775452,-0.76643324,-0.7644017,-0.7684648,-0.767449,-0.75935364,-0.74925745,-0.7451943,-0.7462101,-0.74316275,-0.73408234,-0.7239554,-0.7209388,-0.719923,-0.7138592,-0.6986841,-0.6875721,-0.68554056,-0.6885879,-0.6885879,-0.6774452,-0.66328585,-0.6552212,-0.6511581,-0.6440785,-0.6299192,-0.6157599,-0.608711,-0.60464793,-0.59455174,-0.57632935,-0.5561062,-0.5429627,-0.53388226,-0.51972294,-0.49645245,-0.47118115,-0.45197386,-0.43679875,-0.4175914,-0.3923201,-0.3700654,-0.35793763,-0.3528896,-0.3478107,-0.33873034,-0.33368218,-0.3427626,-0.36603314,-0.3953367,-0.42771834,-0.47016543,-0.52375525,-0.5854405,-0.6420777,-0.68554056,-0.71890724,-0.7543055,-0.7866564,-0.80992687,-0.8220546,-0.8291343,-0.8392305,-0.8513582,-0.8564371,-0.85338974,-0.8493574,-0.85237396,-0.8594536,-0.86250097,-0.8594536,-0.8544055,-0.8554213,-0.8574221,-0.8544055,-0.8442786,-0.83621395,-0.8382147,-0.84529436,-0.84834164,-0.8442786,-0.8371989,-0.8392305,-0.84329355,-0.84329355,-0.83621395,-0.8281185,-0.8291343,-0.8341824,-0.8341824,-0.82608694,-0.814975,-0.8119277,-0.81294346,-0.8119277,-0.80383223,-0.79373604,-0.7917045,-0.79373604,-0.7927203,-0.7856406,-0.778561,-0.78059256,-0.78868794,-0.7917045,-0.7856406,-0.778561,-0.77652943,-0.78160834,-0.7836091,-0.778561,-0.7735129,-0.7745287,-0.78160834,-0.7856406,-0.78160834,-0.77652943,-0.7775452,-0.7836091,-0.7856406,-0.7795768,-0.7735129,-0.7745287,-0.78059256,-0.7846248,-0.7795768,-0.77148134,-0.7694806,-0.7724971,-0.7755444,-0.77148134,-0.76643324,-0.7684648,-0.7724971,-0.7745287,-0.767449,-0.75935364,-0.7583378,-0.7624009,-0.7633859,-0.7583378,-0.7502424,-0.7451943,-0.74116194,-0.7350981,-0.7209388,-0.7097961,-0.704748,-0.6996999,-0.68957293,-0.6653174,-0.6380146,-0.62185454,-0.61677563,-0.6177914,-0.62385535,-0.6359831,-0.65620625,-0.67544436,-0.6825241,-0.6764294,-0.6703655,-0.67947674,-0.70373225,-0.7361139,-0.76138514,-0.7775452,-0.7917045,-0.8008157,-0.8008157,-0.7917045,-0.78262407,-0.78262407,-0.78868794,-0.7927203,-0.79068875,-0.7856406,-0.7866564,-0.7917045,-0.7967526,-0.8109119,-0.83519816,-0.8594536,-0.83113503,-0.6723971,-0.36197,0.061669946,0.4964832,0.79878414,0.8837398,0.7472259,0.42670262,0.0141747,-0.3852405,-0.6976683,-0.8806926,-0.9393305,-0.9201231,-0.8705656,-0.83011925,-0.8109119,-0.8119277,-0.8240554,-0.83519816,-0.8382147,-0.83011925,-0.8190073,-0.81599075,-0.8169757,-0.814975,-0.804848,-0.7917045,-0.7866564,-0.78767216,-0.78767216,-0.78059256,-0.77046555,-0.76643324,-0.767449,-0.76541746,-0.75532126,-0.74316275,-0.73811466,-0.73913044,-0.73913044,-0.7300192,-0.71687573,-0.70881104,-0.70677954,-0.70373225,-0.6926203,-0.67947674,-0.6723971,-0.66836476,-0.6612851,-0.6440785,-0.62487113,-0.60969603,-0.59959984,-0.5864563,-0.5642016,-0.5379145,-0.5187072,-0.5035322,-0.48835707,-0.4641016,-0.43883032,-0.4216237,-0.41051173,-0.40140057,-0.38625622,-0.37311274,-0.37209696,-0.3842247,-0.4024163,-0.42365527,-0.45298964,-0.49645245,-0.5500423,-0.60363215,-0.64712584,-0.6845248,-0.7249712,-0.76643324,-0.79776835,-0.814975,-0.8240554,-0.8341824,-0.84834164,-0.8604694,-0.86351675,-0.8594536,-0.8594536,-0.8614852,-0.86351675,-0.8574221,-0.85034245,-0.8493574,-0.85237396,-0.8544055,-0.8473259,-0.8382147,-0.83621395,-0.8392305,-0.84227777,-0.83621395,-0.8271027,-0.8250712,-0.8281185,-0.83011925,-0.8250712,-0.8169757,-0.814975,-0.81799155,-0.82103884,-0.8169757,-0.8109119,-0.8119277,-0.8169757,-0.8190073,-0.81294346,-0.804848,-0.80284727,-0.8058638,-0.8068796,-0.79878414,-0.7897037,-0.78767216,-0.7917045,-0.7947518,-0.78767216,-0.778561,-0.77652943,-0.78059256,-0.7856406,-0.78262407,-0.77652943,-0.77652943,-0.78160834,-0.7846248,-0.778561,-0.7694806,-0.76643324,-0.77046555,-0.7755444,-0.7735129,-0.7684648,-0.767449,-0.77148134,-0.7755444,-0.77046555,-0.7633859,-0.7633859,-0.767449,-0.77046555,-0.76541746,-0.7573221,-0.7573221,-0.7624009,-0.7694806,-0.767449,-0.75935364,-0.75532126,-0.7573221,-0.76138514,-0.7583378,-0.7532897,-0.752274,-0.7573221,-0.7624009,-0.7573221,-0.75125813,-0.74824166,-0.74925745,-0.75125813,-0.7462101,-0.73913044,-0.73811466,-0.73811466,-0.7350981,-0.7209388,-0.7027472,-0.693636,-0.6905887,-0.68554056,-0.6693498,-0.6450943,-0.62283957,-0.608711,-0.5965525,-0.58848786,-0.5955675,-0.619823,-0.6552212,-0.6804925,-0.68350905,-0.6693498,-0.6602693,-0.6693498,-0.6916045,-0.7178915,-0.74316275,-0.767449,-0.7866564,-0.7957676,-0.78868794,-0.77652943,-0.77046555,-0.77148134,-0.7735129,-0.7694806,-0.7633859,-0.7624009,-0.767449,-0.7724971,-0.7735129,-0.79068875,-0.8250712,-0.85338974,-0.81395924,-0.6299192,-0.29422086,0.14459407,0.58140814,0.8746288,0.9423778,0.78160834,0.42974985,-0.0030319095,-0.40848017,-0.7128434,-0.88574064,-0.9403463,-0.91710657,-0.8645017,-0.8190073,-0.7997999,-0.80789536,-0.8250712,-0.83621395,-0.8331666,-0.8230704,-0.8169757,-0.81799155,-0.81799155,-0.8089111,-0.7967526,-0.79068875,-0.79068875,-0.7917045,-0.7846248,-0.7724971,-0.76541746,-0.7644017,-0.7633859,-0.7543055,-0.7421777,-0.7361139,-0.7361139,-0.7350981,-0.7239554,-0.70881104,-0.70071566,-0.6996999,-0.70071566,-0.6916045,-0.6774452,-0.6663332,-0.6612851,-0.6552212,-0.6400461,-0.619823,-0.60363215,-0.5915044,-0.5803924,-0.5611851,-0.5379145,-0.51667565,-0.5025164,-0.48737204,-0.4641016,-0.43578303,-0.41355908,-0.40140057,-0.3923201,-0.3801924,-0.3650173,-0.3569219,-0.35895342,-0.3680339,-0.37917662,-0.39635247,-0.4287033,-0.4772451,-0.5318507,-0.5793767,-0.62083876,-0.6623009,-0.70576376,-0.7451943,-0.7724971,-0.7897037,-0.8068796,-0.8250712,-0.84024626,-0.84529436,-0.84329355,-0.84329355,-0.8473259,-0.85237396,-0.8493574,-0.84227777,-0.8382147,-0.841262,-0.8442786,-0.8382147,-0.83011925,-0.8271027,-0.83011925,-0.8341824,-0.8291343,-0.82002306,-0.8169757,-0.82103884,-0.8271027,-0.8240554,-0.81599075,-0.8119277,-0.81395924,-0.81799155,-0.8119277,-0.80284727,-0.79878414,-0.8008157,-0.8058638,-0.8018315,-0.79373604,-0.7897037,-0.7897037,-0.79068875,-0.7836091,-0.7735129,-0.77046555,-0.7755444,-0.7795768,-0.7755444,-0.76643324,-0.76138514,-0.7644017,-0.7684648,-0.7644017,-0.7583378,-0.75633705,-0.7624009,-0.767449,-0.7633859,-0.7532897,-0.74824166,-0.752274,-0.7583378,-0.7573221,-0.75125813,-0.7472259,-0.74925745,-0.7543055,-0.75125813,-0.74417853,-0.7401462,-0.74417853,-0.7502424,-0.74925745,-0.74316275,-0.7401462,-0.74316275,-0.74824166,-0.7462101,-0.74116194,-0.73811466,-0.7421777,-0.7462101,-0.74417853,-0.7370989,-0.7350981,-0.74116194,-0.7462101,-0.7421777,-0.73408234,-0.7320508,-0.7401462,-0.75125813,-0.7532897,-0.74824166,-0.74417853,-0.7451943,-0.74824166,-0.74316275,-0.731035,-0.71890724,-0.7138592,-0.7097961,-0.70071566,-0.6885879,-0.6774452,-0.6703655,-0.6602693,-0.6390304,-0.6117276,-0.59252024,-0.5915044,-0.60969603,-0.6329665,-0.65420544,-0.6703655,-0.67947674,-0.6815083,-0.67544436,-0.67544436,-0.6916045,-0.7239554,-0.75935364,-0.78262407,-0.78868794,-0.78767216,-0.78868794,-0.78868794,-0.78262407,-0.7735129,-0.7694806,-0.7735129,-0.78059256,-0.78160834,-0.77652943,-0.7724971,-0.7775452,-0.79878414,-0.83011925,-0.8544055,-0.8392305,-0.71890724,-0.45298964,-0.061669886,0.37816083,0.70982695,0.826087,0.70982695,0.40952682,0.020238638,-0.3599692,-0.67544436,-0.8817083,-0.962601,-0.9443786,-0.8796768,-0.82002306,-0.7897037,-0.78059256,-0.78262407,-0.7866564,-0.7917045,-0.79373604,-0.7866564,-0.7745287,-0.76643324,-0.76643324,-0.76643324,-0.7583378,-0.7451943,-0.73408234,-0.7320508,-0.73306656,-0.7270027,-0.7178915,-0.7097961,-0.70881104,-0.7097961,-0.70576376,-0.6986841,-0.6916045,-0.6905887,-0.6875721,-0.6774452,-0.66328585,-0.65318966,-0.6501424,-0.6491574,-0.6400461,-0.62487113,-0.60969603,-0.6006156,-0.59455174,-0.5803924,-0.56217,-0.54499424,-0.5318507,-0.5187072,-0.49746823,-0.47118115,-0.44692576,-0.43073487,-0.41860718,-0.39939976,-0.37412852,-0.3528896,-0.34076184,-0.33368218,-0.32355517,-0.31345904,-0.31142747,-0.32860333,-0.3599692,-0.3923201,-0.42670256,-0.4671489,-0.51972294,-0.57734513,-0.6299192,-0.6703655,-0.70677954,-0.74116194,-0.7724971,-0.7917045,-0.8018315,-0.8089111,-0.82103884,-0.8331666,-0.8371989,-0.8382147,-0.8382147,-0.8442786,-0.85034245,-0.8473259,-0.8382147,-0.8321508,-0.83519816,-0.841262,-0.84024626,-0.8341824,-0.8281185,-0.83113503,-0.8392305,-0.84024626,-0.83519816,-0.83113503,-0.8331666,-0.8371989,-0.8331666,-0.8250712,-0.8190073,-0.82002306,-0.8220546,-0.81294346,-0.80284727,-0.7957676,-0.79878414,-0.8058638,-0.804848,-0.7967526,-0.7917045,-0.7927203,-0.7957676,-0.7897037,-0.7795768,-0.7724971,-0.7755444,-0.78262407,-0.78160834,-0.7745287,-0.7694806,-0.7724971,-0.778561,-0.778561,-0.77046555,-0.7644017,-0.7684648,-0.7745287,-0.7745287,-0.76541746,-0.7573221,-0.75935364,-0.767449,-0.7684648,-0.76643324,-0.76138514,-0.76138514,-0.7644017,-0.7624009,-0.75532126,-0.75125813,-0.75532126,-0.7633859,-0.7624009,-0.75633705,-0.74824166,-0.74824166,-0.752274,-0.75125813,-0.7462101,-0.7421777,-0.74417853,-0.7462101,-0.73811466,-0.7239554,-0.71081185,-0.70677954,-0.70576376,-0.6956675,-0.67947674,-0.65620625,-0.64106196,-0.63093495,-0.62083876,-0.6157599,-0.62487113,-0.6501424,-0.67846096,-0.693636,-0.6916045,-0.6825241,-0.68350905,-0.69665253,-0.7158907,-0.7370989,-0.75935364,-0.7795768,-0.7917045,-0.7897037,-0.778561,-0.7694806,-0.77148134,-0.778561,-0.7795768,-0.7745287,-0.7684648,-0.77148134,-0.77652943,-0.7745287,-0.76643324,-0.77148134,-0.7997999,-0.8291343,-0.8119277,-0.6815083,-0.4175914,-0.057637513,0.3154906,0.57734513,0.641062,0.5035322,0.20123124,-0.16176993,-0.49038863,-0.7421777,-0.8918045,-0.94945747,-0.9302501,-0.8665333,-0.7997999,-0.75935364,-0.7573221,-0.7735129,-0.7846248,-0.78160834,-0.77148134,-0.76643324,-0.7644017,-0.75935364,-0.7502424,-0.74116194,-0.7401462,-0.7421777,-0.73811466,-0.7270027,-0.714875,-0.71081185,-0.7128434,-0.71182764,-0.70576376,-0.6976683,-0.6946518,-0.6946518,-0.68957293,-0.67947674,-0.6693498,-0.6663332,-0.6653174,-0.6582378,-0.6450943,-0.63093495,-0.62487113,-0.62185454,-0.61375916,-0.59858406,-0.5823932,-0.5733128,-0.5642016,-0.5470258,-0.5227395,-0.49746823,-0.47927666,-0.46613312,-0.44692576,-0.4226395,-0.39939976,-0.3842247,-0.37311274,-0.35895342,-0.34076184,-0.32660258,-0.32660258,-0.33466715,-0.34377837,-0.35390538,-0.37612927,-0.41555983,-0.46816468,-0.5227395,-0.5733128,-0.62083876,-0.6734128,-0.7229396,-0.75935364,-0.7836091,-0.7997999,-0.81799155,-0.8371989,-0.84834164,-0.8513582,-0.85237396,-0.8554213,-0.8604694,-0.8594536,-0.85338974,-0.8473259,-0.84834164,-0.8544055,-0.8544055,-0.84834164,-0.8442786,-0.8473259,-0.8554213,-0.8564371,-0.85034245,-0.84329355,-0.84329355,-0.84834164,-0.85034245,-0.84631014,-0.841262,-0.84227777,-0.8473259,-0.8442786,-0.83519816,-0.8250712,-0.8250712,-0.83011925,-0.83011925,-0.8220546,-0.8109119,-0.8089111,-0.81294346,-0.81395924,-0.8089111,-0.80284727,-0.80284727,-0.80789536,-0.80789536,-0.8018315,-0.7947518,-0.7957676,-0.8008157,-0.80383223,-0.8008157,-0.7957676,-0.79878414,-0.80284727,-0.80383223,-0.79878414,-0.79373604,-0.7967526,-0.80284727,-0.804848,-0.79776835,-0.7897037,-0.7897037,-0.7957676,-0.79878414,-0.7967526,-0.79373604,-0.7957676,-0.7997999,-0.7997999,-0.7927203,-0.7856406,-0.78767216,-0.7917045,-0.78868794,-0.77652943,-0.76036936,-0.752274,-0.752274,-0.74925745,-0.7370989,-0.71890724,-0.7027472,-0.68554056,-0.6693498,-0.6521739,-0.6430627,-0.65420544,-0.67947674,-0.70373225,-0.7158907,-0.7158907,-0.714875,-0.714875,-0.7209388,-0.7320508,-0.752274,-0.7846248,-0.814975,-0.8331666,-0.8331666,-0.8240554,-0.8190073,-0.8190073,-0.8190073,-0.81395924,-0.80992687,-0.81294346,-0.81799155,-0.82002306,-0.814975,-0.80992687,-0.8271027,-0.86351675,-0.8928203,-0.86754906,-0.7249712,-0.44590998,-0.05963838,0.36400163,0.6815083,0.7927203,0.6703963,0.3620007,-0.030334711,-0.40140057,-0.6946518,-0.8837399,-0.962601,-0.9514583,-0.8938361,-0.8382147,-0.8190073,-0.8281185,-0.84227777,-0.8442786,-0.8382147,-0.83519816,-0.8341824,-0.83113503,-0.82103884,-0.8109119,-0.8089111,-0.8119277,-0.8119277,-0.80383223,-0.7927203,-0.78868794,-0.79068875,-0.7897037,-0.78262407,-0.7724971,-0.7694806,-0.77046555,-0.767449,-0.75532126,-0.7421777,-0.7350981,-0.73306656,-0.7270027,-0.714875,-0.70173144,-0.6946518,-0.6926203,-0.68554056,-0.6693498,-0.6491574,-0.63699883,-0.6289342,-0.6177914,-0.59858406,-0.57734513,-0.56217,-0.55105805,-0.5368988,-0.5136591,-0.48737204,-0.46816468,-0.45499033,-0.44184685,-0.42365527,-0.40647942,-0.3973682,-0.3953367,-0.39635247,-0.3973682,-0.40647942,-0.43276644,-0.472197,-0.51667565,-0.56016934,-0.6056637,-0.65620625,-0.70677954,-0.7502424,-0.778561,-0.7997999,-0.8230704,-0.8442786,-0.8594536,-0.86351675,-0.86351675,-0.86754906,-0.87564445,-0.8806926,-0.87764525,-0.8705656,-0.8695806,-0.87361294,-0.8746287,-0.8695806,-0.86250097,-0.8614852,-0.8665333,-0.86754906,-0.8594536,-0.8513582,-0.85237396,-0.8594536,-0.86351675,-0.8574221,-0.8473259,-0.84529436,-0.8493574,-0.85237396,-0.84834164,-0.841262,-0.841262,-0.84529436,-0.84834164,-0.84227777,-0.8341824,-0.8321508,-0.8341824,-0.83621395,-0.83113503,-0.8250712,-0.8240554,-0.8271027,-0.82608694,-0.8190073,-0.8068796,-0.80383223,-0.8068796,-0.8089111,-0.804848,-0.7997999,-0.7997999,-0.8068796,-0.8109119,-0.8068796,-0.7997999,-0.7997999,-0.804848,-0.80789536,-0.80284727,-0.7957676,-0.7957676,-0.8008157,-0.80383223,-0.79878414,-0.79068875,-0.7897037,-0.79373604,-0.79776835,-0.79373604,-0.7866564,-0.7856406,-0.7897037,-0.7917045,-0.78767216,-0.78059256,-0.78160834,-0.78767216,-0.79068875,-0.7846248,-0.77652943,-0.77652943,-0.78059256,-0.7856406,-0.78160834,-0.7735129,-0.7694806,-0.76643324,-0.76036936,-0.7462101,-0.73306656,-0.72903425,-0.7270027,-0.71890724,-0.6996999,-0.6723971,-0.6521739,-0.6430627,-0.63699883,-0.63195074,-0.6359831,-0.65420544,-0.6804925,-0.6976683,-0.69665253,-0.68554056,-0.68350905,-0.6976683,-0.72598696,-0.7583378,-0.78262407,-0.7997999,-0.8089111,-0.80383223,-0.7927203,-0.78262407,-0.7846248,-0.7947518,-0.8008157,-0.79776835,-0.7897037,-0.78767216,-0.7917045,-0.7957676,-0.8008157,-0.82103884,-0.85338974,-0.8705656,-0.8018315,-0.5814082,-0.2184071,0.23256636,0.6420778,0.8796768,0.8847555,0.66938066,0.2851405,-0.1456098,-0.5257869,-0.79373604,-0.92720276,-0.952474,-0.91809154,-0.86754906,-0.8321508,-0.8220546,-0.8321508,-0.84631014,-0.8544055,-0.84631014,-0.83113503,-0.8220546,-0.82103884,-0.82103884,-0.81395924,-0.804848,-0.7997999,-0.8008157,-0.8018315,-0.7947518,-0.7866564,-0.7846248,-0.7846248,-0.7836091,-0.7735129,-0.75935364,-0.752274,-0.75125813,-0.7502424,-0.74116194,-0.72801846,-0.719923,-0.71687573,-0.7138592,-0.7027472,-0.6875721,-0.6764294,-0.6703655,-0.66328585,-0.6501424,-0.6339823,-0.62385535,-0.61677563,-0.6056637,-0.5854405,-0.5611851,-0.5419469,-0.52880335,-0.5136591,-0.48937285,-0.4641016,-0.44590998,-0.43781453,-0.42971915,-0.4145748,-0.39838398,-0.3913043,-0.3953367,-0.40848017,-0.4216237,-0.4398461,-0.472197,-0.51972294,-0.5722971,-0.619823,-0.6612851,-0.7027472,-0.74417853,-0.7775452,-0.79878414,-0.81294346,-0.8291343,-0.8473259,-0.8614852,-0.86250097,-0.85843784,-0.8574221,-0.86250097,-0.86754906,-0.8665333,-0.86250097,-0.86250097,-0.8645017,-0.8665333,-0.8594536,-0.85034245,-0.84834164,-0.8544055,-0.8614852,-0.8594536,-0.85338974,-0.8513582,-0.85338974,-0.8554213,-0.8493574,-0.84024626,-0.83621395,-0.84024626,-0.84529436,-0.84024626,-0.83011925,-0.8230704,-0.8240554,-0.8291343,-0.8271027,-0.8220546,-0.81799155,-0.82002306,-0.8220546,-0.8169757,-0.8109119,-0.80789536,-0.8119277,-0.81599075,-0.8119277,-0.8058638,-0.80383223,-0.8068796,-0.8109119,-0.8058638,-0.79776835,-0.7947518,-0.79878414,-0.80284727,-0.79878414,-0.79068875,-0.7866564,-0.78868794,-0.7917045,-0.78868794,-0.78262407,-0.78262407,-0.7897037,-0.7967526,-0.79373604,-0.7856406,-0.78262407,-0.7846248,-0.78868794,-0.7846248,-0.77652943,-0.7735129,-0.778561,-0.7856406,-0.78262407,-0.7735129,-0.7684648,-0.77046555,-0.7745287,-0.7724971,-0.767449,-0.76541746,-0.7694806,-0.7724971,-0.7684648,-0.76138514,-0.7583378,-0.76138514,-0.7644017,-0.75935364,-0.75125813,-0.7502424,-0.75633705,-0.76138514,-0.75633705,-0.7421777,-0.7270027,-0.71687573,-0.71182764,-0.7027472,-0.6905887,-0.67947674,-0.6703655,-0.65722203,-0.6359831,-0.6127434,-0.59959984,-0.60363215,-0.62185454,-0.6420777,-0.65925354,-0.6734128,-0.68350905,-0.68655634,-0.68350905,-0.6845248,-0.7027472,-0.7370989,-0.7724971,-0.7947518,-0.8008157,-0.79878414,-0.79878414,-0.79878414,-0.79373604,-0.7856406,-0.78160834,-0.7856406,-0.79068875,-0.78767216,-0.7775452,-0.7724971,-0.78160834,-0.81395924,-0.84834164,-0.8614852,-0.7997999,-0.60363215,-0.26390153,0.18300879,0.6177914,0.89081955,0.9211389,0.719923,0.3508581,-0.07379758,-0.46511734,-0.76036936,-0.9251712,-0.9615852,-0.91809154,-0.8554213,-0.82002306,-0.8169757,-0.8240554,-0.8271027,-0.8281185,-0.8281185,-0.82608694,-0.8169757,-0.804848,-0.79776835,-0.79878414,-0.8008157,-0.7967526,-0.7856406,-0.77652943,-0.7735129,-0.7735129,-0.76643324,-0.75633705,-0.74925745,-0.74925745,-0.75125813,-0.7451943,-0.7361139,-0.7270027,-0.7249712,-0.7229396,-0.7128434,-0.6976683,-0.6885879,-0.6845248,-0.68350905,-0.6744286,-0.65620625,-0.6390304,-0.6279184,-0.619823,-0.60363215,-0.58442473,-0.5682647,-0.56217,-0.5541054,-0.5379145,-0.51162755,-0.48737204,-0.47016543,-0.4570219,-0.43679875,-0.41355908,-0.3973682,-0.3902886,-0.3892728,-0.3842247,-0.37612927,-0.37612927,-0.3923201,-0.4196229,-0.45197386,-0.48737204,-0.5318507,-0.58442473,-0.6380146,-0.6804925,-0.7128434,-0.74316275,-0.7775452,-0.8089111,-0.8271027,-0.8331666,-0.8371989,-0.8442786,-0.85237396,-0.85338974,-0.85034245,-0.84834164,-0.85237396,-0.8574221,-0.85237396,-0.841262,-0.8341824,-0.8371989,-0.84227777,-0.84024626,-0.83113503,-0.82608694,-0.8271027,-0.83113503,-0.8291343,-0.8220546,-0.81799155,-0.82103884,-0.8271027,-0.8250712,-0.81799155,-0.8119277,-0.8119277,-0.81395924,-0.8089111,-0.7997999,-0.7947518,-0.7967526,-0.8018315,-0.79776835,-0.78868794,-0.7836091,-0.7866564,-0.7927203,-0.7927203,-0.7856406,-0.78059256,-0.7795768,-0.78262407,-0.78059256,-0.7735129,-0.7684648,-0.7694806,-0.7735129,-0.77148134,-0.767449,-0.76541746,-0.7684648,-0.7745287,-0.7735129,-0.7684648,-0.76541746,-0.767449,-0.77046555,-0.76541746,-0.7573221,-0.752274,-0.75633705,-0.7633859,-0.7633859,-0.75935364,-0.75532126,-0.75935364,-0.7644017,-0.76036936,-0.7532897,-0.7502424,-0.7573221,-0.76541746,-0.7633859,-0.7532897,-0.74316275,-0.7421777,-0.74925745,-0.7502424,-0.74824166,-0.7451943,-0.7472259,-0.7502424,-0.7472259,-0.73913044,-0.7361139,-0.7421777,-0.7502424,-0.74925745,-0.73913044,-0.72598696,-0.7178915,-0.71081185,-0.6996999,-0.68655634,-0.67544436,-0.6713813,-0.667349,-0.6491574,-0.619823,-0.59353596,-0.5823932,-0.5894729,-0.6056637,-0.6269027,-0.6481416,-0.6653174,-0.6734128,-0.667349,-0.6582378,-0.66328585,-0.6905887,-0.7300192,-0.7624009,-0.778561,-0.7836091,-0.7866564,-0.78868794,-0.7846248,-0.77652943,-0.77046555,-0.7735129,-0.7795768,-0.7795768,-0.77652943,-0.77148134,-0.7735129,-0.78262407,-0.8008157,-0.8250712,-0.8371989,-0.7927203,-0.62385535,-0.30838013,0.108180046,0.51264334,0.7593535,0.7765602,0.58442485,0.2376144,-0.1546902,-0.51667565,-0.7897037,-0.93831474,-0.9696806,-0.9241554,-0.85843784,-0.8089111,-0.78262407,-0.77652943,-0.78059256,-0.7917045,-0.8008157,-0.79878414,-0.78767216,-0.7745287,-0.77148134,-0.7724971,-0.7684648,-0.75935364,-0.74925745,-0.74824166,-0.75125813,-0.7472259,-0.7361139,-0.7239554,-0.719923,-0.719923,-0.714875,-0.70373225,-0.6916045,-0.6875721,-0.68957293,-0.6845248,-0.6734128,-0.6612851,-0.65620625,-0.65318966,-0.6450943,-0.6289342,-0.6127434,-0.60363215,-0.59858406,-0.5874721,-0.5702655,-0.55105805,-0.5389303,-0.52880335,-0.5106118,-0.48534054,-0.45803773,-0.43883032,-0.42365527,-0.40647942,-0.3852405,-0.3680339,-0.35895342,-0.35489035,-0.34580994,-0.33466715,-0.32758754,-0.33568293,-0.35793763,-0.3852405,-0.4175914,-0.46006924,-0.5146749,-0.5733128,-0.62487113,-0.6653174,-0.6996999,-0.7370989,-0.77148134,-0.7947518,-0.80789536,-0.81799155,-0.8331666,-0.85034245,-0.8574221,-0.8554213,-0.8513582,-0.8544055,-0.8614852,-0.86250097,-0.8574221,-0.8493574,-0.8493574,-0.85338974,-0.85338974,-0.84834164,-0.84329355,-0.84529436,-0.85034245,-0.85034245,-0.84329355,-0.83519816,-0.8331666,-0.83621395,-0.83621395,-0.8291343,-0.82103884,-0.82002306,-0.8220546,-0.82103884,-0.81395924,-0.8068796,-0.8068796,-0.8109119,-0.80992687,-0.80284727,-0.7947518,-0.79373604,-0.7957676,-0.7947518,-0.78767216,-0.78059256,-0.78059256,-0.7836091,-0.78262407,-0.7755444,-0.7694806,-0.7735129,-0.78059256,-0.7846248,-0.78059256,-0.77652943,-0.78059256,-0.78767216,-0.79068875,-0.7856406,-0.7795768,-0.78160834,-0.78767216,-0.7897037,-0.7846248,-0.7795768,-0.78059256,-0.7846248,-0.7846248,-0.7775452,-0.77148134,-0.7735129,-0.78059256,-0.78262407,-0.778561,-0.7724971,-0.7735129,-0.7795768,-0.7836091,-0.778561,-0.7735129,-0.7735129,-0.7745287,-0.77046555,-0.75633705,-0.7401462,-0.7320508,-0.7300192,-0.7249712,-0.7128434,-0.6956675,-0.67846096,-0.6623009,-0.6450943,-0.6279184,-0.62385535,-0.64106196,-0.6703655,-0.6946518,-0.70173144,-0.6976683,-0.69665253,-0.70173144,-0.7138592,-0.7320508,-0.75633705,-0.7846248,-0.8068796,-0.8119277,-0.8018315,-0.79068875,-0.7897037,-0.7947518,-0.7957676,-0.79068875,-0.7836091,-0.78767216,-0.7957676,-0.79776835,-0.79068875,-0.7836091,-0.80284727,-0.8392305,-0.8574221,-0.80383223,-0.62385535,-0.31850708,0.06370151,0.42365527,0.6349981,0.6329665,0.42873406,0.084940314,-0.2800923,-0.59455174,-0.8190073,-0.9453944,-0.9777453,-0.9393305,-0.8695806,-0.814975,-0.79776835,-0.80789536,-0.82103884,-0.82002306,-0.8119277,-0.80789536,-0.80789536,-0.80383223,-0.79373604,-0.7836091,-0.7836091,-0.7866564,-0.7856406,-0.77652943,-0.76541746,-0.7633859,-0.76643324,-0.76541746,-0.75532126,-0.74316275,-0.73913044,-0.74116194,-0.7401462,-0.72903425,-0.714875,-0.70677954,-0.70373225,-0.6905887,-0.6623009,-0.6339823,-0.6329665,-0.6511581,-0.67544436,-0.6825241,-0.66328585,-0.6359831,-0.6127434,-0.5955675,-0.5753444,-0.5541054,-0.535883,-0.5207387,-0.5005156,-0.47422856,-0.4499423,-0.43276644,-0.4216237,-0.4074952,-0.38625622,-0.36603314,-0.35895342,-0.3599692,-0.3640015,-0.3690496,-0.38219315,-0.4145748,-0.46207005,-0.5146749,-0.56217,-0.608711,-0.65925354,-0.71081185,-0.7532897,-0.78262407,-0.804848,-0.82608694,-0.8493574,-0.8665333,-0.8715814,-0.8705656,-0.8746287,-0.8806926,-0.8827241,-0.87866104,-0.8746287,-0.87564445,-0.8817083,-0.8837399,-0.87764525,-0.8715814,-0.87259716,-0.87764525,-0.8806926,-0.8746287,-0.8665333,-0.8665333,-0.87259716,-0.8766602,-0.87259716,-0.8655175,-0.86351675,-0.8665333,-0.86856484,-0.8614852,-0.85237396,-0.84834164,-0.85034245,-0.8493574,-0.84024626,-0.83011925,-0.8291343,-0.8321508,-0.83519816,-0.83011925,-0.8230704,-0.8220546,-0.8271027,-0.83011925,-0.8230704,-0.814975,-0.81395924,-0.8169757,-0.82002306,-0.81599075,-0.80992687,-0.8109119,-0.81799155,-0.8230704,-0.8190073,-0.81294346,-0.8119277,-0.81599075,-0.81799155,-0.8119277,-0.80383223,-0.80383223,-0.80992687,-0.814975,-0.8119277,-0.804848,-0.80383223,-0.8058638,-0.8068796,-0.8008157,-0.79373604,-0.7957676,-0.8018315,-0.8089111,-0.8068796,-0.8018315,-0.79776835,-0.79373604,-0.7846248,-0.76541746,-0.74925745,-0.7451943,-0.7472259,-0.7451943,-0.7270027,-0.6986841,-0.6764294,-0.66328585,-0.65722203,-0.65620625,-0.6663332,-0.6905887,-0.71890724,-0.7350981,-0.731035,-0.719923,-0.7178915,-0.73306656,-0.7583378,-0.78262407,-0.80383223,-0.8240554,-0.8392305,-0.8442786,-0.8371989,-0.82608694,-0.82103884,-0.8250712,-0.83011925,-0.8271027,-0.8220546,-0.8220546,-0.82608694,-0.8281185,-0.8341824,-0.8564371,-0.8867564,-0.8938361,-0.80284727,-0.5581378,-0.18097734,0.25885344,0.6269027,0.8078953,0.7603694,0.51162755,0.1264025,-0.28107733,-0.6289342,-0.8614852,-0.9666333,-0.9726972,-0.92821854,-0.8746287,-0.841262,-0.83621395,-0.85034245,-0.8665333,-0.8715814,-0.8604694,-0.84529436,-0.83621395,-0.83519816,-0.8371989,-0.83113503,-0.8230704,-0.82002306,-0.8220546,-0.82002306,-0.8089111,-0.7967526,-0.7917045,-0.7947518,-0.7967526,-0.78868794,-0.7745287,-0.76643324,-0.76541746,-0.76541746,-0.7573221,-0.7451943,-0.73913044,-0.7361139,-0.7320508,-0.7178915,-0.70173144,-0.6905887,-0.68554056,-0.67947674,-0.66430163,-0.6450943,-0.63195074,-0.62283957,-0.6117276,-0.5904887,-0.5652174,-0.54397845,-0.5298192,-0.51667565,-0.49543667,-0.472197,-0.45400536,-0.44184685,-0.43276644,-0.4175914,-0.40343207,-0.39939976,-0.40546364,-0.4196229,-0.43578303,-0.46006924,-0.5005156,-0.5551212,-0.6127434,-0.6623009,-0.70173144,-0.74116194,-0.7795768,-0.8119277,-0.8331666,-0.84631014,-0.8604694,-0.87764525,-0.89078873,-0.8928203,-0.88980377,-0.888788,-0.8918045,-0.89586765,-0.8918045,-0.8847249,-0.8817083,-0.8847249,-0.8877722,-0.8837399,-0.8766602,-0.87361294,-0.8746287,-0.87564445,-0.8695806,-0.86250097,-0.8604694,-0.86351675,-0.8665333,-0.86250097,-0.8554213,-0.8544055,-0.8574221,-0.8604694,-0.8554213,-0.84631014,-0.84329355,-0.84631014,-0.8493574,-0.8442786,-0.83621395,-0.8341824,-0.83621395,-0.8392305,-0.8341824,-0.8250712,-0.8220546,-0.8240554,-0.8271027,-0.81799155,-0.8058638,-0.7997999,-0.8018315,-0.8058638,-0.80383223,-0.79776835,-0.7957676,-0.8018315,-0.80789536,-0.804848,-0.79878414,-0.7957676,-0.7997999,-0.804848,-0.8018315,-0.7947518,-0.7927203,-0.7967526,-0.8008157,-0.7967526,-0.7897037,-0.78767216,-0.79068875,-0.7947518,-0.7927203,-0.7856406,-0.78262407,-0.78767216,-0.7927203,-0.7917045,-0.7866564,-0.7856406,-0.79068875,-0.7957676,-0.7917045,-0.78262407,-0.7775452,-0.7795768,-0.7836091,-0.78160834,-0.7745287,-0.7684648,-0.7633859,-0.75532126,-0.73913044,-0.7229396,-0.7138592,-0.71182764,-0.70881104,-0.693636,-0.66836476,-0.6450943,-0.63195074,-0.6269027,-0.6279184,-0.6390304,-0.6612851,-0.6885879,-0.704748,-0.70173144,-0.6916045,-0.6916045,-0.7097961,-0.7421777,-0.77148134,-0.7927203,-0.8068796,-0.8169757,-0.82002306,-0.8119277,-0.80284727,-0.79878414,-0.8018315,-0.8058638,-0.8018315,-0.79373604,-0.7897037,-0.7947518,-0.80383223,-0.81799155,-0.84631014,-0.87361294,-0.86250097,-0.73306656,-0.4438784,-0.026271641,0.43276644,0.78059244,0.91507506,0.8149749,0.5176915,0.10211611,-0.31850708,-0.6653174,-0.8817083,-0.962601,-0.9514583,-0.89989996,-0.8554213,-0.8331666,-0.8321508,-0.84227777,-0.8544055,-0.8604694,-0.85237396,-0.8382147,-0.8281185,-0.8281185,-0.83011925,-0.82608694,-0.8169757,-0.8109119,-0.8089111,-0.8089111,-0.8008157,-0.78868794,-0.7795768,-0.778561,-0.778561,-0.77148134,-0.76138514,-0.75532126,-0.75633705,-0.7573221,-0.74824166,-0.73306656,-0.7209388,-0.71687573,-0.7158907,-0.70779526,-0.6926203,-0.6815083,-0.67544436,-0.6703655,-0.65620625,-0.63699883,-0.619823,-0.608711,-0.59858406,-0.5803924,-0.5551212,-0.5328665,-0.51769143,-0.5055637,-0.48635632,-0.46207005,-0.4398461,-0.42771834,-0.41860718,-0.40848017,-0.39939976,-0.3953367,-0.40343207,-0.4175914,-0.43378222,-0.4570219,-0.49645245,-0.55105805,-0.60969603,-0.6582378,-0.69665253,-0.7320508,-0.77046555,-0.8058638,-0.83011925,-0.84227777,-0.8513582,-0.86250097,-0.87259716,-0.8746287,-0.87259716,-0.87259716,-0.8796768,-0.8877722,-0.8867564,-0.8806926,-0.87361294,-0.87259716,-0.87361294,-0.86856484,-0.8594536,-0.85338974,-0.8554213,-0.8594536,-0.8574221,-0.85237396,-0.8493574,-0.85237396,-0.8554213,-0.8513582,-0.8442786,-0.8392305,-0.84329355,-0.8473259,-0.8442786,-0.83519816,-0.8291343,-0.83011925,-0.8331666,-0.83011925,-0.8230704,-0.8190073,-0.82103884,-0.8240554,-0.8190073,-0.8119277,-0.80789536,-0.8119277,-0.8169757,-0.814975,-0.8058638,-0.8008157,-0.80383223,-0.80789536,-0.8058638,-0.7957676,-0.78868794,-0.79068875,-0.7947518,-0.79373604,-0.78767216,-0.7846248,-0.78868794,-0.7947518,-0.79373604,-0.7856406,-0.778561,-0.78059256,-0.7856406,-0.7856406,-0.7795768,-0.7755444,-0.7795768,-0.7856406,-0.7866564,-0.78160834,-0.7775452,-0.78059256,-0.7866564,-0.7856406,-0.7795768,-0.7735129,-0.77652943,-0.78059256,-0.7795768,-0.7724971,-0.76643324,-0.7684648,-0.7735129,-0.7724971,-0.767449,-0.7644017,-0.7684648,-0.77046555,-0.76138514,-0.74417853,-0.7270027,-0.719923,-0.71890724,-0.7097961,-0.6956675,-0.6774452,-0.6612851,-0.64611006,-0.62487113,-0.6066795,-0.6066795,-0.6299192,-0.66328585,-0.6875721,-0.693636,-0.68957293,-0.6885879,-0.69665253,-0.7097961,-0.731035,-0.7573221,-0.78868794,-0.8109119,-0.814975,-0.80383223,-0.7927203,-0.79373604,-0.8008157,-0.80284727,-0.79776835,-0.79068875,-0.79068875,-0.7957676,-0.7957676,-0.79068875,-0.8008157,-0.8331666,-0.8645017,-0.84631014,-0.7138592,-0.43883032,-0.05662179,0.36098492,0.6825242,0.8008157,0.6896037,0.3801924,-0.02325505,-0.4074952,-0.70881104,-0.89586765,-0.9747287,-0.962601,-0.8988842,-0.8291343,-0.7897037,-0.79068875,-0.80992687,-0.82103884,-0.8190073,-0.80992687,-0.804848,-0.8018315,-0.7957676,-0.7866564,-0.7795768,-0.78059256,-0.7846248,-0.7795768,-0.7684648,-0.7573221,-0.7543055,-0.7543055,-0.75125813,-0.74116194,-0.731035,-0.72801846,-0.72801846,-0.7209388,-0.71081185,-0.70173144,-0.6986841,-0.69665253,-0.6875721,-0.6723971,-0.65722203,-0.6521739,-0.6501424,-0.6400461,-0.62385535,-0.60464793,-0.59353596,-0.5854405,-0.57128125,-0.55207384,-0.5298192,-0.5146749,-0.49848402,-0.4762293,-0.4489265,-0.42467105,-0.4115275,-0.40140057,-0.387272,-0.36704892,-0.34882647,-0.34377837,-0.3478107,-0.35390538,-0.3640015,-0.38320893,-0.4226395,-0.47321278,-0.52375525,-0.5702655,-0.6157599,-0.6663332,-0.714875,-0.75125813,-0.7755444,-0.7947518,-0.81799155,-0.8392305,-0.8513582,-0.85338974,-0.85237396,-0.8574221,-0.8645017,-0.8655175,-0.8594536,-0.85237396,-0.85237396,-0.8574221,-0.8554213,-0.8473259,-0.84227777,-0.84631014,-0.8544055,-0.8564371,-0.85034245,-0.84227777,-0.84329355,-0.8473259,-0.8473259,-0.8392305,-0.83113503,-0.83011925,-0.8341824,-0.83519816,-0.8291343,-0.8240554,-0.8250712,-0.83011925,-0.8281185,-0.8169757,-0.8068796,-0.8058638,-0.80992687,-0.8119277,-0.8058638,-0.7997999,-0.79878414,-0.8018315,-0.7997999,-0.7917045,-0.7836091,-0.7856406,-0.7927203,-0.7957676,-0.7917045,-0.78767216,-0.79068875,-0.7967526,-0.79776835,-0.79068875,-0.7856406,-0.78767216,-0.7947518,-0.79776835,-0.7947518,-0.7917045,-0.7947518,-0.79878414,-0.7967526,-0.78767216,-0.778561,-0.778561,-0.7836091,-0.7846248,-0.78059256,-0.7755444,-0.778561,-0.7846248,-0.7856406,-0.7795768,-0.7745287,-0.7755444,-0.78059256,-0.7795768,-0.7694806,-0.7583378,-0.75125813,-0.74824166,-0.74116194,-0.7270027,-0.7128434,-0.70373225,-0.6986841,-0.6825241,-0.65722203,-0.63093495,-0.6188072,-0.62385535,-0.6420777,-0.6602693,-0.67846096,-0.6916045,-0.6976683,-0.6946518,-0.6885879,-0.6926203,-0.71890724,-0.7543055,-0.7856406,-0.7997999,-0.8008157,-0.8018315,-0.804848,-0.804848,-0.7997999,-0.7927203,-0.79373604,-0.79776835,-0.7967526,-0.79068875,-0.7836091,-0.7846248,-0.79373604,-0.8169757,-0.84227777,-0.85237396,-0.804848,-0.6339823,-0.32758754,0.06874955,0.43581378,0.63903046,0.6188072,0.41051173,0.07582915,-0.2800923,-0.59858406,-0.83621395,-0.96561754,-0.988888,-0.94237787,-0.87764525,-0.83011925,-0.8089111,-0.8058638,-0.80789536,-0.814975,-0.82103884,-0.81799155,-0.8058638,-0.7927203,-0.78868794,-0.79068875,-0.79068875,-0.7846248,-0.7745287,-0.7724971,-0.7735129,-0.77148134,-0.76036936,-0.74824166,-0.7451943,-0.74824166,-0.7502424,-0.74417853,-0.7370989,-0.73306656,-0.731035,-0.7249712,-0.71081185,-0.69665253,-0.6926203,-0.6916045,-0.6885879,-0.6744286,-0.65722203,-0.6450943,-0.63699883,-0.62487113,-0.6056637,-0.58442473,-0.5702655,-0.5611851,-0.5480416,-0.52680266,-0.4994998,-0.4772451,-0.46108502,-0.4448942,-0.42467105,-0.40343207,-0.3902886,-0.38117737,-0.37311274,-0.36298573,-0.35895342,-0.37209696,-0.3973682,-0.43175066,-0.4671489,-0.50657946,-0.56016934,-0.6188072,-0.6734128,-0.714875,-0.74824166,-0.78059256,-0.8109119,-0.8341824,-0.8473259,-0.8554213,-0.8665333,-0.87866104,-0.8837399,-0.87866104,-0.8715814,-0.8715814,-0.8746287,-0.87564445,-0.8705656,-0.8655175,-0.86856484,-0.87564445,-0.8796768,-0.8746287,-0.86754906,-0.86754906,-0.8715814,-0.8715814,-0.8645017,-0.8554213,-0.8564371,-0.86250097,-0.8665333,-0.8614852,-0.8513582,-0.84834164,-0.85237396,-0.85338974,-0.84834164,-0.841262,-0.84024626,-0.84227777,-0.84329355,-0.83519816,-0.8230704,-0.81799155,-0.8169757,-0.8169757,-0.8109119,-0.804848,-0.8058638,-0.80992687,-0.8119277,-0.8068796,-0.8008157,-0.80284727,-0.8089111,-0.8119277,-0.8058638,-0.79878414,-0.79878414,-0.8058638,-0.8119277,-0.8089111,-0.80284727,-0.8018315,-0.8058638,-0.8089111,-0.80383223,-0.7967526,-0.7957676,-0.7997999,-0.80284727,-0.79776835,-0.78868794,-0.78767216,-0.7917045,-0.7967526,-0.7957676,-0.79068875,-0.7917045,-0.7957676,-0.79878414,-0.79373604,-0.7836091,-0.7755444,-0.77046555,-0.7644017,-0.75125813,-0.73913044,-0.73306656,-0.72903425,-0.719923,-0.69665253,-0.6693498,-0.6501424,-0.6420777,-0.64611006,-0.6552212,-0.6723971,-0.69665253,-0.7178915,-0.72598696,-0.71687573,-0.704748,-0.7097961,-0.73408234,-0.7684648,-0.7957676,-0.814975,-0.8271027,-0.83519816,-0.83621395,-0.8291343,-0.82103884,-0.82002306,-0.8240554,-0.8271027,-0.8230704,-0.81799155,-0.8190073,-0.82608694,-0.8392305,-0.8604694,-0.8837399,-0.89078873,-0.82002306,-0.60969603,-0.25377452,0.18808782,0.58140814,0.79576766,0.7745286,0.55007315,0.18402457,-0.2184071,-0.5753444,-0.83011925,-0.9565371,-0.9747287,-0.9352982,-0.8847249,-0.85237396,-0.84227777,-0.84227777,-0.85034245,-0.85843784,-0.8594536,-0.85034245,-0.8371989,-0.83113503,-0.83113503,-0.8331666,-0.82608694,-0.814975,-0.8089111,-0.8089111,-0.8089111,-0.8018315,-0.7927203,-0.78767216,-0.78767216,-0.78767216,-0.7795768,-0.7684648,-0.7633859,-0.7624009,-0.76138514,-0.752274,-0.73811466,-0.72903425,-0.72598696,-0.7219546,-0.70881104,-0.693636,-0.6845248,-0.6804925,-0.6764294,-0.6612851,-0.64106196,-0.62283957,-0.6107118,-0.59858406,-0.57734513,-0.5530896,-0.53388226,-0.5217545,-0.5106118,-0.49038863,-0.4671489,-0.44590998,-0.43276644,-0.42365527,-0.41051173,-0.40140057,-0.40343207,-0.4165756,-0.43679875,-0.46006924,-0.4914044,-0.5368988,-0.59455174,-0.6521739,-0.6976683,-0.7350981,-0.77046555,-0.8058638,-0.8341824,-0.85034245,-0.8614852,-0.8746287,-0.88980377,-0.9029473,-0.9029473,-0.8978684,-0.89586765,-0.8988842,-0.90091574,-0.89485186,-0.8877722,-0.88574064,-0.89078873,-0.89586765,-0.8918045,-0.8837399,-0.8806926,-0.8827241,-0.8867564,-0.8817083,-0.8746287,-0.8705656,-0.87259716,-0.87564445,-0.8715814,-0.8645017,-0.8614852,-0.86351675,-0.8645017,-0.85843784,-0.8493574,-0.8473259,-0.85237396,-0.8574221,-0.85338974,-0.84529436,-0.841262,-0.84227777,-0.8442786,-0.8392305,-0.83113503,-0.8281185,-0.83113503,-0.83621395,-0.8331666,-0.82608694,-0.8240554,-0.82608694,-0.8291343,-0.8240554,-0.8190073,-0.82002306,-0.82608694,-0.83113503,-0.82608694,-0.81599075,-0.80992687,-0.81294346,-0.81799155,-0.8169757,-0.8119277,-0.80992687,-0.81395924,-0.8190073,-0.81599075,-0.80789536,-0.80383223,-0.804848,-0.80789536,-0.8058638,-0.7997999,-0.79878414,-0.80383223,-0.80992687,-0.8089111,-0.80284727,-0.79878414,-0.8008157,-0.80383223,-0.8018315,-0.79776835,-0.79776835,-0.8018315,-0.804848,-0.79878414,-0.78868794,-0.78262407,-0.778561,-0.7724971,-0.7573221,-0.73913044,-0.7300192,-0.7300192,-0.72801846,-0.7158907,-0.6926203,-0.6703655,-0.65420544,-0.6440785,-0.6359831,-0.6390304,-0.65722203,-0.68655634,-0.71182764,-0.71687573,-0.70881104,-0.70173144,-0.71081185,-0.73306656,-0.76036936,-0.7866564,-0.8109119,-0.8291343,-0.83621395,-0.8281185,-0.81395924,-0.8068796,-0.80992687,-0.8169757,-0.8169757,-0.8119277,-0.8089111,-0.80992687,-0.8119277,-0.814975,-0.8341824,-0.86754906,-0.8918045,-0.84227777,-0.6440785,-0.29625243,0.15268946,0.58544064,0.86046946,0.9029472,0.71487486,0.34377837,-0.095036566,-0.4944517,-0.78160834,-0.9352982,-0.973713,-0.9443786,-0.8968834,-0.8594536,-0.84529436,-0.85237396,-0.8695806,-0.8806926,-0.8766602,-0.86351675,-0.85338974,-0.8493574,-0.8493574,-0.8442786,-0.8331666,-0.8271027,-0.8271027,-0.8281185,-0.82103884,-0.80992687,-0.8008157,-0.8008157,-0.80284727,-0.7967526,-0.7846248,-0.7745287,-0.77148134,-0.77148134,-0.76541746,-0.7543055,-0.74417853,-0.7401462,-0.73913044,-0.7300192,-0.71687573,-0.70677954,-0.70373225,-0.70173144,-0.6916045,-0.6744286,-0.6582378,-0.64712584,-0.6349981,-0.61477494,-0.5904887,-0.5692497,-0.5551212,-0.5419469,-0.5217545,-0.49645245,-0.47422856,-0.46006924,-0.4489265,-0.43476725,-0.41860718,-0.40949595,-0.4125433,-0.42467105,-0.43679875,-0.45400536,-0.48229313,-0.52781844,-0.5814082,-0.63093495,-0.6744286,-0.714875,-0.75532126,-0.7897037,-0.81294346,-0.8291343,-0.84834164,-0.86754906,-0.88574064,-0.8877722,-0.8837399,-0.8817083,-0.8867564,-0.8918045,-0.88980377,-0.8847249,-0.8837399,-0.8837399,-0.8837399,-0.8766602,-0.8665333,-0.8655175,-0.87361294,-0.8796768,-0.87361294,-0.86351675,-0.8564371,-0.8574221,-0.8614852,-0.8574221,-0.85034245,-0.84631014,-0.8493574,-0.8554213,-0.85237396,-0.84227777,-0.83621395,-0.8392305,-0.84529436,-0.84329355,-0.83519816,-0.8271027,-0.82608694,-0.83113503,-0.83011925,-0.8240554,-0.81799155,-0.81799155,-0.82103884,-0.81799155,-0.8109119,-0.8068796,-0.80992687,-0.814975,-0.81294346,-0.8058638,-0.8008157,-0.804848,-0.8109119,-0.80789536,-0.7997999,-0.7927203,-0.7947518,-0.8008157,-0.80284727,-0.79878414,-0.79373604,-0.7947518,-0.79776835,-0.7947518,-0.7897037,-0.78767216,-0.7927203,-0.79878414,-0.7957676,-0.78767216,-0.78262407,-0.7846248,-0.78868794,-0.78868794,-0.78262407,-0.7795768,-0.78262407,-0.78767216,-0.7866564,-0.7795768,-0.7745287,-0.7745287,-0.77652943,-0.77148134,-0.7624009,-0.75633705,-0.7583378,-0.7633859,-0.7624009,-0.75633705,-0.752274,-0.75633705,-0.7633859,-0.76036936,-0.7451943,-0.72903425,-0.7178915,-0.71081185,-0.7027472,-0.6885879,-0.6734128,-0.66328585,-0.6501424,-0.6289342,-0.6056637,-0.59252024,-0.60363215,-0.63093495,-0.65620625,-0.6703655,-0.6723971,-0.6723971,-0.67544436,-0.67947674,-0.6926203,-0.71687573,-0.75125813,-0.78160834,-0.79068875,-0.7836091,-0.77148134,-0.767449,-0.77046555,-0.77046555,-0.7644017,-0.75935364,-0.7633859,-0.77046555,-0.77046555,-0.7644017,-0.7624009,-0.7836091,-0.82103884,-0.84227777,-0.7997999,-0.6329665,-0.32860333,0.078876495,0.5005156,0.7897037,0.85037315,0.67947674,0.32961905,-0.07582909,-0.4448942,-0.72801846,-0.9019315,-0.9615852,-0.93225086,-0.86250097,-0.80284727,-0.78262407,-0.7917045,-0.80383223,-0.8058638,-0.79878414,-0.7947518,-0.7917045,-0.7856406,-0.7775452,-0.77046555,-0.77046555,-0.77148134,-0.767449,-0.7583378,-0.75125813,-0.75125813,-0.7532897,-0.74824166,-0.7361139,-0.7249712,-0.7239554,-0.72903425,-0.72903425,-0.71890724,-0.70677954,-0.6996999,-0.69665253,-0.6905887,-0.67846096,-0.667349,-0.6612851,-0.65620625,-0.6440785,-0.6279184,-0.6107118,-0.60363215,-0.59858406,-0.58442473,-0.56217,-0.5389303,-0.52477103,-0.5146749,-0.49746823,-0.47118115,-0.4438784,-0.42365527,-0.40848017,-0.3923201,-0.3751135,-0.3599692,-0.35489035,-0.35489035,-0.35187382,-0.3478107,-0.35187382,-0.3751135,-0.41355908,-0.46006924,-0.50759524,-0.5561062,-0.608711,-0.6602693,-0.70071566,-0.7300192,-0.75532126,-0.78262407,-0.80789536,-0.8220546,-0.82608694,-0.82608694,-0.8321508,-0.8392305,-0.841262,-0.83621395,-0.83011925,-0.8331666,-0.84024626,-0.841262,-0.83519816,-0.8281185,-0.8291343,-0.8341824,-0.8341824,-0.8281185,-0.8190073,-0.8190073,-0.8230704,-0.8230704,-0.8190073,-0.81294346,-0.8119277,-0.81294346,-0.8089111,-0.79776835,-0.78868794,-0.78767216,-0.7917045,-0.7917045,-0.7836091,-0.7755444,-0.7735129,-0.77652943,-0.7745287,-0.7684648,-0.7633859,-0.7644017,-0.7684648,-0.76643324,-0.7583378,-0.752274,-0.75633705,-0.7644017,-0.767449,-0.7633859,-0.7573221,-0.7573221,-0.76036936,-0.76036936,-0.75532126,-0.75125813,-0.7543055,-0.76036936,-0.76138514,-0.75633705,-0.7502424,-0.752274,-0.75935364,-0.7624009,-0.7583378,-0.7502424,-0.7502424,-0.7532897,-0.752274,-0.74824166,-0.74417853,-0.7462101,-0.752274,-0.7532897,-0.7451943,-0.7370989,-0.7370989,-0.74316275,-0.74417853,-0.7361139,-0.7219546,-0.71182764,-0.70576376,-0.6996999,-0.6885879,-0.67846096,-0.6734128,-0.66328585,-0.6420777,-0.61375916,-0.59353596,-0.5975683,-0.62083876,-0.6481416,-0.6663332,-0.6713813,-0.6744286,-0.6764294,-0.67544436,-0.67846096,-0.6946518,-0.72598696,-0.76138514,-0.78160834,-0.78262407,-0.7735129,-0.7684648,-0.77148134,-0.7735129,-0.77148134,-0.7694806,-0.77148134,-0.7745287,-0.7724971,-0.7633859,-0.7532897,-0.7573221,-0.78262407,-0.81294346,-0.8250712,-0.7735129,-0.6056637,-0.30838013,0.074813485,0.43175066,0.6339823,0.61074257,0.3963524,0.059669137,-0.28615624,-0.5864563,-0.80992687,-0.936314,-0.9615852,-0.9120277,-0.8371989,-0.7836091,-0.76643324,-0.7724971,-0.778561,-0.78059256,-0.78059256,-0.78059256,-0.77652943,-0.7684648,-0.75935364,-0.7573221,-0.7583378,-0.75532126,-0.7451943,-0.73408234,-0.7300192,-0.7320508,-0.7300192,-0.7219546,-0.71182764,-0.70779526,-0.70779526,-0.704748,-0.6956675,-0.68350905,-0.67947674,-0.67947674,-0.67544436,-0.66430163,-0.6501424,-0.6420777,-0.6390304,-0.6329665,-0.6177914,-0.6006156,-0.5894729,-0.5803924,-0.5682647,-0.5480416,-0.5257869,-0.509596,-0.49848402,-0.48432475,-0.46207005,-0.43781453,-0.42063868,-0.4074952,-0.3913043,-0.3700654,-0.34882647,-0.33771455,-0.3366987,-0.33771455,-0.3366987,-0.3427626,-0.36298573,-0.39838398,-0.4398461,-0.48229313,-0.52880335,-0.5854405,-0.6440785,-0.6946518,-0.731035,-0.7573221,-0.7846248,-0.8109119,-0.8321508,-0.84024626,-0.84329355,-0.85034245,-0.85843784,-0.8604694,-0.85338974,-0.84529436,-0.84631014,-0.85338974,-0.8574221,-0.8554213,-0.8493574,-0.85034245,-0.8564371,-0.8604694,-0.8574221,-0.85237396,-0.85237396,-0.8564371,-0.85843784,-0.85237396,-0.84529436,-0.8442786,-0.84631014,-0.84631014,-0.8382147,-0.83113503,-0.83113503,-0.8371989,-0.841262,-0.8331666,-0.8230704,-0.8190073,-0.82103884,-0.8220546,-0.81599075,-0.8058638,-0.80383223,-0.8068796,-0.80992687,-0.804848,-0.79776835,-0.7957676,-0.79878414,-0.7997999,-0.79373604,-0.7866564,-0.7856406,-0.79068875,-0.79373604,-0.7897037,-0.7836091,-0.7856406,-0.7927203,-0.7967526,-0.7927203,-0.7866564,-0.78868794,-0.7967526,-0.8018315,-0.79878414,-0.7927203,-0.7927203,-0.7967526,-0.79776835,-0.7917045,-0.7836091,-0.7836091,-0.7856406,-0.78160834,-0.76643324,-0.74824166,-0.7401462,-0.74116194,-0.73811466,-0.7239554,-0.7027472,-0.6825241,-0.66836476,-0.65722203,-0.64611006,-0.64611006,-0.66430163,-0.6905887,-0.7138592,-0.7209388,-0.714875,-0.71182764,-0.71890724,-0.7350981,-0.7543055,-0.7775452,-0.804848,-0.8281185,-0.84024626,-0.83621395,-0.82608694,-0.82103884,-0.8230704,-0.8250712,-0.82002306,-0.81395924,-0.814975,-0.82103884,-0.8250712,-0.8220546,-0.8281185,-0.85843784,-0.8918045,-0.8918045,-0.78160834,-0.52880335,-0.16380149,0.24367833,0.56623316,0.7027472,0.619823,0.34580994,-0.031350493,-0.40546364,-0.70373225,-0.89586765,-0.98180836,-0.9807926,-0.9312351,-0.8705656,-0.8331666,-0.83011925,-0.84631014,-0.8604694,-0.8604694,-0.85237396,-0.8442786,-0.84227777,-0.8392305,-0.8291343,-0.81799155,-0.81395924,-0.814975,-0.814975,-0.80789536,-0.8008157,-0.8008157,-0.80383223,-0.804848,-0.7947518,-0.78059256,-0.7745287,-0.7745287,-0.7745287,-0.76541746,-0.752274,-0.7462101,-0.74417853,-0.7421777,-0.7320508,-0.71890724,-0.70881104,-0.70373225,-0.6956675,-0.67947674,-0.6582378,-0.6440785,-0.6349981,-0.62487113,-0.6066795,-0.58442473,-0.56623316,-0.5530896,-0.5379145,-0.5156599,-0.48937285,-0.47016543,-0.45905346,-0.4489265,-0.43378222,-0.4175914,-0.40848017,-0.40949595,-0.4165756,-0.42467105,-0.44286257,-0.4762293,-0.52375525,-0.57632935,-0.62083876,-0.6612851,-0.7027472,-0.7451943,-0.78262407,-0.8089111,-0.8281185,-0.8473259,-0.8665333,-0.8796768,-0.8827241,-0.8806926,-0.8827241,-0.888788,-0.89485186,-0.89078873,-0.8827241,-0.8796768,-0.8827241,-0.88574064,-0.8806926,-0.87259716,-0.8705656,-0.87564445,-0.8796768,-0.8766602,-0.8695806,-0.86754906,-0.8715814,-0.8766602,-0.87361294,-0.8645017,-0.85843784,-0.85843784,-0.85843784,-0.85338974,-0.84834164,-0.84834164,-0.8554213,-0.8604694,-0.8544055,-0.8442786,-0.8392305,-0.84227777,-0.84631014,-0.84227777,-0.83519816,-0.83113503,-0.8331666,-0.83621395,-0.83011925,-0.8220546,-0.82002306,-0.8230704,-0.8271027,-0.8230704,-0.81599075,-0.814975,-0.82002306,-0.82608694,-0.8240554,-0.8169757,-0.8169757,-0.8230704,-0.8281185,-0.8240554,-0.814975,-0.8109119,-0.81395924,-0.81799155,-0.814975,-0.8089111,-0.80789536,-0.81395924,-0.82103884,-0.8190073,-0.81294346,-0.8089111,-0.8089111,-0.8109119,-0.80383223,-0.7957676,-0.7927203,-0.79373604,-0.79068875,-0.7755444,-0.7573221,-0.7472259,-0.74925745,-0.75125813,-0.74116194,-0.719923,-0.6976683,-0.6825241,-0.6713813,-0.65925354,-0.6521739,-0.6602693,-0.68350905,-0.71081185,-0.7219546,-0.71890724,-0.714875,-0.719923,-0.7361139,-0.75532126,-0.7795768,-0.8058638,-0.8321508,-0.8493574,-0.8493574,-0.8392305,-0.8321508,-0.8331666,-0.8371989,-0.8341824,-0.8271027,-0.8230704,-0.8250712,-0.8271027,-0.82103884,-0.82103884,-0.84529436,-0.8867564,-0.91101193,-0.8442786,-0.63195074,-0.28209317,0.15370524,0.5611851,0.8089112,0.825102,0.6157907,0.23863018,-0.18402463,-0.55207384,-0.81395924,-0.952474,-0.9858407,-0.9514583,-0.8938361,-0.85237396,-0.84329355,-0.8564371,-0.8695806,-0.86856484,-0.85843784,-0.84834164,-0.84529436,-0.84529436,-0.8392305,-0.83011925,-0.82608694,-0.8271027,-0.8271027,-0.82002306,-0.80789536,-0.80284727,-0.80284727,-0.80383223,-0.7967526,-0.7846248,-0.778561,-0.7795768,-0.78059256,-0.7735129,-0.76138514,-0.752274,-0.7502424,-0.7472259,-0.7361139,-0.719923,-0.70779526,-0.7027472,-0.70173144,-0.6916045,-0.6764294,-0.6612851,-0.6511581,-0.64106196,-0.62385535,-0.6016314,-0.5814082,-0.56724894,-0.5541054,-0.5328665,-0.5085802,-0.48635632,-0.472197,-0.46006924,-0.44286257,-0.42467105,-0.4125433,-0.4125433,-0.41860718,-0.4226395,-0.43175066,-0.45400536,-0.49343592,-0.5429627,-0.58848786,-0.6299192,-0.6723971,-0.7178915,-0.75935364,-0.7897037,-0.80992687,-0.8271027,-0.84834164,-0.8655175,-0.8715814,-0.87259716,-0.87259716,-0.87866104,-0.8847249,-0.8837399,-0.87764525,-0.8746287,-0.87764525,-0.8817083,-0.8766602,-0.8665333,-0.8604694,-0.8614852,-0.8655175,-0.8604694,-0.8513582,-0.84529436,-0.8473259,-0.85338974,-0.85034245,-0.84329355,-0.8371989,-0.8392305,-0.84529436,-0.84529436,-0.841262,-0.8392305,-0.841262,-0.84329355,-0.8371989,-0.82608694,-0.82002306,-0.82002306,-0.8240554,-0.82103884,-0.81395924,-0.80992687,-0.81395924,-0.8190073,-0.8169757,-0.80992687,-0.804848,-0.8068796,-0.8109119,-0.80789536,-0.8008157,-0.79776835,-0.8008157,-0.804848,-0.8018315,-0.79373604,-0.7897037,-0.7927203,-0.79878414,-0.79776835,-0.7927203,-0.7917045,-0.7957676,-0.8018315,-0.7997999,-0.7927203,-0.78868794,-0.79068875,-0.79373604,-0.7917045,-0.7856406,-0.78262407,-0.7866564,-0.79373604,-0.79373604,-0.78868794,-0.7856406,-0.78767216,-0.7917045,-0.78868794,-0.78160834,-0.77652943,-0.778561,-0.78160834,-0.7755444,-0.7644017,-0.752274,-0.7451943,-0.7401462,-0.73306656,-0.7239554,-0.7158907,-0.71081185,-0.70173144,-0.67846096,-0.6491574,-0.6269027,-0.619823,-0.6279184,-0.6440785,-0.6623009,-0.6804925,-0.6956675,-0.7027472,-0.6976683,-0.6916045,-0.6976683,-0.7239554,-0.7624009,-0.79068875,-0.80789536,-0.81395924,-0.81599075,-0.81599075,-0.80789536,-0.79878414,-0.79373604,-0.79878414,-0.8058638,-0.804848,-0.79878414,-0.79373604,-0.79878414,-0.82002306,-0.85237396,-0.8796768,-0.8746287,-0.7745287,-0.52880335,-0.14459413,0.3174913,0.70982695,0.9039631,0.8523741,0.59150445,0.19415164,-0.22548676,-0.5894729,-0.84329355,-0.9585379,-0.9615852,-0.9079954,-0.85338974,-0.8271027,-0.8240554,-0.8291343,-0.8331666,-0.8392305,-0.84329355,-0.8392305,-0.83113503,-0.8220546,-0.82002306,-0.81799155,-0.8109119,-0.79878414,-0.78868794,-0.78767216,-0.79068875,-0.78767216,-0.7755444,-0.76541746,-0.76036936,-0.76138514,-0.7583378,-0.7502424,-0.74316275,-0.74316275,-0.74417853,-0.7370989,-0.7239554,-0.7097961,-0.70173144,-0.6976683,-0.6875721,-0.6734128,-0.6612851,-0.6552212,-0.6501424,-0.6380146,-0.6188072,-0.59858406,-0.5854405,-0.5743286,-0.5561062,-0.5328665,-0.509596,-0.4944517,-0.48130822,-0.46207005,-0.4398461,-0.42063868,-0.4115275,-0.4074952,-0.3973682,-0.38625622,-0.38117737,-0.39333588,-0.4175914,-0.44590998,-0.4772451,-0.51769143,-0.5692497,-0.62487113,-0.6703655,-0.70677954,-0.7370989,-0.7684648,-0.79878414,-0.81799155,-0.82608694,-0.8321508,-0.84329355,-0.8554213,-0.8604694,-0.8554213,-0.85034245,-0.8493574,-0.8513582,-0.8513582,-0.84631014,-0.84329355,-0.84631014,-0.85034245,-0.84529436,-0.83519816,-0.82608694,-0.8271027,-0.8341824,-0.83621395,-0.83011925,-0.8250712,-0.82608694,-0.83113503,-0.83011925,-0.8240554,-0.81799155,-0.81799155,-0.82103884,-0.8190073,-0.80992687,-0.80284727,-0.804848,-0.80992687,-0.80789536,-0.7997999,-0.7917045,-0.79068875,-0.7957676,-0.7967526,-0.79068875,-0.7856406,-0.78868794,-0.79373604,-0.7927203,-0.7866564,-0.7795768,-0.78059256,-0.7836091,-0.78059256,-0.7735129,-0.767449,-0.77148134,-0.7795768,-0.78160834,-0.7745287,-0.767449,-0.7684648,-0.7745287,-0.7745287,-0.76643324,-0.7583378,-0.7583378,-0.7644017,-0.767449,-0.7633859,-0.7583378,-0.75935364,-0.7644017,-0.76541746,-0.76036936,-0.75532126,-0.7573221,-0.76036936,-0.7583378,-0.752274,-0.7472259,-0.75125813,-0.75935364,-0.7624009,-0.75532126,-0.7451943,-0.73811466,-0.7300192,-0.7158907,-0.70173144,-0.68957293,-0.6845248,-0.6815083,-0.66836476,-0.6430627,-0.61677563,-0.6016314,-0.5975683,-0.60464793,-0.6188072,-0.6400461,-0.6653174,-0.6825241,-0.6815083,-0.6703655,-0.6653174,-0.6815083,-0.7138592,-0.7462101,-0.7694806,-0.78262407,-0.79068875,-0.79373604,-0.78767216,-0.77652943,-0.7684648,-0.7724971,-0.7795768,-0.7795768,-0.77046555,-0.7583378,-0.7543055,-0.7573221,-0.7684648,-0.7927203,-0.8230704,-0.83621395,-0.7644017,-0.5480416,-0.1951366,0.2285341,0.5824239,0.7482418,0.6896037,0.4438784,0.078876495,-0.29929978,-0.62385535,-0.84529436,-0.9453944,-0.9474259,-0.8978684,-0.8371989,-0.7947518,-0.7755444,-0.77652943,-0.78868794,-0.79776835,-0.7967526,-0.7846248,-0.7724971,-0.77148134,-0.7735129,-0.77148134,-0.76138514,-0.7502424,-0.74824166,-0.7502424,-0.7502424,-0.7421777,-0.7320508,-0.72801846,-0.7270027,-0.7209388,-0.70881104,-0.6956675,-0.6916045,-0.68957293,-0.6825241,-0.667349,-0.6511581,-0.64611006,-0.64611006,-0.6420777,-0.6289342,-0.6127434,-0.60261637,-0.5955675,-0.5854405,-0.56623316,-0.5429627,-0.52477103,-0.51162755,-0.4944517,-0.47321278,-0.45298964,-0.4438784,-0.43578303,-0.42467105,-0.4024163,-0.37412852,-0.35590613,-0.34479415,-0.3366987,-0.32961905,-0.324571,-0.33063483,-0.34682566,-0.36603314,-0.3892728,-0.4226395,-0.47118115,-0.52781844,-0.5814082,-0.6279184,-0.6703655,-0.71182764,-0.74925745,-0.7735129,-0.78262407,-0.79068875,-0.804848,-0.82002306,-0.83113503,-0.83113503,-0.8281185,-0.83011925,-0.83519816,-0.83519816,-0.8281185,-0.8220546,-0.8220546,-0.82608694,-0.8291343,-0.82608694,-0.8230704,-0.8230704,-0.8271027,-0.8271027,-0.82103884,-0.8169757,-0.8190073,-0.8240554,-0.8220546,-0.81395924,-0.80383223,-0.80383223,-0.80992687,-0.8119277,-0.80383223,-0.7927203,-0.78767216,-0.78767216,-0.7866564,-0.78059256,-0.77148134,-0.7694806,-0.77148134,-0.77148134,-0.7633859,-0.75633705,-0.75532126,-0.75935364,-0.75935364,-0.7532897,-0.7472259,-0.74925745,-0.75633705,-0.75935364,-0.75633705,-0.75125813,-0.7543055,-0.7624009,-0.76541746,-0.76036936,-0.7543055,-0.75633705,-0.7633859,-0.7684648,-0.76541746,-0.76036936,-0.76036936,-0.76541746,-0.76541746,-0.76138514,-0.75633705,-0.7583378,-0.7644017,-0.767449,-0.76138514,-0.7543055,-0.7532897,-0.75532126,-0.752274,-0.73913044,-0.7239554,-0.7178915,-0.71890724,-0.7178915,-0.70677954,-0.68957293,-0.6723971,-0.65722203,-0.6400461,-0.62283957,-0.61477494,-0.6289342,-0.65722203,-0.68350905,-0.6956675,-0.6946518,-0.6905887,-0.6916045,-0.6986841,-0.7128434,-0.7350981,-0.76643324,-0.7947518,-0.80789536,-0.80383223,-0.79373604,-0.7897037,-0.79373604,-0.79776835,-0.7947518,-0.7897037,-0.79068875,-0.79776835,-0.8018315,-0.7957676,-0.78767216,-0.79776835,-0.83113503,-0.8614852,-0.84834164,-0.73306656,-0.48737204,-0.13954598,0.2457099,0.5399461,0.64309347,0.5298499,0.24367833,-0.118307054,-0.45499033,-0.7229396,-0.8988842,-0.97676027,-0.96561754,-0.9039323,-0.83519816,-0.7997999,-0.7997999,-0.8119277,-0.8169757,-0.81395924,-0.8109119,-0.80992687,-0.8058638,-0.7947518,-0.78262407,-0.7795768,-0.78160834,-0.78160834,-0.7745287,-0.7644017,-0.7624009,-0.76541746,-0.76541746,-0.75532126,-0.74316275,-0.73811466,-0.73811466,-0.73811466,-0.72801846,-0.714875,-0.70677954,-0.70373225,-0.6996999,-0.6875721,-0.6723971,-0.66430163,-0.6612851,-0.6552212,-0.6420777,-0.62588686,-0.61477494,-0.6076952,-0.5975683,-0.5793767,-0.5561062,-0.5389303,-0.5257869,-0.5106118,-0.48737204,-0.46108502,-0.44184685,-0.4287033,-0.4165756,-0.39838398,-0.37917662,-0.3690496,-0.3680339,-0.3700654,-0.37209696,-0.38117737,-0.40848017,-0.45197386,-0.5035322,-0.5500423,-0.5955675,-0.6450943,-0.69665253,-0.74116194,-0.77148134,-0.7947518,-0.81799155,-0.84329355,-0.86250097,-0.86856484,-0.86856484,-0.87259716,-0.8796768,-0.8847249,-0.8817083,-0.87564445,-0.87564445,-0.8806926,-0.8847249,-0.8796768,-0.87259716,-0.8715814,-0.87564445,-0.8796768,-0.87564445,-0.8695806,-0.8705656,-0.87764525,-0.8817083,-0.8746287,-0.86351675,-0.8604694,-0.86351675,-0.86856484,-0.8655175,-0.85843784,-0.8554213,-0.8564371,-0.8574221,-0.85034245,-0.8392305,-0.83519816,-0.8371989,-0.8382147,-0.8321508,-0.8230704,-0.82002306,-0.8240554,-0.8291343,-0.8250712,-0.81799155,-0.8169757,-0.82103884,-0.8250712,-0.82103884,-0.8119277,-0.8089111,-0.81395924,-0.82002306,-0.81799155,-0.814975,-0.81395924,-0.8190073,-0.8230704,-0.8169757,-0.8089111,-0.8068796,-0.8119277,-0.81799155,-0.81599075,-0.8109119,-0.8109119,-0.81599075,-0.8190073,-0.81395924,-0.8058638,-0.80383223,-0.8068796,-0.8068796,-0.7947518,-0.7775452,-0.76643324,-0.76541746,-0.76541746,-0.75532126,-0.73811466,-0.719923,-0.704748,-0.6916045,-0.6723971,-0.6582378,-0.6602693,-0.6815083,-0.71081185,-0.7300192,-0.7361139,-0.7350981,-0.7350981,-0.73811466,-0.7462101,-0.7624009,-0.79068875,-0.8230704,-0.84529436,-0.84834164,-0.841262,-0.83519816,-0.8371989,-0.84024626,-0.8382147,-0.8341824,-0.8331666,-0.8371989,-0.8382147,-0.83011925,-0.82002306,-0.8291343,-0.86351675,-0.90091574,-0.9019315,-0.7997999,-0.557122,-0.19212008,0.24167752,0.6168065,0.8078953,0.7573528,0.49445176,0.10313201,-0.29625243,-0.6289342,-0.85843784,-0.9726972,-0.9858407,-0.936314,-0.87564445,-0.8442786,-0.84631014,-0.8604694,-0.8645017,-0.85843784,-0.85237396,-0.8513582,-0.85034245,-0.84329355,-0.8321508,-0.82608694,-0.82608694,-0.8271027,-0.82103884,-0.8109119,-0.80383223,-0.80383223,-0.80383223,-0.7947518,-0.78262407,-0.7755444,-0.7755444,-0.77652943,-0.7694806,-0.7573221,-0.7502424,-0.74925745,-0.74925745,-0.7401462,-0.72598696,-0.714875,-0.7097961,-0.70373225,-0.6885879,-0.6703655,-0.65620625,-0.6481416,-0.6400461,-0.62283957,-0.59959984,-0.5814082,-0.5682647,-0.5561062,-0.53388226,-0.5085802,-0.48635632,-0.47118115,-0.45905346,-0.44086188,-0.4216237,-0.41051173,-0.40848017,-0.4125433,-0.41355908,-0.42063868,-0.44086188,-0.47826087,-0.5257869,-0.5753444,-0.6177914,-0.66328585,-0.71081185,-0.74925745,-0.7775452,-0.7967526,-0.8169757,-0.84024626,-0.8614852,-0.8715814,-0.87564445,-0.87866104,-0.88574064,-0.8918045,-0.888788,-0.8817083,-0.87866104,-0.8827241,-0.8867564,-0.8827241,-0.87361294,-0.86856484,-0.8695806,-0.87259716,-0.86856484,-0.8604694,-0.8564371,-0.85843784,-0.8614852,-0.85843784,-0.85237396,-0.8493574,-0.85237396,-0.8564371,-0.85237396,-0.84529436,-0.84329355,-0.84834164,-0.8544055,-0.8513582,-0.8442786,-0.84024626,-0.84329355,-0.84834164,-0.84329355,-0.8341824,-0.8281185,-0.83011925,-0.8321508,-0.8271027,-0.81799155,-0.8119277,-0.81395924,-0.8190073,-0.8169757,-0.80992687,-0.80789536,-0.81395924,-0.82103884,-0.82002306,-0.81395924,-0.80992687,-0.8119277,-0.814975,-0.8109119,-0.80383223,-0.8018315,-0.8068796,-0.81294346,-0.8109119,-0.80284727,-0.79878414,-0.8018315,-0.8068796,-0.8058638,-0.7997999,-0.79776835,-0.8008157,-0.8058638,-0.8018315,-0.7927203,-0.7866564,-0.78868794,-0.7927203,-0.78868794,-0.78059256,-0.7775452,-0.778561,-0.778561,-0.7684648,-0.75125813,-0.73811466,-0.7361139,-0.73408234,-0.7209388,-0.70071566,-0.67846096,-0.6653174,-0.65722203,-0.6450943,-0.6380146,-0.6450943,-0.6693498,-0.6986841,-0.714875,-0.714875,-0.70779526,-0.7097961,-0.7219546,-0.7401462,-0.7633859,-0.79068875,-0.81599075,-0.8331666,-0.8331666,-0.8220546,-0.81395924,-0.81395924,-0.8190073,-0.8169757,-0.80992687,-0.804848,-0.8068796,-0.8109119,-0.80992687,-0.80992687,-0.8321508,-0.8705656,-0.89586765,-0.84329355,-0.6491574,-0.31142747,0.12437093,0.55613697,0.84529436,0.9059638,0.73306656,0.37006545,-0.061669886,-0.45400536,-0.7451943,-0.91101193,-0.96460176,-0.94237787,-0.88574064,-0.841262,-0.8281185,-0.84024626,-0.8564371,-0.8594536,-0.85034245,-0.84024626,-0.8371989,-0.8382147,-0.8321508,-0.82103884,-0.8119277,-0.80789536,-0.80789536,-0.8008157,-0.7917045,-0.7856406,-0.7856406,-0.7866564,-0.78059256,-0.7694806,-0.76036936,-0.75935364,-0.76036936,-0.7543055,-0.74316275,-0.73306656,-0.7300192,-0.7270027,-0.71687573,-0.70173144,-0.6885879,-0.68350905,-0.6804925,-0.6693498,-0.6521739,-0.63699883,-0.6279184,-0.6188072,-0.6016314,-0.57734513,-0.5551212,-0.5419469,-0.5308349,-0.51162755,-0.48737204,-0.46308583,-0.44794148,-0.43578303,-0.41860718,-0.39939976,-0.3842247,-0.3801924,-0.3852405,-0.3913043,-0.40343207,-0.42771834,-0.46816468,-0.51769143,-0.5652174,-0.608711,-0.6511581,-0.6986841,-0.7421777,-0.77148134,-0.7917045,-0.8068796,-0.8250712,-0.84227777,-0.84834164,-0.84631014,-0.8442786,-0.8493574,-0.8564371,-0.8564371,-0.85034245,-0.8442786,-0.84631014,-0.8513582,-0.85034245,-0.84329355,-0.8371989,-0.8382147,-0.841262,-0.8392305,-0.8331666,-0.8291343,-0.8321508,-0.8382147,-0.8341824,-0.82608694,-0.82002306,-0.8220546,-0.8291343,-0.8271027,-0.82103884,-0.81599075,-0.81799155,-0.8230704,-0.82103884,-0.81294346,-0.8058638,-0.8068796,-0.81294346,-0.8119277,-0.8058638,-0.7997999,-0.7997999,-0.80284727,-0.79878414,-0.7897037,-0.78262407,-0.78160834,-0.7856406,-0.7836091,-0.7775452,-0.7735129,-0.77652943,-0.78262407,-0.78262407,-0.7775452,-0.7724971,-0.7745287,-0.7795768,-0.778561,-0.77148134,-0.7644017,-0.76541746,-0.7694806,-0.767449,-0.76138514,-0.7573221,-0.76138514,-0.76643324,-0.7644017,-0.7583378,-0.75125813,-0.7532897,-0.75633705,-0.75532126,-0.74824166,-0.74417853,-0.74925745,-0.7573221,-0.7573221,-0.7502424,-0.7451943,-0.7462101,-0.7502424,-0.74925745,-0.74316275,-0.73811466,-0.7421777,-0.7472259,-0.74417853,-0.731035,-0.71687573,-0.70881104,-0.70576376,-0.6976683,-0.68350905,-0.66836476,-0.65925354,-0.6450943,-0.62283957,-0.59858406,-0.5823932,-0.5904887,-0.6157599,-0.6420777,-0.65925354,-0.6653174,-0.66836476,-0.6703655,-0.6713813,-0.67947674,-0.6996999,-0.73408234,-0.7694806,-0.78868794,-0.79068875,-0.7846248,-0.78160834,-0.78262407,-0.7795768,-0.7724971,-0.767449,-0.77046555,-0.77652943,-0.7755444,-0.7684648,-0.76036936,-0.767449,-0.7957676,-0.8271027,-0.8341824,-0.77046555,-0.5803924,-0.25783765,0.1587534,0.55207384,0.7836399,0.7795768,0.5632167,0.20323205,-0.18199307,-0.5227395,-0.7755444,-0.91710657,-0.9474259,-0.9019315,-0.8331666,-0.7866564,-0.7735129,-0.77652943,-0.7795768,-0.778561,-0.78059256,-0.78160834,-0.7775452,-0.767449,-0.76036936,-0.75935364,-0.75935364,-0.7532897,-0.74116194,-0.7320508,-0.7300192,-0.7320508,-0.7270027,-0.7138592,-0.7027472,-0.70071566,-0.7027472,-0.6986841,-0.6875721,-0.67544436,-0.6713813,-0.6723971,-0.667349,-0.65420544,-0.64106196,-0.6329665,-0.6269027,-0.61477494,-0.5975683,-0.5814082,-0.5743286,-0.5702655,-0.56016934,-0.5419469,-0.5227395,-0.5085802,-0.49543667,-0.4762293,-0.4499423,-0.42365527,-0.40848017,-0.39939976,-0.38625622,-0.36603314,-0.34580994,-0.33568293,-0.3326664,-0.32961905,-0.32758754,-0.3316506,-0.35390538,-0.38825703,-0.42771834,-0.46816468,-0.5136591,-0.56724894,-0.62283957,-0.667349,-0.70071566,-0.7270027,-0.75633705,-0.7836091,-0.8008157,-0.80992687,-0.81599075,-0.8271027,-0.83621395,-0.83621395,-0.83011925,-0.8240554,-0.8281185,-0.83519816,-0.83519816,-0.8291343,-0.8220546,-0.8230704,-0.8291343,-0.83011925,-0.82608694,-0.8220546,-0.8250712,-0.83011925,-0.8291343,-0.82103884,-0.81599075,-0.81799155,-0.8250712,-0.8240554,-0.814975,-0.80383223,-0.80383223,-0.8068796,-0.8068796,-0.79878414,-0.7897037,-0.78767216,-0.79068875,-0.7897037,-0.78160834,-0.7724971,-0.7724971,-0.77652943,-0.7745287,-0.76541746,-0.75633705,-0.75532126,-0.7624009,-0.76643324,-0.7624009,-0.7573221,-0.75935364,-0.76541746,-0.76643324,-0.75935364,-0.752274,-0.7532897,-0.76036936,-0.7624009,-0.7583378,-0.7532897,-0.7573221,-0.76541746,-0.767449,-0.76036936,-0.7532897,-0.7543055,-0.76036936,-0.7633859,-0.7573221,-0.74925745,-0.74824166,-0.752274,-0.7543055,-0.75125813,-0.74824166,-0.75125813,-0.7573221,-0.7573221,-0.7502424,-0.74116194,-0.7361139,-0.73306656,-0.72598696,-0.7128434,-0.70173144,-0.6956675,-0.6905887,-0.6774452,-0.6521739,-0.62588686,-0.6127434,-0.6117276,-0.619823,-0.6329665,-0.6521739,-0.6764294,-0.693636,-0.6946518,-0.68350905,-0.6764294,-0.6885879,-0.719923,-0.75125813,-0.7735129,-0.78160834,-0.7856406,-0.7866564,-0.7836091,-0.77652943,-0.7694806,-0.77148134,-0.7775452,-0.78059256,-0.7755444,-0.7684648,-0.767449,-0.77046555,-0.7745287,-0.78868794,-0.81395924,-0.83519816,-0.80383223,-0.6501424,-0.35590613,0.02731824,0.39130437,0.6076952,0.6177914,0.44086182,0.12538671,-0.23053485,-0.5541054,-0.79373604,-0.9251712,-0.95552135,-0.92215466,-0.86351675,-0.80992687,-0.7775452,-0.77046555,-0.778561,-0.7897037,-0.79373604,-0.7866564,-0.77652943,-0.7755444,-0.7775452,-0.77652943,-0.767449,-0.75633705,-0.7532897,-0.7543055,-0.752274,-0.7451943,-0.7350981,-0.7320508,-0.7320508,-0.7270027,-0.71687573,-0.70576376,-0.7027472,-0.7027472,-0.6986841,-0.68655634,-0.6723971,-0.667349,-0.667349,-0.66430163,-0.6521739,-0.6380146,-0.6299192,-0.62487113,-0.61677563,-0.5975683,-0.57632935,-0.56217,-0.55207384,-0.5389303,-0.51972294,-0.49543667,-0.4772451,-0.46006924,-0.44184685,-0.41860718,-0.39635247,-0.3842247,-0.37714505,-0.3690496,-0.35489035,-0.34377837,-0.34580994,-0.35895342,-0.38219315,-0.40949595,-0.44590998,-0.49645245,-0.5530896,-0.6056637,-0.6481416,-0.6845248,-0.7229396,-0.76138514,-0.7917045,-0.8089111,-0.82002306,-0.83621395,-0.85338974,-0.86351675,-0.8614852,-0.8544055,-0.85338974,-0.85843784,-0.8614852,-0.8564371,-0.84834164,-0.84834164,-0.85237396,-0.8554213,-0.8513582,-0.84529436,-0.8473259,-0.85338974,-0.8564371,-0.85338974,-0.8473259,-0.8473259,-0.85237396,-0.85338974,-0.8473259,-0.8382147,-0.8371989,-0.84024626,-0.841262,-0.8341824,-0.8250712,-0.8240554,-0.8271027,-0.8271027,-0.8190073,-0.80992687,-0.80789536,-0.8119277,-0.8119277,-0.804848,-0.7957676,-0.79373604,-0.79776835,-0.7997999,-0.79373604,-0.7856406,-0.7866564,-0.7927203,-0.7957676,-0.7917045,-0.7836091,-0.78262407,-0.78868794,-0.7927203,-0.78767216,-0.78059256,-0.7795768,-0.78262407,-0.7856406,-0.78160834,-0.7775452,-0.7795768,-0.7856406,-0.7897037,-0.7856406,-0.7795768,-0.7795768,-0.7856406,-0.78868794,-0.7856406,-0.78059256,-0.78160834,-0.78868794,-0.7927203,-0.78767216,-0.778561,-0.77652943,-0.7775452,-0.7755444,-0.7633859,-0.7472259,-0.73811466,-0.73408234,-0.72801846,-0.7128434,-0.693636,-0.6764294,-0.6623009,-0.6491574,-0.6349981,-0.63093495,-0.64611006,-0.6723971,-0.69665253,-0.70373225,-0.6976683,-0.6946518,-0.6986841,-0.7128434,-0.731035,-0.7543055,-0.78160834,-0.80789536,-0.82103884,-0.82002306,-0.8109119,-0.8089111,-0.81294346,-0.81599075,-0.8119277,-0.80383223,-0.8008157,-0.8018315,-0.80383223,-0.7997999,-0.80383223,-0.8331666,-0.8715814,-0.888788,-0.81799155,-0.6076952,-0.26894957,0.15167367,0.54499424,0.7836399,0.79576766,0.58848786,0.22447097,-0.17796075,-0.5298192,-0.7836091,-0.926187,-0.96561754,-0.9352982,-0.87564445,-0.83113503,-0.8230704,-0.8392305,-0.8544055,-0.8544055,-0.8442786,-0.8371989,-0.83519816,-0.8331666,-0.8240554,-0.81395924,-0.80992687,-0.8119277,-0.81395924,-0.8068796,-0.7957676,-0.7897037,-0.78868794,-0.78767216,-0.7795768,-0.7684648,-0.7633859,-0.7644017,-0.7644017,-0.75633705,-0.7451943,-0.73913044,-0.7370989,-0.73408234,-0.7229396,-0.70779526,-0.6986841,-0.693636,-0.68655634,-0.6723971,-0.65420544,-0.64106196,-0.63195074,-0.62185454,-0.60261637,-0.5803924,-0.5631858,-0.5500423,-0.535883,-0.5136591,-0.48937285,-0.47118115,-0.45803773,-0.4448942,-0.42467105,-0.40444785,-0.39333588,-0.3923201,-0.39635247,-0.40041554,-0.4115275,-0.4398461,-0.48432475,-0.53489804,-0.5814082,-0.62385535,-0.6693498,-0.714875,-0.75532126,-0.78160834,-0.7997999,-0.82002306,-0.841262,-0.8574221,-0.8614852,-0.8594536,-0.8604694,-0.86754906,-0.87259716,-0.86856484,-0.8594536,-0.8554213,-0.85843784,-0.8614852,-0.8574221,-0.85034245,-0.84834164,-0.85034245,-0.85237396,-0.84631014,-0.8392305,-0.8382147,-0.84227777,-0.84529436,-0.84024626,-0.8341824,-0.83519816,-0.841262,-0.8442786,-0.8382147,-0.8291343,-0.82608694,-0.83011925,-0.83621395,-0.8331666,-0.82608694,-0.8240554,-0.8271027,-0.83011925,-0.8240554,-0.81599075,-0.81395924,-0.8169757,-0.8190073,-0.81395924,-0.8068796,-0.8058638,-0.80992687,-0.8119277,-0.804848,-0.7957676,-0.79373604,-0.7997999,-0.8058638,-0.80284727,-0.7947518,-0.7917045,-0.7957676,-0.7997999,-0.7957676,-0.78868794,-0.7856406,-0.79068875,-0.7967526,-0.7947518,-0.7897037,-0.7897037,-0.79373604,-0.7967526,-0.7927203,-0.7836091,-0.7795768,-0.7836091,-0.78868794,-0.7866564,-0.78059256,-0.77652943,-0.778561,-0.78262407,-0.7795768,-0.7745287,-0.77652943,-0.78262407,-0.7866564,-0.78262407,-0.7745287,-0.7724971,-0.7755444,-0.7795768,-0.7755444,-0.7684648,-0.767449,-0.7724971,-0.77652943,-0.77046555,-0.76138514,-0.75935364,-0.76541746,-0.7735129,-0.7735129,-0.76643324,-0.75935364,-0.752274,-0.74417853,-0.72903425,-0.714875,-0.70677954,-0.704748,-0.6986841,-0.67846096,-0.6511581,-0.6299192,-0.62185454,-0.6289342,-0.6430627,-0.6612851,-0.6815083,-0.69665253,-0.70173144,-0.6946518,-0.6885879,-0.6976683,-0.72598696,-0.7624009,-0.79068875,-0.80789536,-0.81799155,-0.82103884,-0.82002306,-0.80992687,-0.79878414,-0.7957676,-0.8008157,-0.8068796,-0.804848,-0.79776835,-0.79373604,-0.79776835,-0.81599075,-0.84529436,-0.8715814,-0.86856484,-0.7644017,-0.5085802,-0.11122739,0.3569219,0.7431936,0.925202,0.862501,0.59556746,0.19615233,-0.22548676,-0.5904887,-0.84024626,-0.94945747,-0.94945747,-0.8988842,-0.85338974,-0.83519816,-0.83519816,-0.84024626,-0.84529436,-0.84834164,-0.8473259,-0.8382147,-0.82608694,-0.82002306,-0.82103884,-0.8220546,-0.814975,-0.804848,-0.7997999,-0.8018315,-0.80383223,-0.7967526,-0.7846248,-0.7775452,-0.7755444,-0.7745287,-0.76643324,-0.75633705,-0.7502424,-0.7502424,-0.7502424,-0.7421777,-0.72801846,-0.7178915,-0.7138592,-0.70881104,-0.69665253,-0.6804925,-0.6693498,-0.66430163,-0.6602693,-0.64611006,-0.62588686,-0.6076952,-0.59455174,-0.58340895,-0.5652174,-0.5409619,-0.51972294,-0.5035322,-0.48835707,-0.4671489,-0.4448942,-0.4287033,-0.4196229,-0.4125433,-0.40140057,-0.3913043,-0.3923201,-0.40647942,-0.42971915,-0.45197386,-0.48029244,-0.5187072,-0.5702655,-0.62588686,-0.6713813,-0.70779526,-0.74116194,-0.7745287,-0.80383223,-0.8190073,-0.8271027,-0.8371989,-0.85034245,-0.8614852,-0.86351675,-0.8594536,-0.8574221,-0.8614852,-0.86754906,-0.8655175,-0.8594536,-0.8544055,-0.8554213,-0.8574221,-0.85338974,-0.84631014,-0.8442786,-0.8473259,-0.8513582,-0.8473259,-0.8392305,-0.83621395,-0.84024626,-0.84631014,-0.8442786,-0.8371989,-0.83519816,-0.8382147,-0.84329355,-0.8392305,-0.83113503,-0.8271027,-0.83011925,-0.8321508,-0.8271027,-0.81799155,-0.8119277,-0.81395924,-0.8169757,-0.81294346,-0.804848,-0.8018315,-0.8058638,-0.8119277,-0.80992687,-0.80284727,-0.79878414,-0.8008157,-0.80284727,-0.79878414,-0.7917045,-0.78868794,-0.7917045,-0.7957676,-0.7917045,-0.7846248,-0.78059256,-0.7846248,-0.79068875,-0.78767216,-0.78059256,-0.77652943,-0.78059256,-0.7866564,-0.7856406,-0.7795768,-0.77652943,-0.7795768,-0.7836091,-0.7775452,-0.767449,-0.76138514,-0.7633859,-0.7684648,-0.76643324,-0.75935364,-0.75532126,-0.75935364,-0.76541746,-0.7644017,-0.75935364,-0.7583378,-0.7644017,-0.77046555,-0.7684648,-0.75935364,-0.7532897,-0.75532126,-0.76036936,-0.75633705,-0.74824166,-0.74316275,-0.74417853,-0.74925745,-0.74824166,-0.7421777,-0.73811466,-0.7421777,-0.7462101,-0.74316275,-0.7350981,-0.72903425,-0.72598696,-0.7209388,-0.70677954,-0.68957293,-0.6764294,-0.6723971,-0.6693498,-0.65620625,-0.63195074,-0.6076952,-0.5894729,-0.58442473,-0.59252024,-0.6107118,-0.6359831,-0.6602693,-0.6723971,-0.667349,-0.65620625,-0.65722203,-0.67947674,-0.714875,-0.7451943,-0.76541746,-0.7745287,-0.778561,-0.778561,-0.7724971,-0.7644017,-0.76036936,-0.7633859,-0.76643324,-0.76138514,-0.75125813,-0.7462101,-0.74925745,-0.7573221,-0.7745287,-0.8018315,-0.8250712,-0.804848,-0.6663332,-0.37311274,0.04046178,0.48534048,0.80586386,0.90697944,0.78059244,0.46511734,0.055606008,-0.34882647,-0.6723971,-0.8705656,-0.9393305,-0.9160908,-0.85843784,-0.80789536,-0.78160834,-0.7755444,-0.78262407,-0.7947518,-0.8018315,-0.7957676,-0.7836091,-0.7724971,-0.77046555,-0.77148134,-0.767449,-0.7583378,-0.752274,-0.7532897,-0.7573221,-0.7532897,-0.7451943,-0.7370989,-0.73408234,-0.73408234,-0.7270027,-0.7158907,-0.70677954,-0.704748,-0.70677954,-0.70071566,-0.6875721,-0.6764294,-0.6713813,-0.66836476,-0.65925354,-0.6450943,-0.63195074,-0.6269027,-0.62487113,-0.6127434,-0.59353596,-0.5733128,-0.55915356,-0.5470258,-0.5308349,-0.50759524,-0.48635632,-0.472197,-0.45905346,-0.44086188,-0.4165756,-0.39333588,-0.37917662,-0.3690496,-0.35793763,-0.34580994,-0.3417468,-0.34984225,-0.36603314,-0.3842247,-0.40647942,-0.44184685,-0.4924202,-0.5490265,-0.5975683,-0.63699883,-0.6723971,-0.71081185,-0.7462101,-0.7694806,-0.78262407,-0.7917045,-0.80789536,-0.8240554,-0.83113503,-0.8291343,-0.8271027,-0.83011925,-0.83621395,-0.83519816,-0.83011925,-0.8271027,-0.8321508,-0.8392305,-0.8382147,-0.83011925,-0.8220546,-0.8230704,-0.8271027,-0.8250712,-0.81799155,-0.81395924,-0.8190073,-0.8271027,-0.8271027,-0.8190073,-0.80992687,-0.8089111,-0.8109119,-0.80789536,-0.8008157,-0.7947518,-0.7947518,-0.7967526,-0.7917045,-0.78059256,-0.77148134,-0.7724971,-0.7775452,-0.7775452,-0.7724971,-0.7684648,-0.7694806,-0.77148134,-0.7684648,-0.7583378,-0.7502424,-0.7502424,-0.7543055,-0.7532897,-0.74925745,-0.7472259,-0.7532897,-0.76036936,-0.76036936,-0.75532126,-0.752274,-0.75633705,-0.76138514,-0.75935364,-0.75125813,-0.7451943,-0.7462101,-0.75125813,-0.74925745,-0.74316275,-0.7370989,-0.74116194,-0.74824166,-0.74925745,-0.74417853,-0.73811466,-0.7421777,-0.74925745,-0.752274,-0.74824166,-0.74417853,-0.7451943,-0.7472259,-0.7462101,-0.73913044,-0.7350981,-0.73811466,-0.74316275,-0.74116194,-0.7320508,-0.7229396,-0.71890724,-0.7158907,-0.70779526,-0.6946518,-0.68350905,-0.67947674,-0.6764294,-0.6653174,-0.6420777,-0.61677563,-0.5965525,-0.5854405,-0.5854405,-0.5965525,-0.619823,-0.6511581,-0.6713813,-0.6703655,-0.65925354,-0.6521739,-0.667349,-0.6996999,-0.73408234,-0.75935364,-0.7735129,-0.7836091,-0.78868794,-0.7846248,-0.7745287,-0.77046555,-0.7755444,-0.7846248,-0.7866564,-0.7795768,-0.77148134,-0.7724971,-0.7775452,-0.78160834,-0.7947518,-0.82103884,-0.8442786,-0.81599075,-0.6653174,-0.37108117,0.01617539,0.39333594,0.6279185,0.6552212,0.48635626,0.16684878,-0.19919968,-0.5318507,-0.78160834,-0.9201231,-0.95752215,-0.926187,-0.8655175,-0.8068796,-0.7724971,-0.7644017,-0.7745287,-0.7846248,-0.7836091,-0.7735129,-0.7624009,-0.76138514,-0.7644017,-0.7633859,-0.75532126,-0.7462101,-0.74417853,-0.74417853,-0.7401462,-0.731035,-0.7219546,-0.7209388,-0.7229396,-0.71687573,-0.70576376,-0.6926203,-0.6875721,-0.68655634,-0.6815083,-0.6713813,-0.6612851,-0.6582378,-0.65620625,-0.6491574,-0.6329665,-0.61677563,-0.6076952,-0.6016314,-0.5894729,-0.5722971,-0.5541054,-0.5429627,-0.5318507,-0.5136591,-0.48835707,-0.46308583,-0.44590998,-0.43276644,-0.4145748,-0.3913043,-0.3690496,-0.35590613,-0.34682566,-0.33466715,-0.32053864,-0.31142747,-0.3154598,-0.32961905,-0.34580994,-0.36704892,-0.39939976,-0.4499423,-0.50759524,-0.56217,-0.6066795,-0.64712584,-0.6905887,-0.73306656,-0.7644017,-0.78262407,-0.7947518,-0.80992687,-0.8250712,-0.8321508,-0.83011925,-0.8271027,-0.83113503,-0.8392305,-0.841262,-0.83621395,-0.83011925,-0.83011925,-0.83519816,-0.8371989,-0.8331666,-0.8291343,-0.8341824,-0.84227777,-0.84329355,-0.8371989,-0.83011925,-0.83011925,-0.8341824,-0.8341824,-0.82608694,-0.81799155,-0.81799155,-0.82103884,-0.8190073,-0.8109119,-0.80383223,-0.8058638,-0.8109119,-0.8109119,-0.8018315,-0.79068875,-0.78767216,-0.78868794,-0.78767216,-0.78059256,-0.7724971,-0.7735129,-0.778561,-0.78059256,-0.7745287,-0.7684648,-0.7694806,-0.7745287,-0.7775452,-0.7735129,-0.7684648,-0.77046555,-0.7775452,-0.778561,-0.7735129,-0.767449,-0.7694806,-0.7745287,-0.7755444,-0.7694806,-0.7633859,-0.76643324,-0.7735129,-0.77652943,-0.7724971,-0.76541746,-0.76541746,-0.77148134,-0.7724971,-0.7694806,-0.76541746,-0.7684648,-0.7745287,-0.7745287,-0.7624009,-0.74417853,-0.73306656,-0.7270027,-0.7209388,-0.7097961,-0.69665253,-0.6885879,-0.67846096,-0.65925354,-0.6359831,-0.6177914,-0.6188072,-0.6380146,-0.6623009,-0.6804925,-0.6916045,-0.6986841,-0.70173144,-0.6996999,-0.6976683,-0.7097961,-0.7401462,-0.7755444,-0.8008157,-0.8058638,-0.7997999,-0.79776835,-0.7997999,-0.8008157,-0.7967526,-0.7917045,-0.79373604,-0.79878414,-0.79878414,-0.7927203,-0.7846248,-0.7866564,-0.8068796,-0.8371989,-0.8564371,-0.83113503,-0.70677954,-0.45298964,-0.093005,0.3003155,0.58442485,0.66531754,0.53489804,0.24367833,-0.11021161,-0.44590998,-0.719923,-0.8978684,-0.96561754,-0.9433936,-0.87764525,-0.82002306,-0.7967526,-0.79878414,-0.8058638,-0.80992687,-0.8119277,-0.81294346,-0.8089111,-0.79776835,-0.78868794,-0.7856406,-0.7866564,-0.7856406,-0.7755444,-0.76643324,-0.76643324,-0.77046555,-0.7724971,-0.767449,-0.75935364,-0.75633705,-0.75633705,-0.75125813,-0.73913044,-0.7270027,-0.7229396,-0.7209388,-0.714875,-0.7027472,-0.6905887,-0.68655634,-0.6845248,-0.67846096,-0.66328585,-0.64712584,-0.6400461,-0.63699883,-0.6289342,-0.60969603,-0.5864563,-0.57128125,-0.55915356,-0.54397845,-0.5217545,-0.49543667,-0.47422856,-0.45803773,-0.4398461,-0.4175914,-0.39635247,-0.387272,-0.3842247,-0.3801924,-0.37412852,-0.37209696,-0.387272,-0.4165756,-0.45298964,-0.4924202,-0.5368988,-0.5915044,-0.6501424,-0.70071566,-0.73811466,-0.76643324,-0.7957676,-0.8230704,-0.84329355,-0.8513582,-0.8554213,-0.8655175,-0.87764525,-0.88574064,-0.8817083,-0.87361294,-0.87361294,-0.87764525,-0.87866104,-0.87259716,-0.86351675,-0.8604694,-0.86351675,-0.8665333,-0.86351675,-0.8604694,-0.8645017,-0.8715814,-0.8746287,-0.8715814,-0.8665333,-0.86754906,-0.8715814,-0.87259716,-0.86351675,-0.85338974,-0.85034245,-0.85338974,-0.85338974,-0.8473259,-0.8382147,-0.83621395,-0.8392305,-0.8392305,-0.83113503,-0.8220546,-0.8190073,-0.82103884,-0.82103884,-0.814975,-0.8058638,-0.8058638,-0.80992687,-0.8119277,-0.80789536,-0.8018315,-0.80284727,-0.8068796,-0.8089111,-0.8018315,-0.79373604,-0.7947518,-0.80284727,-0.80789536,-0.80383223,-0.79776835,-0.7957676,-0.7997999,-0.80383223,-0.8008157,-0.7947518,-0.7957676,-0.7997999,-0.8018315,-0.79776835,-0.79373604,-0.7967526,-0.80383223,-0.8068796,-0.7997999,-0.79068875,-0.78767216,-0.7917045,-0.79373604,-0.78868794,-0.78160834,-0.78059256,-0.7856406,-0.78767216,-0.78160834,-0.7735129,-0.7724971,-0.7745287,-0.7735129,-0.76036936,-0.74316275,-0.73306656,-0.731035,-0.72801846,-0.71687573,-0.70071566,-0.68350905,-0.6693498,-0.6552212,-0.6400461,-0.6329665,-0.64611006,-0.6713813,-0.6956675,-0.704748,-0.70373225,-0.70173144,-0.70779526,-0.71890724,-0.7361139,-0.7583378,-0.78767216,-0.81599075,-0.83113503,-0.8271027,-0.814975,-0.8089111,-0.8109119,-0.814975,-0.8119277,-0.804848,-0.804848,-0.80789536,-0.80992687,-0.80383223,-0.8058638,-0.8331666,-0.8715814,-0.8847249,-0.79878414,-0.56623316,-0.2072643,0.22447097,0.6076952,0.82002306,0.8008157,0.5652174,0.1810081,-0.22850323,-0.57632935,-0.8190073,-0.9433936,-0.9666333,-0.92821854,-0.8705656,-0.8321508,-0.8291343,-0.84529436,-0.8594536,-0.85843784,-0.8493574,-0.8442786,-0.8442786,-0.84529436,-0.8382147,-0.8281185,-0.8220546,-0.82103884,-0.8190073,-0.8109119,-0.7997999,-0.7967526,-0.79776835,-0.79878414,-0.7917045,-0.78059256,-0.7745287,-0.7735129,-0.7724971,-0.7633859,-0.752274,-0.7472259,-0.7451943,-0.74116194,-0.7270027,-0.71182764,-0.70173144,-0.6976683,-0.6926203,-0.67846096,-0.6612851,-0.6481416,-0.6400461,-0.6299192,-0.60969603,-0.5874721,-0.5692497,-0.5561062,-0.53994614,-0.51667565,-0.48937285,-0.47118115,-0.45905346,-0.44794148,-0.43175066,-0.41355908,-0.40444785,-0.4024163,-0.40546364,-0.40848017,-0.41860718,-0.4448942,-0.48534054,-0.53388226,-0.5783609,-0.62185454,-0.6693498,-0.71687573,-0.7573221,-0.7836091,-0.8008157,-0.8190073,-0.8392305,-0.8544055,-0.8594536,-0.8604694,-0.8645017,-0.8715814,-0.87764525,-0.87259716,-0.8645017,-0.86351675,-0.86754906,-0.8705656,-0.8655175,-0.8554213,-0.85237396,-0.8564371,-0.8604694,-0.8564371,-0.84834164,-0.8442786,-0.84631014,-0.85034245,-0.8473259,-0.84227777,-0.841262,-0.8442786,-0.84631014,-0.8392305,-0.83011925,-0.8281185,-0.8321508,-0.8371989,-0.8331666,-0.8250712,-0.8230704,-0.8271027,-0.83113503,-0.8250712,-0.8169757,-0.81294346,-0.81599075,-0.82002306,-0.81599075,-0.8089111,-0.8068796,-0.80992687,-0.8109119,-0.8058638,-0.7967526,-0.7957676,-0.8008157,-0.8068796,-0.80383223,-0.7967526,-0.7947518,-0.79776835,-0.8008157,-0.7957676,-0.78767216,-0.7846248,-0.78868794,-0.7927203,-0.78868794,-0.78262407,-0.78262407,-0.78767216,-0.79068875,-0.7856406,-0.77652943,-0.7745287,-0.7795768,-0.7836091,-0.778561,-0.7694806,-0.76643324,-0.7694806,-0.7745287,-0.7724971,-0.76643324,-0.7644017,-0.7694806,-0.7735129,-0.77046555,-0.7633859,-0.76138514,-0.7644017,-0.767449,-0.76036936,-0.752274,-0.75125813,-0.7583378,-0.76643324,-0.76643324,-0.76138514,-0.76138514,-0.76541746,-0.77046555,-0.767449,-0.76036936,-0.75532126,-0.752274,-0.7451943,-0.72801846,-0.71081185,-0.70071566,-0.6996999,-0.69665253,-0.68350905,-0.65925354,-0.6380146,-0.62385535,-0.61677563,-0.6177914,-0.6299192,-0.65318966,-0.6804925,-0.6986841,-0.6956675,-0.68655634,-0.6845248,-0.6996999,-0.72903425,-0.75532126,-0.778561,-0.79776835,-0.8109119,-0.814975,-0.8068796,-0.79373604,-0.7866564,-0.79068875,-0.7957676,-0.7927203,-0.7866564,-0.7836091,-0.78767216,-0.79373604,-0.8068796,-0.8331666,-0.8655175,-0.8655175,-0.7573221,-0.49038863,-0.087956965,0.37412846,0.74621,0.9191073,0.85745287,0.5905194,0.18605626,-0.23863024,-0.6006156,-0.8392305,-0.941362,-0.94237787,-0.89485186,-0.84834164,-0.82103884,-0.8190073,-0.8291343,-0.84227777,-0.8473259,-0.84024626,-0.8271027,-0.82002306,-0.82103884,-0.8220546,-0.81599075,-0.8058638,-0.8008157,-0.7997999,-0.79878414,-0.7897037,-0.77652943,-0.7694806,-0.7694806,-0.7694806,-0.7633859,-0.752274,-0.7472259,-0.74824166,-0.7472259,-0.7370989,-0.7219546,-0.71182764,-0.71081185,-0.71081185,-0.7027472,-0.68957293,-0.67846096,-0.6723971,-0.6653174,-0.6481416,-0.6269027,-0.6107118,-0.60261637,-0.5965525,-0.5803924,-0.5581378,-0.535883,-0.5187072,-0.5025164,-0.47927666,-0.45298964,-0.43276644,-0.4216237,-0.4125433,-0.3973682,-0.38219315,-0.37311274,-0.37816083,-0.3923201,-0.40647942,-0.42771834,-0.46108502,-0.50759524,-0.56016934,-0.6056637,-0.6450943,-0.68554056,-0.7270027,-0.76541746,-0.7897037,-0.8058638,-0.82002306,-0.83621395,-0.8513582,-0.8544055,-0.85237396,-0.8513582,-0.8554213,-0.8614852,-0.8594536,-0.85338974,-0.85034245,-0.8544055,-0.85843784,-0.85338974,-0.84529436,-0.8392305,-0.841262,-0.84631014,-0.84329355,-0.8371989,-0.83519816,-0.8392305,-0.84529436,-0.841262,-0.8331666,-0.82608694,-0.8271027,-0.8291343,-0.8250712,-0.8190073,-0.814975,-0.81799155,-0.8220546,-0.81799155,-0.8089111,-0.80383223,-0.8068796,-0.8119277,-0.80992687,-0.8008157,-0.79373604,-0.7947518,-0.79776835,-0.7947518,-0.7897037,-0.78767216,-0.79068875,-0.7947518,-0.79068875,-0.7846248,-0.78262407,-0.78868794,-0.7957676,-0.79373604,-0.7866564,-0.78262407,-0.7866564,-0.7927203,-0.7917045,-0.7856406,-0.78160834,-0.7846248,-0.7897037,-0.7856406,-0.778561,-0.7735129,-0.77652943,-0.78160834,-0.7795768,-0.77148134,-0.7684648,-0.77148134,-0.7775452,-0.7755444,-0.7684648,-0.7644017,-0.76541746,-0.7684648,-0.7644017,-0.75633705,-0.7532897,-0.75633705,-0.7624009,-0.76036936,-0.7543055,-0.752274,-0.7583378,-0.76643324,-0.76541746,-0.7573221,-0.752274,-0.7543055,-0.7583378,-0.7573221,-0.752274,-0.74925745,-0.752274,-0.7583378,-0.75532126,-0.7472259,-0.7361139,-0.72801846,-0.7219546,-0.7097961,-0.6956675,-0.68655634,-0.68350905,-0.67846096,-0.6582378,-0.6289342,-0.60261637,-0.5894729,-0.59455174,-0.608711,-0.6279184,-0.6491574,-0.6663332,-0.6744286,-0.66836476,-0.65925354,-0.66328585,-0.6875721,-0.7239554,-0.7543055,-0.77148134,-0.7795768,-0.7846248,-0.7846248,-0.7775452,-0.7694806,-0.7644017,-0.7684648,-0.7735129,-0.77046555,-0.7644017,-0.75935364,-0.7633859,-0.7775452,-0.80284727,-0.83113503,-0.84024626,-0.77148134,-0.56217,-0.20526356,0.24672568,0.6602694,0.893836,0.8867564,0.6663332,0.29425156,-0.1203078,-0.49543667,-0.7724971,-0.91809154,-0.941362,-0.89485186,-0.8341824,-0.79776835,-0.7846248,-0.7866564,-0.79373604,-0.80284727,-0.8089111,-0.804848,-0.79373604,-0.7846248,-0.78160834,-0.78160834,-0.7755444,-0.76541746,-0.75633705,-0.75532126,-0.7583378,-0.752274,-0.74116194,-0.73306656,-0.7320508,-0.7350981,-0.731035,-0.719923,-0.70779526,-0.7027472,-0.70071566,-0.6916045,-0.67846096,-0.66836476,-0.6653174,-0.66328585,-0.65420544,-0.6390304,-0.62487113,-0.6157599,-0.6076952,-0.59353596,-0.5743286,-0.557122,-0.5470258,-0.5379145,-0.51972294,-0.49543667,-0.47118115,-0.45400536,-0.43883032,-0.41860718,-0.39435172,-0.37311274,-0.36098498,-0.35489035,-0.34479415,-0.3326664,-0.32758754,-0.3366987,-0.35793763,-0.38320893,-0.41355908,-0.45095807,-0.50153136,-0.557122,-0.60464793,-0.6450943,-0.6815083,-0.71890724,-0.7532897,-0.7755444,-0.78767216,-0.79776835,-0.8119277,-0.8240554,-0.8250712,-0.82002306,-0.814975,-0.8190073,-0.8240554,-0.8230704,-0.81599075,-0.8109119,-0.81294346,-0.8190073,-0.81799155,-0.8119277,-0.8068796,-0.8109119,-0.81799155,-0.81599075,-0.8089111,-0.80383223,-0.8058638,-0.80992687,-0.80789536,-0.79776835,-0.78868794,-0.79068875,-0.7967526,-0.79776835,-0.7917045,-0.78262407,-0.78059256,-0.78059256,-0.7745287,-0.76541746,-0.7583378,-0.7583378,-0.7633859,-0.7624009,-0.7583378,-0.7543055,-0.7573221,-0.76138514,-0.7573221,-0.7472259,-0.7421777,-0.7472259,-0.7573221,-0.75935364,-0.7532897,-0.7462101,-0.7462101,-0.75125813,-0.75125813,-0.74824166,-0.74417853,-0.7472259,-0.752274,-0.74925745,-0.74116194,-0.7361139,-0.7401462,-0.74824166,-0.74925745,-0.7421777,-0.7370989,-0.73811466,-0.74316275,-0.7421777,-0.7361139,-0.7300192,-0.7320508,-0.73811466,-0.7370989,-0.731035,-0.72598696,-0.7300192,-0.7350981,-0.7350981,-0.7270027,-0.719923,-0.7219546,-0.72903425,-0.72903425,-0.719923,-0.70779526,-0.6996999,-0.6946518,-0.68554056,-0.6713813,-0.65722203,-0.6511581,-0.6450943,-0.6289342,-0.60464793,-0.58442473,-0.5803924,-0.59353596,-0.6117276,-0.6289342,-0.6420777,-0.6511581,-0.65620625,-0.65420544,-0.6552212,-0.6703655,-0.70173144,-0.7361139,-0.7583378,-0.7624009,-0.7573221,-0.75633705,-0.7583378,-0.7583378,-0.7532897,-0.7472259,-0.74824166,-0.75125813,-0.74925745,-0.74316275,-0.73811466,-0.73913044,-0.7543055,-0.78262407,-0.8058638,-0.7967526,-0.6996999,-0.46511734,-0.11021161,0.29425156,0.6016314,0.703763,0.5874721,0.30234706,-0.05662179,-0.3973682,-0.6804925,-0.86856484,-0.9464102,-0.93225086,-0.86754906,-0.8058638,-0.7684648,-0.7573221,-0.7583378,-0.7624009,-0.767449,-0.77046555,-0.7644017,-0.7502424,-0.7370989,-0.73408234,-0.7361139,-0.7350981,-0.7300192,-0.7229396,-0.7209388,-0.719923,-0.7138592,-0.7027472,-0.6926203,-0.6916045,-0.6946518,-0.6926203,-0.68350905,-0.6734128,-0.6703655,-0.6703655,-0.66430163,-0.6511581,-0.63699883,-0.63093495,-0.6269027,-0.6177914,-0.6016314,-0.58340895,-0.5722971,-0.5652174,-0.5530896,-0.53489804,-0.5146749,-0.5005156,-0.48737204,-0.46816468,-0.4438784,-0.41860718,-0.40140057,-0.38825703,-0.3700654,-0.34682566,-0.3255868,-0.314444,-0.31041175,-0.30333203,-0.29323584,-0.2901885,-0.3053636,-0.33568293,-0.37612927,-0.4196229,-0.4671489,-0.52477103,-0.58340895,-0.6339823,-0.6723971,-0.70576376,-0.74116194,-0.7735129,-0.7957676,-0.80789536,-0.814975,-0.8271027,-0.8392305,-0.8442786,-0.84024626,-0.83519816,-0.83621395,-0.841262,-0.84227777,-0.8371989,-0.83113503,-0.8321508,-0.8392305,-0.84227777,-0.8382147,-0.8331666,-0.83519816,-0.84227777,-0.8442786,-0.84024626,-0.8341824,-0.83519816,-0.8382147,-0.83621395,-0.8281185,-0.8190073,-0.81799155,-0.8220546,-0.8230704,-0.8169757,-0.80992687,-0.8089111,-0.8109119,-0.8089111,-0.8008157,-0.7917045,-0.79068875,-0.7947518,-0.7947518,-0.78868794,-0.78262407,-0.78262407,-0.7856406,-0.7856406,-0.7795768,-0.7735129,-0.77652943,-0.7846248,-0.78767216,-0.7846248,-0.77652943,-0.7775452,-0.78059256,-0.78160834,-0.77652943,-0.7724971,-0.7745287,-0.78160834,-0.7836091,-0.7795768,-0.7745287,-0.7755444,-0.78059256,-0.78059256,-0.7745287,-0.767449,-0.7694806,-0.7755444,-0.77652943,-0.7694806,-0.7573221,-0.75125813,-0.7472259,-0.74116194,-0.7300192,-0.7178915,-0.71081185,-0.704748,-0.6875721,-0.6623009,-0.6390304,-0.6289342,-0.6359831,-0.65318966,-0.6703655,-0.68655634,-0.70173144,-0.70779526,-0.704748,-0.6976683,-0.70071566,-0.7239554,-0.76036936,-0.7917045,-0.8068796,-0.80992687,-0.8119277,-0.81395924,-0.81395924,-0.8068796,-0.8018315,-0.80284727,-0.80789536,-0.8089111,-0.8018315,-0.7947518,-0.7947518,-0.8008157,-0.81799155,-0.841262,-0.8574221,-0.8341824,-0.70173144,-0.42771834,-0.04246247,0.36704886,0.65017307,0.7209389,0.5803925,0.2780608,-0.094020784,-0.45095807,-0.7361139,-0.9090111,-0.96561754,-0.93831474,-0.8806926,-0.8321508,-0.8109119,-0.8068796,-0.8119277,-0.8220546,-0.8291343,-0.8281185,-0.8169757,-0.80383223,-0.79776835,-0.79776835,-0.7947518,-0.7866564,-0.77652943,-0.7735129,-0.7755444,-0.7724971,-0.7633859,-0.7532897,-0.75125813,-0.7532897,-0.752274,-0.74116194,-0.72903425,-0.7239554,-0.7239554,-0.71890724,-0.70576376,-0.68957293,-0.6825241,-0.6825241,-0.6804925,-0.6693498,-0.6552212,-0.64611006,-0.6400461,-0.63195074,-0.61375916,-0.5915044,-0.57632935,-0.5642016,-0.5490265,-0.5257869,-0.4994998,-0.48029244,-0.46511734,-0.4489265,-0.42670256,-0.40444785,-0.3913043,-0.3852405,-0.37917662,-0.3690496,-0.36098498,-0.3680339,-0.3892728,-0.4196229,-0.45298964,-0.4924202,-0.54499424,-0.6016314,-0.65318966,-0.6926203,-0.72598696,-0.76138514,-0.7967526,-0.8240554,-0.8371989,-0.8442786,-0.8544055,-0.86754906,-0.87564445,-0.87361294,-0.8695806,-0.8705656,-0.8746287,-0.87564445,-0.86856484,-0.8604694,-0.8604694,-0.8655175,-0.86856484,-0.8645017,-0.8614852,-0.8645017,-0.8705656,-0.87259716,-0.8665333,-0.8574221,-0.8564371,-0.8614852,-0.86351675,-0.8574221,-0.8493574,-0.8473259,-0.8513582,-0.8513582,-0.84227777,-0.83011925,-0.8240554,-0.8250712,-0.8271027,-0.8220546,-0.81599075,-0.81395924,-0.8169757,-0.81799155,-0.8109119,-0.80284727,-0.80284727,-0.8068796,-0.8089111,-0.8018315,-0.7927203,-0.7917045,-0.7947518,-0.79776835,-0.79373604,-0.78868794,-0.79068875,-0.79776835,-0.8018315,-0.79776835,-0.79068875,-0.7897037,-0.7947518,-0.79776835,-0.79373604,-0.78767216,-0.78868794,-0.79373604,-0.79776835,-0.7947518,-0.78868794,-0.7897037,-0.79373604,-0.7957676,-0.7897037,-0.78160834,-0.78059256,-0.7856406,-0.78868794,-0.7846248,-0.7775452,-0.778561,-0.7846248,-0.78767216,-0.7836091,-0.7775452,-0.77652943,-0.78059256,-0.7846248,-0.7795768,-0.77046555,-0.7644017,-0.76036936,-0.752274,-0.7370989,-0.7219546,-0.7158907,-0.7128434,-0.704748,-0.68350905,-0.6552212,-0.6349981,-0.62487113,-0.62385535,-0.63093495,-0.64712584,-0.6744286,-0.6996999,-0.71081185,-0.70173144,-0.68957293,-0.6916045,-0.7138592,-0.7472259,-0.7755444,-0.7957676,-0.8119277,-0.8220546,-0.82103884,-0.8109119,-0.7997999,-0.79776835,-0.8018315,-0.804848,-0.7997999,-0.7927203,-0.7927203,-0.79878414,-0.8058638,-0.8190073,-0.8442786,-0.8715814,-0.8594536,-0.731035,-0.44794148,-0.041446686,0.403432,0.74014616,0.86856484,0.7684648,0.47321272,0.06674874,-0.34076184,-0.6693498,-0.87564445,-0.95552135,-0.9474259,-0.89989996,-0.85338974,-0.8271027,-0.8230704,-0.8341824,-0.84834164,-0.8544055,-0.84631014,-0.83519816,-0.8291343,-0.83113503,-0.83011925,-0.82103884,-0.8109119,-0.8058638,-0.8068796,-0.80789536,-0.79776835,-0.7836091,-0.7755444,-0.7735129,-0.7724971,-0.7644017,-0.7543055,-0.74925745,-0.74925745,-0.7472259,-0.7370989,-0.7229396,-0.71687573,-0.7158907,-0.714875,-0.70373225,-0.68655634,-0.67544436,-0.6693498,-0.66328585,-0.6511581,-0.6329665,-0.619823,-0.6107118,-0.6006156,-0.5793767,-0.5541054,-0.5328665,-0.5146749,-0.49746823,-0.47422856,-0.4499423,-0.43175066,-0.42063868,-0.41051173,-0.3953367,-0.38219315,-0.37917662,-0.38825703,-0.40444785,-0.42063868,-0.4438784,-0.48229313,-0.5328665,-0.5854405,-0.6299192,-0.6693498,-0.7097961,-0.752274,-0.78767216,-0.80992687,-0.8230704,-0.8382147,-0.85338974,-0.8655175,-0.86754906,-0.8655175,-0.86754906,-0.8746287,-0.8796768,-0.87361294,-0.8645017,-0.86250097,-0.8665333,-0.86856484,-0.8614852,-0.85237396,-0.84834164,-0.85034245,-0.85338974,-0.84834164,-0.84024626,-0.8371989,-0.841262,-0.84529436,-0.84227777,-0.8341824,-0.83113503,-0.8341824,-0.83621395,-0.8321508,-0.8230704,-0.82002306,-0.8220546,-0.8230704,-0.81799155,-0.8089111,-0.8058638,-0.80789536,-0.8109119,-0.8068796,-0.8008157,-0.7997999,-0.8058638,-0.8089111,-0.80284727,-0.79373604,-0.79068875,-0.79373604,-0.7997999,-0.79878414,-0.7927203,-0.7917045,-0.7947518,-0.7967526,-0.7927203,-0.7856406,-0.7856406,-0.7917045,-0.79776835,-0.79373604,-0.7846248,-0.78059256,-0.7846248,-0.78868794,-0.7866564,-0.78059256,-0.7795768,-0.7846248,-0.79068875,-0.7866564,-0.7795768,-0.778561,-0.78262407,-0.78767216,-0.7846248,-0.778561,-0.77652943,-0.78059256,-0.7856406,-0.78160834,-0.7755444,-0.7745287,-0.778561,-0.78160834,-0.77652943,-0.7694806,-0.767449,-0.77046555,-0.7745287,-0.7694806,-0.76138514,-0.75935364,-0.7644017,-0.7694806,-0.76643324,-0.76036936,-0.7583378,-0.7624009,-0.767449,-0.76036936,-0.7462101,-0.73408234,-0.72801846,-0.7239554,-0.714875,-0.70173144,-0.6916045,-0.68350905,-0.6693498,-0.6440785,-0.6157599,-0.59858406,-0.6056637,-0.6289342,-0.6521739,-0.6703655,-0.67947674,-0.68350905,-0.6804925,-0.6744286,-0.67846096,-0.70071566,-0.73811466,-0.7755444,-0.7947518,-0.7967526,-0.7947518,-0.7947518,-0.7947518,-0.79068875,-0.78262407,-0.78059256,-0.7846248,-0.7897037,-0.7846248,-0.77652943,-0.7755444,-0.79373604,-0.83113503,-0.8614852,-0.8564371,-0.7532897,-0.5085802,-0.12941903,0.3326664,0.73408234,0.94136214,0.8958677,0.6329665,0.23155057,-0.1911043,-0.5581378,-0.82103884,-0.9514583,-0.96460176,-0.91304344,-0.8554213,-0.8291343,-0.83113503,-0.8382147,-0.84024626,-0.8392305,-0.84024626,-0.8392305,-0.83011925,-0.8190073,-0.8109119,-0.8109119,-0.80992687,-0.80284727,-0.7927203,-0.7856406,-0.7846248,-0.7846248,-0.77652943,-0.76541746,-0.75935364,-0.75935364,-0.76036936,-0.752274,-0.73913044,-0.731035,-0.72903425,-0.72903425,-0.719923,-0.70576376,-0.6946518,-0.6905887,-0.6885879,-0.67846096,-0.66328585,-0.6521739,-0.6450943,-0.6390304,-0.62487113,-0.6056637,-0.5894729,-0.57734513,-0.5642016,-0.5409619,-0.5106118,-0.48432475,-0.4671489,-0.45400536,-0.43578303,-0.41555983,-0.39939976,-0.3913043,-0.38825703,-0.3801924,-0.37412852,-0.37714505,-0.3953367,-0.42467105,-0.4570219,-0.4924202,-0.535883,-0.5894729,-0.6440785,-0.6875721,-0.7219546,-0.752274,-0.7836091,-0.8109119,-0.82608694,-0.8331666,-0.8392305,-0.85034245,-0.8614852,-0.8645017,-0.8614852,-0.8604694,-0.8645017,-0.86856484,-0.8645017,-0.8574221,-0.8554213,-0.8594536,-0.86250097,-0.8574221,-0.8473259,-0.841262,-0.84329355,-0.85034245,-0.8493574,-0.8442786,-0.84227777,-0.84529436,-0.84834164,-0.84227777,-0.83113503,-0.8240554,-0.82608694,-0.83113503,-0.8281185,-0.82002306,-0.814975,-0.81599075,-0.81799155,-0.81294346,-0.80383223,-0.7997999,-0.804848,-0.8109119,-0.8089111,-0.8018315,-0.7957676,-0.7967526,-0.79878414,-0.7947518,-0.7846248,-0.778561,-0.78059256,-0.7846248,-0.7836091,-0.7795768,-0.778561,-0.7846248,-0.7917045,-0.7897037,-0.78160834,-0.7775452,-0.7795768,-0.7846248,-0.78160834,-0.7745287,-0.7694806,-0.77148134,-0.7755444,-0.7724971,-0.76643324,-0.7644017,-0.77046555,-0.7775452,-0.7755444,-0.7684648,-0.76138514,-0.7633859,-0.767449,-0.7644017,-0.7583378,-0.7543055,-0.75935364,-0.76643324,-0.767449,-0.7644017,-0.7633859,-0.767449,-0.7735129,-0.77046555,-0.7624009,-0.7573221,-0.7583378,-0.76138514,-0.75935364,-0.752274,-0.7472259,-0.74925745,-0.75532126,-0.7543055,-0.7502424,-0.7472259,-0.7502424,-0.752274,-0.7451943,-0.731035,-0.7178915,-0.71081185,-0.70779526,-0.6976683,-0.6845248,-0.6713813,-0.66430163,-0.6511581,-0.6279184,-0.6016314,-0.5864563,-0.59455174,-0.62083876,-0.6450943,-0.6612851,-0.6693498,-0.6723971,-0.6744286,-0.6744286,-0.6815083,-0.70373225,-0.73811466,-0.77046555,-0.7856406,-0.78160834,-0.7735129,-0.7724971,-0.7755444,-0.7735129,-0.767449,-0.7624009,-0.7644017,-0.7694806,-0.76643324,-0.7573221,-0.74925745,-0.7633859,-0.7997999,-0.8331666,-0.8271027,-0.7178915,-0.4671489,-0.092020035,0.34682572,0.7027472,0.85745287,0.7694807,0.48029244,0.08697188,-0.3043478,-0.63093495,-0.8554213,-0.95752215,-0.952474,-0.8867564,-0.81799155,-0.7846248,-0.7836091,-0.7917045,-0.79373604,-0.7927203,-0.7917045,-0.7927203,-0.7856406,-0.7745287,-0.7644017,-0.7644017,-0.767449,-0.7624009,-0.7532897,-0.7462101,-0.7451943,-0.7462101,-0.74116194,-0.7300192,-0.7209388,-0.71890724,-0.719923,-0.71182764,-0.6986841,-0.68655634,-0.68350905,-0.6845248,-0.67947674,-0.667349,-0.65420544,-0.64712584,-0.6420777,-0.63093495,-0.6157599,-0.59959984,-0.5894729,-0.5814082,-0.5652174,-0.54397845,-0.52375525,-0.509596,-0.49848402,-0.4772451,-0.45197386,-0.42771834,-0.4115275,-0.39939976,-0.3801924,-0.35793763,-0.33974606,-0.33368218,-0.33368218,-0.32758754,-0.31952286,-0.31952286,-0.33873034,-0.37714505,-0.4196229,-0.46511734,-0.51264334,-0.56623316,-0.619823,-0.6623009,-0.6956675,-0.7270027,-0.75935364,-0.78868794,-0.8058638,-0.8109119,-0.81294346,-0.82103884,-0.8281185,-0.8291343,-0.8240554,-0.82103884,-0.8250712,-0.83011925,-0.8291343,-0.8230704,-0.82002306,-0.8240554,-0.83113503,-0.83011925,-0.8240554,-0.82002306,-0.8220546,-0.8271027,-0.8240554,-0.81599075,-0.8089111,-0.80992687,-0.814975,-0.8119277,-0.804848,-0.79878414,-0.7997999,-0.80284727,-0.7997999,-0.7917045,-0.7856406,-0.78767216,-0.7927203,-0.79068875,-0.78059256,-0.77046555,-0.7694806,-0.7724971,-0.77148134,-0.7644017,-0.75633705,-0.75532126,-0.7583378,-0.7573221,-0.752274,-0.74925745,-0.7532897,-0.76036936,-0.76138514,-0.75633705,-0.7502424,-0.752274,-0.7573221,-0.75532126,-0.74824166,-0.74316275,-0.7462101,-0.752274,-0.752274,-0.7462101,-0.7401462,-0.74417853,-0.752274,-0.752274,-0.7472259,-0.74116194,-0.74417853,-0.7502424,-0.75125813,-0.7472259,-0.7421777,-0.7451943,-0.7502424,-0.7502424,-0.7462101,-0.7421777,-0.7451943,-0.74925745,-0.7462101,-0.7370989,-0.72903425,-0.7270027,-0.7249712,-0.7158907,-0.70071566,-0.68957293,-0.68554056,-0.68554056,-0.67544436,-0.6511581,-0.62385535,-0.60363215,-0.59353596,-0.59455174,-0.6066795,-0.6279184,-0.6552212,-0.6734128,-0.6723971,-0.65925354,-0.6521739,-0.6653174,-0.6956675,-0.72801846,-0.75125813,-0.76541746,-0.7745287,-0.778561,-0.7735129,-0.76541746,-0.75935364,-0.7624009,-0.767449,-0.76643324,-0.75935364,-0.752274,-0.7543055,-0.7583378,-0.75935364,-0.77046555,-0.7957676,-0.8220546,-0.80284727,-0.66328585,-0.37917662,0.005063534,0.38828778,0.6349981,0.672397,0.51162755,0.19716811,-0.17088115,-0.5055637,-0.7583378,-0.9019315,-0.9443786,-0.9160908,-0.8574221,-0.7997999,-0.7644017,-0.7573221,-0.7684648,-0.78160834,-0.78059256,-0.7694806,-0.7573221,-0.752274,-0.75125813,-0.7472259,-0.73811466,-0.7300192,-0.7300192,-0.73408234,-0.7320508,-0.7229396,-0.7138592,-0.71182764,-0.7128434,-0.70779526,-0.69665253,-0.68655634,-0.6845248,-0.6845248,-0.6774452,-0.66328585,-0.6501424,-0.64712584,-0.64611006,-0.64106196,-0.62588686,-0.60969603,-0.60261637,-0.59858406,-0.5894729,-0.5722971,-0.5530896,-0.53994614,-0.5298192,-0.5146749,-0.4914044,-0.4671489,-0.4499423,-0.43578303,-0.41860718,-0.39435172,-0.37108117,-0.35590613,-0.34682566,-0.3366987,-0.32253945,-0.31244326,-0.31647557,-0.3316506,-0.34984225,-0.37209696,-0.40444785,-0.45298964,-0.51264334,-0.5692497,-0.6188072,-0.6623009,-0.70576376,-0.7472259,-0.7775452,-0.7967526,-0.8109119,-0.8281185,-0.8442786,-0.85338974,-0.8513582,-0.8473259,-0.85034245,-0.8564371,-0.85843784,-0.85338974,-0.84834164,-0.85034245,-0.8554213,-0.8544055,-0.84631014,-0.8382147,-0.84024626,-0.84834164,-0.85237396,-0.8493574,-0.8442786,-0.84529436,-0.8493574,-0.8493574,-0.84329355,-0.8371989,-0.8382147,-0.84329355,-0.84227777,-0.8341824,-0.82608694,-0.82608694,-0.83011925,-0.83011925,-0.8220546,-0.8119277,-0.8089111,-0.80992687,-0.8058638,-0.7967526,-0.78868794,-0.78767216,-0.79068875,-0.79068875,-0.7836091,-0.7775452,-0.7795768,-0.7866564,-0.7897037,-0.7846248,-0.778561,-0.7795768,-0.7846248,-0.78767216,-0.7836091,-0.7775452,-0.7795768,-0.7856406,-0.7866564,-0.78262407,-0.77652943,-0.778561,-0.7846248,-0.7866564,-0.7795768,-0.7724971,-0.7735129,-0.7795768,-0.78262407,-0.7795768,-0.7745287,-0.7775452,-0.78262407,-0.7836091,-0.778561,-0.77148134,-0.77148134,-0.77148134,-0.76541746,-0.7502424,-0.73408234,-0.7300192,-0.7300192,-0.7229396,-0.70677954,-0.68350905,-0.6663332,-0.6552212,-0.6450943,-0.6380146,-0.6430627,-0.66328585,-0.68957293,-0.70779526,-0.7097961,-0.7027472,-0.70173144,-0.7128434,-0.7320508,-0.75532126,-0.7795768,-0.8058638,-0.82608694,-0.8321508,-0.8250712,-0.814975,-0.8119277,-0.81395924,-0.814975,-0.80992687,-0.804848,-0.8068796,-0.81294346,-0.81294346,-0.80789536,-0.81599075,-0.84631014,-0.8766602,-0.8574221,-0.71687573,-0.43276644,-0.045509815,0.37006545,0.67544425,0.78059244,0.6602694,0.35187387,-0.045509815,-0.42467105,-0.7178915,-0.8968834,-0.9676491,-0.95752215,-0.90494806,-0.84834164,-0.8190073,-0.82103884,-0.83621395,-0.84529436,-0.84024626,-0.83113503,-0.8271027,-0.8271027,-0.8240554,-0.814975,-0.804848,-0.8018315,-0.80383223,-0.8018315,-0.7927203,-0.78160834,-0.77652943,-0.7775452,-0.77652943,-0.76643324,-0.75633705,-0.75125813,-0.7502424,-0.7462101,-0.73408234,-0.7219546,-0.714875,-0.7138592,-0.70881104,-0.6956675,-0.67947674,-0.6713813,-0.667349,-0.6602693,-0.6450943,-0.6289342,-0.6177914,-0.608711,-0.5975683,-0.57632935,-0.5541054,-0.5379145,-0.5257869,-0.509596,-0.48432475,-0.4560061,-0.43578303,-0.4216237,-0.40949595,-0.3923201,-0.37714505,-0.37108117,-0.37412852,-0.38117737,-0.3892728,-0.4074952,-0.44184685,-0.49038863,-0.5419469,-0.5874721,-0.6299192,-0.6764294,-0.7249712,-0.76643324,-0.79373604,-0.8119277,-0.83113503,-0.8493574,-0.86351675,-0.86754906,-0.86754906,-0.87259716,-0.8796768,-0.8827241,-0.8766602,-0.86856484,-0.86754906,-0.8715814,-0.8746287,-0.86856484,-0.8594536,-0.8594536,-0.8645017,-0.86856484,-0.86351675,-0.8574221,-0.8564371,-0.8604694,-0.86250097,-0.8564371,-0.84834164,-0.8473259,-0.85338974,-0.8574221,-0.8554213,-0.8493574,-0.8473259,-0.8493574,-0.8493574,-0.84227777,-0.83519816,-0.8341824,-0.8382147,-0.8392305,-0.83113503,-0.82103884,-0.82002306,-0.8230704,-0.8240554,-0.8169757,-0.8058638,-0.80284727,-0.8058638,-0.80789536,-0.80284727,-0.79776835,-0.79878414,-0.804848,-0.8089111,-0.80383223,-0.7957676,-0.7947518,-0.79878414,-0.8008157,-0.7957676,-0.7897037,-0.7897037,-0.7947518,-0.79776835,-0.7927203,-0.7856406,-0.7856406,-0.7897037,-0.7917045,-0.7866564,-0.7795768,-0.78059256,-0.78767216,-0.7917045,-0.7897037,-0.7836091,-0.7836091,-0.79068875,-0.79373604,-0.78868794,-0.78059256,-0.778561,-0.78160834,-0.7836091,-0.778561,-0.77148134,-0.77148134,-0.7775452,-0.78160834,-0.77652943,-0.7694806,-0.76643324,-0.76541746,-0.7583378,-0.74116194,-0.7239554,-0.71687573,-0.7178915,-0.7158907,-0.70373225,-0.68350905,-0.66328585,-0.6491574,-0.63699883,-0.6269027,-0.6289342,-0.6491574,-0.67947674,-0.70173144,-0.704748,-0.6956675,-0.6916045,-0.70071566,-0.7209388,-0.7451943,-0.7724971,-0.7997999,-0.8240554,-0.8341824,-0.8240554,-0.8058638,-0.7967526,-0.79776835,-0.8018315,-0.8018315,-0.79776835,-0.7967526,-0.79878414,-0.8008157,-0.79878414,-0.81294346,-0.84631014,-0.8796768,-0.8544055,-0.6926203,-0.37714505,0.04754138,0.49038863,0.8078953,0.9110426,0.7795768,0.450958,0.026302457,-0.3801924,-0.693636,-0.8817083,-0.95047325,-0.9352982,-0.8837399,-0.8341824,-0.8119277,-0.81799155,-0.83519816,-0.84631014,-0.84227777,-0.83113503,-0.8250712,-0.8250712,-0.8250712,-0.8169757,-0.804848,-0.79776835,-0.79878414,-0.7997999,-0.7927203,-0.7836091,-0.7694806,-0.76643324,-0.7633859,-0.75633705,-0.75125813,-0.75125813,-0.75125813,-0.7472259,-0.7350981,-0.7229396,-0.7178915,-0.71890724,-0.7158907,-0.70373225,-0.6875721,-0.67846096,-0.6744286,-0.6703655,-0.65620625,-0.63699883,-0.62283957,-0.61375916,-0.6056637,-0.58848786,-0.5652174,-0.54601,-0.5318507,-0.5156599,-0.4914044,-0.46511734,-0.4448942,-0.43276644,-0.4216237,-0.40444785,-0.38625622,-0.37714505,-0.37714505,-0.3842247,-0.3913043,-0.40444785,-0.43378222,-0.4772451,-0.52880335,-0.5753444,-0.6177914,-0.66430163,-0.71182764,-0.7532897,-0.778561,-0.7947518,-0.8109119,-0.83011925,-0.8473259,-0.85237396,-0.85338974,-0.8564371,-0.86351675,-0.86856484,-0.86351675,-0.85338974,-0.84834164,-0.85034245,-0.8544055,-0.8513582,-0.84529436,-0.84329355,-0.84529436,-0.84834164,-0.84329355,-0.83621395,-0.83519816,-0.841262,-0.8473259,-0.84529436,-0.8371989,-0.8341824,-0.8371989,-0.8382147,-0.8341824,-0.8271027,-0.82608694,-0.83113503,-0.83519816,-0.83011925,-0.8220546,-0.8190073,-0.8220546,-0.8271027,-0.8220546,-0.81294346,-0.80789536,-0.8109119,-0.814975,-0.8119277,-0.804848,-0.8018315,-0.80284727,-0.8058638,-0.8018315,-0.79373604,-0.7917045,-0.79776835,-0.80383223,-0.8008157,-0.7927203,-0.7897037,-0.7917045,-0.7957676,-0.7917045,-0.7836091,-0.78059256,-0.7836091,-0.78767216,-0.7846248,-0.778561,-0.77652943,-0.78059256,-0.7836091,-0.778561,-0.77046555,-0.7684648,-0.77148134,-0.778561,-0.7775452,-0.77148134,-0.77046555,-0.7735129,-0.77652943,-0.7735129,-0.7684648,-0.7694806,-0.7755444,-0.78160834,-0.778561,-0.77148134,-0.7684648,-0.77148134,-0.7755444,-0.77148134,-0.7633859,-0.7583378,-0.76036936,-0.7644017,-0.76138514,-0.75633705,-0.75532126,-0.75935364,-0.76138514,-0.7502424,-0.7320508,-0.71687573,-0.71182764,-0.7097961,-0.6996999,-0.6845248,-0.6713813,-0.65722203,-0.6420777,-0.619823,-0.6006156,-0.59959984,-0.62083876,-0.6521739,-0.67544436,-0.6825241,-0.68350905,-0.6845248,-0.6916045,-0.70071566,-0.7178915,-0.7472259,-0.7795768,-0.80383223,-0.80992687,-0.8018315,-0.79373604,-0.79373604,-0.79776835,-0.7957676,-0.78868794,-0.7846248,-0.7866564,-0.79068875,-0.78868794,-0.7846248,-0.7967526,-0.8331666,-0.8705656,-0.86351675,-0.74417853,-0.47826087,-0.087956965,0.37006545,0.75633717,0.94742596,0.8877723,0.60667944,0.19008851,-0.23155063,-0.58340895,-0.8230704,-0.93831474,-0.9484417,-0.8938361,-0.83113503,-0.7997999,-0.80383223,-0.8240554,-0.8341824,-0.8331666,-0.8291343,-0.8281185,-0.8250712,-0.814975,-0.8018315,-0.7917045,-0.7897037,-0.79068875,-0.7856406,-0.77652943,-0.77046555,-0.77046555,-0.7694806,-0.7633859,-0.7532897,-0.74824166,-0.74824166,-0.74824166,-0.73811466,-0.7239554,-0.7138592,-0.71182764,-0.71182764,-0.704748,-0.6916045,-0.6804925,-0.6764294,-0.6744286,-0.6623009,-0.6450943,-0.63093495,-0.62283957,-0.61477494,-0.5975683,-0.5743286,-0.5541054,-0.53994614,-0.52680266,-0.50454795,-0.4772451,-0.45400536,-0.4398461,-0.4287033,-0.4115275,-0.3923201,-0.37816083,-0.3751135,-0.37714505,-0.37612927,-0.37816083,-0.3892728,-0.4165756,-0.45400536,-0.4914044,-0.53388226,-0.58340895,-0.6400461,-0.6946518,-0.7320508,-0.7583378,-0.7795768,-0.80383223,-0.82608694,-0.8382147,-0.841262,-0.8442786,-0.85237396,-0.8594536,-0.8564371,-0.8473259,-0.841262,-0.84329355,-0.8493574,-0.84834164,-0.84227777,-0.8382147,-0.841262,-0.84631014,-0.8442786,-0.8371989,-0.8321508,-0.8341824,-0.8392305,-0.83621395,-0.8271027,-0.8220546,-0.8230704,-0.82608694,-0.8230704,-0.81599075,-0.8109119,-0.8109119,-0.8119277,-0.8068796,-0.79878414,-0.7967526,-0.8008157,-0.8068796,-0.80284727,-0.79373604,-0.78767216,-0.79068875,-0.7957676,-0.79373604,-0.78767216,-0.7846248,-0.78767216,-0.7917045,-0.7866564,-0.778561,-0.7735129,-0.778561,-0.7856406,-0.7836091,-0.77652943,-0.77148134,-0.7745287,-0.78059256,-0.7795768,-0.7724971,-0.76643324,-0.767449,-0.77046555,-0.767449,-0.76036936,-0.7573221,-0.7633859,-0.77046555,-0.7694806,-0.7644017,-0.75935364,-0.76138514,-0.7644017,-0.75935364,-0.75125813,-0.74925745,-0.7532897,-0.75935364,-0.7573221,-0.74824166,-0.74316275,-0.7451943,-0.75125813,-0.7502424,-0.74316275,-0.73913044,-0.7421777,-0.74824166,-0.7451943,-0.73811466,-0.73306656,-0.7370989,-0.74417853,-0.74417853,-0.73913044,-0.7361139,-0.73913044,-0.7401462,-0.7300192,-0.71081185,-0.693636,-0.68655634,-0.68655634,-0.67947674,-0.667349,-0.65420544,-0.64106196,-0.62588686,-0.60363215,-0.5854405,-0.5864563,-0.6117276,-0.64712584,-0.6693498,-0.6744286,-0.66836476,-0.6653174,-0.6703655,-0.68350905,-0.704748,-0.73408234,-0.76643324,-0.7897037,-0.7927203,-0.7836091,-0.7735129,-0.77148134,-0.7745287,-0.77148134,-0.7644017,-0.76138514,-0.767449,-0.7755444,-0.7745287,-0.767449,-0.7724971,-0.8008157,-0.83519816,-0.83519816,-0.73811466,-0.50153136,-0.1476106,0.2679646,0.62083876,0.7907195,0.7259871,0.4590534,0.07078111,-0.31244326,-0.6289342,-0.84329355,-0.95047325,-0.9615852,-0.9069796,-0.83519816,-0.7856406,-0.7755444,-0.7866564,-0.7967526,-0.7957676,-0.79068875,-0.79068875,-0.7927203,-0.78868794,-0.7775452,-0.7694806,-0.7684648,-0.77148134,-0.7684648,-0.7573221,-0.7451943,-0.7401462,-0.73913044,-0.73306656,-0.7239554,-0.7158907,-0.7128434,-0.71182764,-0.704748,-0.693636,-0.68350905,-0.6825241,-0.6825241,-0.67544436,-0.6623009,-0.6481416,-0.64106196,-0.6380146,-0.6269027,-0.60969603,-0.5915044,-0.5793767,-0.5682647,-0.5500423,-0.52781844,-0.50657946,-0.49343592,-0.48029244,-0.45905346,-0.43073487,-0.40343207,-0.38625622,-0.3751135,-0.3599692,-0.3417468,-0.324571,-0.31850708,-0.31952286,-0.31952286,-0.32355517,-0.33771455,-0.3700654,-0.41555983,-0.46308583,-0.509596,-0.55915356,-0.61375916,-0.6663332,-0.70677954,-0.7361139,-0.76138514,-0.78767216,-0.8119277,-0.8281185,-0.8331666,-0.83519816,-0.84329355,-0.85237396,-0.85338974,-0.84834164,-0.84329355,-0.84631014,-0.8513582,-0.85034245,-0.8442786,-0.8392305,-0.84329355,-0.8513582,-0.85338974,-0.84834164,-0.84227777,-0.84329355,-0.84834164,-0.84834164,-0.841262,-0.8321508,-0.83113503,-0.8321508,-0.8291343,-0.82103884,-0.81395924,-0.81599075,-0.8220546,-0.82103884,-0.81395924,-0.80789536,-0.80789536,-0.8109119,-0.8068796,-0.7967526,-0.78868794,-0.7897037,-0.7947518,-0.7957676,-0.78868794,-0.78059256,-0.78160834,-0.7866564,-0.78767216,-0.7836091,-0.78059256,-0.7836091,-0.78767216,-0.7866564,-0.78059256,-0.7755444,-0.778561,-0.7836091,-0.78262407,-0.77652943,-0.7724971,-0.77652943,-0.78262407,-0.7846248,-0.778561,-0.7735129,-0.7755444,-0.78160834,-0.78262407,-0.7775452,-0.7735129,-0.7755444,-0.78160834,-0.78262407,-0.778561,-0.7735129,-0.77652943,-0.78262407,-0.78262407,-0.77652943,-0.77148134,-0.7745287,-0.78059256,-0.78059256,-0.7724971,-0.76036936,-0.7532897,-0.74925745,-0.74116194,-0.72903425,-0.7158907,-0.70779526,-0.6996999,-0.6804925,-0.65420544,-0.63093495,-0.62487113,-0.6390304,-0.6602693,-0.67947674,-0.693636,-0.70173144,-0.70576376,-0.70373225,-0.70173144,-0.7128434,-0.74316275,-0.78059256,-0.80789536,-0.81799155,-0.8169757,-0.81799155,-0.82002306,-0.8190073,-0.81395924,-0.8089111,-0.8119277,-0.81799155,-0.81799155,-0.8119277,-0.804848,-0.8058638,-0.8190073,-0.8442786,-0.8705656,-0.8746287,-0.8058638,-0.60363215,-0.26694882,0.15268946,0.5217545,0.70982695,0.6663332,0.42974985,0.071796775,-0.29929978,-0.62588686,-0.8604694,-0.9787611,-0.99190456,-0.941362,-0.8817083,-0.8442786,-0.8321508,-0.8321508,-0.8341824,-0.8382147,-0.84024626,-0.83519816,-0.8250712,-0.8169757,-0.81599075,-0.82002306,-0.81799155,-0.80992687,-0.7997999,-0.79878414,-0.8008157,-0.8008157,-0.7927203,-0.7836091,-0.78160834,-0.78160834,-0.77652943,-0.7644017,-0.7502424,-0.7451943,-0.74417853,-0.73913044,-0.7270027,-0.7138592,-0.70779526,-0.70576376,-0.6976683,-0.6815083,-0.66430163,-0.65318966,-0.64712584,-0.6359831,-0.6177914,-0.5975683,-0.58340895,-0.57128125,-0.55207384,-0.5257869,-0.49848402,-0.47927666,-0.4641016,-0.4438784,-0.4175914,-0.3923201,-0.37917662,-0.37311274,-0.3650173,-0.35489035,-0.34984225,-0.3599692,-0.38625622,-0.4196229,-0.4570219,-0.5005156,-0.557122,-0.6177914,-0.6723971,-0.714875,-0.75125813,-0.78767216,-0.8220546,-0.84529436,-0.85843784,-0.86754906,-0.8817083,-0.8978684,-0.9069796,-0.9039323,-0.8978684,-0.8978684,-0.9029473,-0.9029473,-0.8978684,-0.89078873,-0.89078873,-0.8938361,-0.89485186,-0.88980377,-0.88574064,-0.8867564,-0.8918045,-0.89078873,-0.8827241,-0.8746287,-0.8766602,-0.8827241,-0.8847249,-0.87764525,-0.86856484,-0.8655175,-0.86856484,-0.86754906,-0.8604694,-0.8513582,-0.8513582,-0.8544055,-0.8554213,-0.84834164,-0.84024626,-0.8392305,-0.84227777,-0.84329355,-0.8382147,-0.83113503,-0.83113503,-0.83519816,-0.83519816,-0.8281185,-0.82103884,-0.8220546,-0.8291343,-0.8331666,-0.83011925,-0.8240554,-0.8250712,-0.8291343,-0.83011925,-0.8230704,-0.8169757,-0.8169757,-0.82103884,-0.8220546,-0.814975,-0.8068796,-0.8058638,-0.80992687,-0.8109119,-0.8058638,-0.7997999,-0.8018315,-0.8089111,-0.8109119,-0.804848,-0.7967526,-0.79776835,-0.80383223,-0.8068796,-0.8008157,-0.79373604,-0.7927203,-0.79776835,-0.7997999,-0.7947518,-0.78868794,-0.7897037,-0.7947518,-0.7967526,-0.79068875,-0.7846248,-0.7836091,-0.7846248,-0.778561,-0.76138514,-0.74316275,-0.73306656,-0.72903425,-0.7229396,-0.70881104,-0.6885879,-0.6713813,-0.65722203,-0.6440785,-0.6339823,-0.6380146,-0.6602693,-0.6905887,-0.71182764,-0.7128434,-0.70373225,-0.70071566,-0.71182764,-0.73408234,-0.7583378,-0.78262407,-0.80789536,-0.8281185,-0.83519816,-0.8291343,-0.8190073,-0.81799155,-0.8220546,-0.8230704,-0.81599075,-0.8068796,-0.8058638,-0.80992687,-0.81294346,-0.81294346,-0.8281185,-0.8655175,-0.8978684,-0.8665333,-0.6956675,-0.37311274,0.055606008,0.49343598,0.7977991,0.88272417,0.73509824,0.3953675,-0.030334711,-0.42971915,-0.73306656,-0.91304344,-0.97676027,-0.96056944,-0.9100269,-0.8614852,-0.84024626,-0.84529436,-0.8604694,-0.8695806,-0.86250097,-0.8513582,-0.84529436,-0.8442786,-0.84329355,-0.83519816,-0.82608694,-0.8220546,-0.8230704,-0.8220546,-0.8119277,-0.7997999,-0.79373604,-0.79373604,-0.7927203,-0.7836091,-0.7724971,-0.76643324,-0.76643324,-0.7644017,-0.75532126,-0.74316275,-0.7370989,-0.7350981,-0.7300192,-0.7178915,-0.70373225,-0.6956675,-0.6905887,-0.6825241,-0.6653174,-0.6450943,-0.6329665,-0.62487113,-0.61477494,-0.5955675,-0.5733128,-0.5551212,-0.5419469,-0.52477103,-0.4994998,-0.47321278,-0.45499033,-0.44286257,-0.43175066,-0.41355908,-0.39435172,-0.38625622,-0.3892728,-0.39838398,-0.4074952,-0.4216237,-0.45197386,-0.49746823,-0.5490265,-0.5975683,-0.6440785,-0.6926203,-0.7401462,-0.7795768,-0.80383223,-0.82103884,-0.84024626,-0.8614852,-0.87764525,-0.8827241,-0.8806926,-0.8817083,-0.88574064,-0.888788,-0.8837399,-0.87764525,-0.87866104,-0.88574064,-0.89078873,-0.8867564,-0.87866104,-0.87564445,-0.8766602,-0.87564445,-0.86754906,-0.8574221,-0.8564371,-0.8604694,-0.8645017,-0.8604694,-0.8544055,-0.85338974,-0.8554213,-0.8554213,-0.8473259,-0.8382147,-0.83621395,-0.84024626,-0.84329355,-0.8382147,-0.83011925,-0.8281185,-0.83113503,-0.8341824,-0.8281185,-0.82002306,-0.8169757,-0.8190073,-0.82002306,-0.81395924,-0.8058638,-0.80383223,-0.80789536,-0.8119277,-0.8068796,-0.7997999,-0.79776835,-0.8018315,-0.80383223,-0.79878414,-0.7917045,-0.79068875,-0.7957676,-0.7997999,-0.79373604,-0.7846248,-0.78262407,-0.78767216,-0.7927203,-0.7897037,-0.7836091,-0.78262407,-0.78767216,-0.79068875,-0.7856406,-0.7775452,-0.77652943,-0.78262407,-0.78868794,-0.7856406,-0.778561,-0.7775452,-0.78160834,-0.7866564,-0.7846248,-0.7795768,-0.78059256,-0.78868794,-0.79373604,-0.79068875,-0.7836091,-0.78160834,-0.7856406,-0.7897037,-0.7836091,-0.7755444,-0.77148134,-0.7745287,-0.7775452,-0.7735129,-0.767449,-0.76541746,-0.76541746,-0.75935364,-0.74316275,-0.7239554,-0.7138592,-0.71182764,-0.70881104,-0.6956675,-0.6723971,-0.6501424,-0.6329665,-0.62185454,-0.6157599,-0.62487113,-0.6521739,-0.6845248,-0.70576376,-0.70373225,-0.6905887,-0.68655634,-0.6986841,-0.72598696,-0.752274,-0.7755444,-0.7967526,-0.814975,-0.8230704,-0.8169757,-0.804848,-0.7997999,-0.80284727,-0.80789536,-0.804848,-0.7957676,-0.7927203,-0.7967526,-0.80284727,-0.8109119,-0.83519816,-0.86754906,-0.87764525,-0.7947518,-0.5561062,-0.17796075,0.28009236,0.68655646,