-0.65790725,-0.6567707,-0.6500131,-0.64267176,-0.64039874,-0.6415352,-0.6421188,-0.6449141,-0.6562178,-0.6686274,-0.67145336,-0.64774,-0.58228254,-0.4676783,-0.30454147,-0.110902905,0.078742385,0.2277801,0.32204998,0.37230265,0.39036405,0.36496127,0.25938773,0.051097274,-0.23284858,-0.5111425,-0.70533395,-0.78492117,-0.77251154,-0.72170603,-0.6748322,-0.64887655,-0.64098233,-0.64436114,-0.6522554,-0.66018033,-0.6607332,-0.6556649,-0.64887655,-0.64380825,-0.6421188,-0.6387093,-0.633641,-0.6296786,-0.62912565,-0.63250446,-0.6330881,-0.6308151,-0.6257468,-0.62123144,-0.6178219,-0.6116171,-0.60427576,-0.5986239,-0.59582865,-0.5935556,-0.5884874,-0.58228254,-0.5771836,-0.57604706,-0.57604706,-0.57042587,-0.559675,-0.54840195,-0.5405078,-0.53485584,-0.5275146,-0.51903677,-0.510006,-0.5026647,-0.49532342,-0.48518682,-0.47333014,-0.46261,-0.45695817,-0.45185918,-0.44113898,-0.42759287,-0.41459966,-0.40728915,-0.40556896,-0.40387952,-0.40387952,-0.40332663,-0.40332663,-0.40446317,-0.40277374,-0.4016372,-0.40446317,-0.4118045,-0.42194098,-0.4292823,-0.4343813,-0.44282842,-0.45864755,-0.48008782,-0.50324833,-0.5252415,-0.54443955,-0.56477404,-0.5862143,-0.6037229,-0.6189584,-0.633641,-0.6500131,-0.6686274,-0.68331003,-0.6946138,-0.7019551,-0.7092657,-0.71660703,-0.71660703,-0.7109859,-0.70419747,-0.6996821,-0.700235,-0.700235,-0.6996821,-0.6985456,-0.6974398,-0.6991292,-0.6985456,-0.69685614,-0.6974398,-0.6996821,-0.70137155,-0.6996821,-0.6957196,-0.6929244,-0.6940302,-0.6991292,-0.700235,-0.6996821,-0.6974398,-0.6974398,-0.6996821,-0.7019551,-0.702508,-0.702508,-0.7036446,-0.702508,-0.69685614,-0.69178784,-0.68727255,-0.68837833,-0.6940302,-0.6985456,-0.7030609,-0.7070234,-0.71040225,-0.7126753,-0.71153873,-0.7092657,-0.7087128,-0.71040225,-0.7126753,-0.7126753,-0.71153873,-0.71040225,-0.71153873,-0.71378106,-0.7120917,-0.7109859,-0.70984936,-0.71040225,-0.71040225,-0.7075763,-0.70475036,-0.70475036,-0.7092657,-0.71322817,-0.71153873,-0.70533395,-0.6991292,-0.6991292,-0.7036446,-0.7075763,-0.7092657,-0.7081599,-0.7070234,-0.7081599,-0.7058869,-0.7019551,-0.69630325,-0.69234073,-0.6900984,-0.6855831,-0.6816206,-0.68048406,-0.6838629,-0.6906513,-0.6940302,-0.6940302,-0.69120425,-0.6900984,-0.69120425,-0.69120425,-0.6895148,-0.68727255,-0.686136,-0.68499947,-0.6821735,-0.6776582,-0.67596877,-0.67710525,-0.6810677,-0.6810677,-0.6776582,-0.6731428,-0.6703168,-0.67090046,-0.6686274,-0.66300625,-0.6567707,-0.6522554,-0.6517025,-0.652839,-0.65508133,-0.65790725,-0.66018033,-0.6607332,-0.6562178,-0.6500131,-0.64436114,-0.6415352,-0.63929296,-0.63477755,-0.631368,-0.6296786,-0.6319516,-0.63588333,-0.636467,-0.63588333,-0.63477755,-0.6370199,-0.63984585,-0.6370199,-0.6319516,-0.62685263,-0.6251632,-0.6257468,-0.62402666,-0.6223372,-0.6229209,-0.62854207,-0.63533044,-0.6376035,-0.6341939,-0.6279891,-0.62347376,-0.62123144,-0.61499596,-0.6059652,-0.59582865,-0.5890403,-0.5856614,-0.57832015,-0.5687058,-0.5562962,-0.54840195,-0.5467125,-0.5461289,-0.54557604,-0.5438866,-0.5427501,-0.5438866,-0.5427501,-0.53992414,-0.5427501,-0.55687976,-0.58169895,-0.6087911,-0.631368,-0.6421188,-0.64380825,-0.6415352,-0.6370199,-0.633641,-0.6341939,-0.63984585,-0.6466342,-0.6500131,-0.64887655,-0.6460506,-0.6454977,-0.6466342,-0.64436114,-0.63984585,-0.63588333,-0.6370199,-0.6449141,-0.65790725,-0.67090046,-0.6748322,-0.66018033,-0.61048055,-0.5054906,-0.34121734,-0.13123745,0.08553088,0.26731277,0.3920536,0.4648831,0.4981799,0.48632336,0.39770532,0.20747638,-0.07760596,-0.38864398,-0.6421188,-0.7815423,-0.8018461,-0.7504877,-0.686136,-0.64774,-0.6415352,-0.6522554,-0.6635592,-0.666938,-0.6646957,-0.6595967,-0.6517025,-0.64436114,-0.6387093,-0.6376035,-0.6381564,-0.636467,-0.6308151,-0.6251632,-0.6229209,-0.6229209,-0.6223372,-0.61840546,-0.61220074,-0.61048055,-0.61220074,-0.6127536,-0.61220074,-0.60992765,-0.60937476,-0.60710174,-0.5997604,-0.58679795,-0.5726682,-0.5630846,-0.5591221,-0.55347025,-0.54443955,-0.5337193,-0.5246886,-0.51903677,-0.5133848,-0.5038012,-0.48911858,-0.47501963,-0.46261,-0.45075333,-0.4394496,-0.43155533,-0.42421407,-0.41631985,-0.40387952,-0.38864398,-0.37454504,-0.36662012,-0.3643778,-0.36099887,-0.35589993,-0.353074,-0.3542105,-0.3598624,-0.36379415,-0.36606717,-0.37113547,-0.38188636,-0.39712185,-0.4118045,-0.42363042,-0.43662363,-0.4546851,-0.47726196,-0.50042236,-0.5218626,-0.54557604,-0.57153165,-0.598071,-0.6178219,-0.633641,-0.6466342,-0.66300625,-0.6793476,-0.69178784,-0.6991292,-0.7019551,-0.70533395,-0.7087128,-0.7070234,-0.7019551,-0.6946138,-0.69178784,-0.69234073,-0.6940302,-0.69685614,-0.6996821,-0.70419747,-0.7064705,-0.70533395,-0.70137155,-0.69630325,-0.69685614,-0.7008186,-0.702508,-0.7036446,-0.7058869,-0.70984936,-0.71322817,-0.7109859,-0.7064705,-0.7019551,-0.70475036,-0.7126753,-0.71660703,-0.7171906,-0.7143647,-0.71153873,-0.71153873,-0.7120917,-0.71153873,-0.7120917,-0.71605414,-0.71943295,-0.7182964,-0.71550125,-0.7126753,-0.7149176,-0.72170603,-0.72563773,-0.7262214,-0.7228425,-0.7211224,-0.7222589,-0.72170603,-0.7171906,-0.7120917,-0.71153873,-0.71378106,-0.71378106,-0.70984936,-0.70475036,-0.7036446,-0.7081599,-0.71378106,-0.71550125,-0.71378106,-0.7120917,-0.7120917,-0.7109859,-0.7064705,-0.7008186,-0.6974398,-0.6974398,-0.6979927,-0.69630325,-0.69234073,-0.69178784,-0.69234073,-0.69178784,-0.69178784,-0.6900984,-0.69178784,-0.6957196,-0.6951667,-0.69120425,-0.68782544,-0.68782544,-0.6895148,-0.68837833,-0.68275714,-0.67596877,-0.67427933,-0.6787947,-0.6844466,-0.68499947,-0.68275714,-0.67993116,-0.67710525,-0.6748322,-0.67372644,-0.6725899,-0.67427933,-0.67993116,-0.6810677,-0.67655236,-0.6697639,-0.6658015,-0.6646957,-0.6652486,-0.666938,-0.6675216,-0.6703168,-0.672037,-0.6675216,-0.6590438,-0.6511496,-0.6522554,-0.66018033,-0.6680745,-0.6697639,-0.6658015,-0.6612861,-0.65790725,-0.65508133,-0.652839,-0.6517025,-0.65394485,-0.65790725,-0.65846014,-0.65452844,-0.650566,-0.64774,-0.64832366,-0.64887655,-0.64832366,-0.64832366,-0.650566,-0.6517025,-0.650566,-0.6454977,-0.64098233,-0.63929296,-0.6387093,-0.6319516,-0.6200949,-0.6082382,-0.6025864,-0.60144985,-0.5969345,-0.583972,-0.5630846,-0.54784906,-0.5427501,-0.5461289,-0.55291736,-0.5562962,-0.5557433,-0.5517808,-0.5467125,-0.5450231,-0.5546068,-0.5777672,-0.60654885,-0.63026214,-0.6421188,-0.6449141,-0.6466342,-0.6500131,-0.6500131,-0.6466342,-0.6415352,-0.63984585,-0.64380825,-0.64832366,-0.64942944,-0.6466342,-0.64380825,-0.64098233,-0.63929296,-0.6370199,-0.63533044,-0.6421188,-0.6595967,-0.6776582,-0.6844466,-0.6652486,-0.6054123,-0.490808,-0.31357223,-0.08494729,0.1532613,0.35424113,0.48801267,0.5625316,0.5890709,0.5597056,0.43438125,0.19334674,-0.1351999,-0.4676783,-0.7143647,-0.8317642,-0.83290076,-0.7736174,-0.7092657,-0.6703168,-0.6641121,-0.6748322,-0.68331003,-0.68331003,-0.6776582,-0.6703168,-0.66242266,-0.652839,-0.64267176,-0.6376035,-0.6415352,-0.6522554,-0.6590438,-0.65735435,-0.64774,-0.6370199,-0.6296786,-0.6257468,-0.6223372,-0.6189584,-0.61557955,-0.6116171,-0.60654885,-0.598071,-0.5884874,-0.58283544,-0.5771836,-0.5726682,-0.5659106,-0.5557433,-0.54784906,-0.5410607,-0.5314771,-0.52017325,-0.5083165,-0.49928582,-0.4919445,-0.48122436,-0.46485233,-0.4484803,-0.4377601,-0.42986596,-0.42194098,-0.40784204,-0.38978052,-0.37961328,-0.37454504,-0.3700297,-0.3643778,-0.35534704,-0.3508317,-0.34969515,-0.34914225,-0.34855866,-0.34914225,-0.35365766,-0.3587259,-0.3649307,-0.37058252,-0.37961328,-0.39484882,-0.41459966,-0.43210828,-0.44792736,-0.46712536,-0.4930811,-0.5235521,-0.5517808,-0.57549417,-0.5946921,-0.61444306,-0.6370199,-0.6567707,-0.67145336,-0.68499947,-0.69685614,-0.7058869,-0.7109859,-0.71040225,-0.7092657,-0.71322817,-0.71605414,-0.7149176,-0.7092657,-0.70137155,-0.7030609,-0.7087128,-0.7143647,-0.71378106,-0.70984936,-0.7064705,-0.7070234,-0.7070234,-0.70475036,-0.7019551,-0.7019551,-0.7036446,-0.70419747,-0.702508,-0.6991292,-0.700235,-0.7036446,-0.7058869,-0.7058869,-0.7030609,-0.6996821,-0.6974398,-0.69630325,-0.69685614,-0.7019551,-0.70984936,-0.71605414,-0.71550125,-0.7126753,-0.71040225,-0.71322817,-0.7177436,-0.71888006,-0.71605414,-0.71322817,-0.71378106,-0.7120917,-0.7087128,-0.70475036,-0.7019551,-0.7030609,-0.7087128,-0.7120917,-0.70984936,-0.70533395,-0.702508,-0.7008186,-0.7008186,-0.7019551,-0.70419747,-0.7075763,-0.7120917,-0.7109859,-0.70475036,-0.6974398,-0.69630325,-0.7019551,-0.7092657,-0.7143647,-0.71322817,-0.7120917,-0.7126753,-0.7109859,-0.7075763,-0.7008186,-0.6985456,-0.6996821,-0.700235,-0.6991292,-0.6974398,-0.6979927,-0.70137155,-0.7036446,-0.702508,-0.6979927,-0.6979927,-0.6996821,-0.6991292,-0.6940302,-0.6866889,-0.6855831,-0.6889619,-0.69178784,-0.68837833,-0.6821735,-0.68331003,-0.6895148,-0.6985456,-0.70137155,-0.6957196,-0.69234073,-0.6895148,-0.68782544,-0.6821735,-0.6754159,-0.6754159,-0.6816206,-0.6889619,-0.69120425,-0.68837833,-0.6866889,-0.68727255,-0.68782544,-0.68275714,-0.67372644,-0.6686274,-0.6663851,-0.66186976,-0.652839,-0.64380825,-0.6376035,-0.633641,-0.62912565,-0.617269,-0.60203344,-0.59638155,-0.5986239,-0.6054123,-0.60992765,-0.6082382,-0.6059652,-0.60485935,-0.60485935,-0.60992765,-0.6223372,-0.64436114,-0.6703168,-0.6900984,-0.6957196,-0.6929244,-0.6900984,-0.6895148,-0.69178784,-0.6906513,-0.68837833,-0.69120425,-0.69630325,-0.70137155,-0.6985456,-0.6906513,-0.6855831,-0.6816206,-0.6821735,-0.6793476,-0.67596877,-0.67710525,-0.686136,-0.7036446,-0.7205695,-0.7290473,-0.7205695,-0.67710525,-0.58228254,-0.42703998,-0.21761304,0.008769512,0.21085525,0.35762,0.44737446,0.48856568,0.4665724,0.3559307,0.13802576,-0.16453439,-0.48067147,-0.72791076,-0.8549247,-0.8656448,-0.8086345,-0.7431463,-0.7030609,-0.6946138,-0.7008186,-0.70137155,-0.6946138,-0.68727255,-0.6838629,-0.68331003,-0.6787947,-0.672037,-0.666938,-0.6635592,-0.66242266,-0.6590438,-0.652839,-0.6471871,-0.64267176,-0.63984585,-0.633641,-0.6274363,-0.6246103,-0.6229209,-0.6195113,-0.6127536,-0.6025864,-0.5935556,-0.5895932,-0.5890403,-0.58452487,-0.5766307,-0.5664635,-0.5562962,-0.54557604,-0.53427225,-0.5235521,-0.5156579,-0.510006,-0.5054906,-0.49421757,-0.47953498,-0.46654177,-0.45526868,-0.44451785,-0.43210828,-0.41800928,-0.40784204,-0.39936417,-0.39429587,-0.3869546,-0.3790604,-0.37454504,-0.37227196,-0.37171906,-0.37058252,-0.36889315,-0.36944604,-0.37113547,-0.3739614,-0.37678736,-0.3813027,-0.39202285,-0.40728915,-0.42703998,-0.44565433,-0.46485233,-0.48573977,-0.5094531,-0.5337193,-0.5562962,-0.5771836,-0.5992075,-0.62123144,-0.64322466,-0.6612861,-0.6725899,-0.68048406,-0.6855831,-0.6900984,-0.6934773,-0.6957196,-0.700235,-0.70475036,-0.7087128,-0.7087128,-0.7064705,-0.70533395,-0.70533395,-0.70533395,-0.702508,-0.6985456,-0.6957196,-0.6974398,-0.700235,-0.6985456,-0.6940302,-0.6895148,-0.68727255,-0.686136,-0.6821735,-0.68048406,-0.6816206,-0.68727255,-0.6940302,-0.6946138,-0.6906513,-0.68727255,-0.6838629,-0.6844466,-0.6844466,-0.6838629,-0.6855831,-0.6895148,-0.69234073,-0.6929244,-0.69234073,-0.6940302,-0.6985456,-0.70419747,-0.70533395,-0.7058869,-0.70533395,-0.70533395,-0.70475036,-0.702508,-0.6996821,-0.700235,-0.7030609,-0.7075763,-0.7070234,-0.70475036,-0.70419747,-0.70475036,-0.70533395,-0.702508,-0.6985456,-0.69685614,-0.6985456,-0.702508,-0.7030609,-0.6996821,-0.6979927,-0.6974398,-0.6979927,-0.6957196,-0.69234073,-0.6895148,-0.6900984,-0.69234073,-0.6929244,-0.6929244,-0.6946138,-0.6991292,-0.7019551,-0.6996821,-0.6929244,-0.6855831,-0.6816206,-0.67993116,-0.6754159,-0.66921103,-0.6635592,-0.6595967,-0.65508133,-0.64832366,-0.63984585,-0.6370199,-0.6421188,-0.6517025,-0.6567707,-0.652839,-0.64039874,-0.62402666,-0.6087911,-0.595245,-0.58735085,-0.583972,-0.58283544,-0.58452487,-0.5862143,-0.5946921,-0.6116171,-0.6341939,-0.65508133,-0.6641121,-0.6646957,-0.66242266,-0.66242266,-0.6663851,-0.6697639,-0.6697639,-0.6697639,-0.6686274,-0.6686274,-0.6646957,-0.6612861,-0.6607332,-0.66300625,-0.6675216,-0.6686274,-0.6663851,-0.6646957,-0.6635592,-0.6658015,-0.66921103,-0.67655236,-0.6895148,-0.6985456,-0.6900984,-0.6471871,-0.5602586,-0.42535055,-0.24356872,-0.041482985,0.1487459,0.2960943,0.39036405,0.44003308,0.44568515,0.3841592,0.22440135,-0.035831153,-0.34011155,-0.60089695,-0.75386643,-0.7928153,-0.7589655,-0.7064705,-0.6697639,-0.65394485,-0.6517025,-0.6556649,-0.6595967,-0.6607332,-0.6556649,-0.6500131,-0.6454977,-0.64380825,-0.6460506,-0.6449141,-0.63929296,-0.6330881,-0.62629974,-0.6217843,-0.6167161,-0.6127536,-0.60992765,-0.6059652,-0.6037229,-0.598071,-0.5930027,-0.5901768,-0.5895932,-0.58679795,-0.57887304,-0.5692894,-0.5602586,-0.55347025,-0.5500914,-0.5438866,-0.5359924,-0.53034055,-0.52582514,-0.5196204,-0.50886947,-0.49421757,-0.4817773,-0.4738831,-0.46712536,-0.4546851,-0.43720722,-0.4213881,-0.4100843,-0.40277374,-0.39429587,-0.3824392,-0.37113547,-0.3649307,-0.36324126,-0.36099887,-0.36041534,-0.36041534,-0.36041534,-0.36041534,-0.35703647,-0.35476345,-0.3587259,-0.37058252,-0.3864017,-0.4010536,-0.41742563,-0.43720722,-0.46147346,-0.48742914,-0.50886947,-0.52806747,-0.54784906,-0.57042587,-0.595245,-0.6167161,-0.6341939,-0.650566,-0.66186976,-0.6703168,-0.672037,-0.67145336,-0.6731428,-0.67655236,-0.68048406,-0.68048406,-0.67710525,-0.67596877,-0.6787947,-0.6844466,-0.6855831,-0.68275714,-0.6787947,-0.67710525,-0.6787947,-0.6787947,-0.67655236,-0.6754159,-0.6748322,-0.67596877,-0.67596877,-0.672037,-0.6675216,-0.666938,-0.66921103,-0.67090046,-0.6731428,-0.67655236,-0.6787947,-0.68048406,-0.67710525,-0.6725899,-0.67090046,-0.67372644,-0.6787947,-0.6787947,-0.6748322,-0.67145336,-0.672037,-0.6776582,-0.68275714,-0.68499947,-0.686136,-0.68782544,-0.6895148,-0.6889619,-0.6866889,-0.686136,-0.6866889,-0.68782544,-0.6855831,-0.6821735,-0.67993116,-0.6821735,-0.6838629,-0.6810677,-0.6754159,-0.6703168,-0.67090046,-0.67710525,-0.6810677,-0.68331003,-0.68275714,-0.6816206,-0.6787947,-0.6725899,-0.6658015,-0.66242266,-0.6646957,-0.67145336,-0.67372644,-0.672037,-0.6697639,-0.66921103,-0.6703168,-0.6686274,-0.6646957,-0.6612861,-0.66186976,-0.6635592,-0.6607332,-0.6567707,-0.6517025,-0.64942944,-0.6511496,-0.6511496,-0.6511496,-0.6511496,-0.650566,-0.6500131,-0.6466342,-0.64267176,-0.6421188,-0.6460506,-0.6511496,-0.6522554,-0.64887655,-0.64380825,-0.6387093,-0.63477755,-0.62685263,-0.6167161,-0.6087911,-0.60654885,-0.6116171,-0.6167161,-0.617269,-0.6116171,-0.5997604,-0.5862143,-0.5749413,-0.5687058,-0.56701636,-0.5692894,-0.5687058,-0.5636375,-0.5602586,-0.5692894,-0.5913133,-0.6189584,-0.64039874,-0.6511496,-0.6522554,-0.6500131,-0.64832366,-0.6449141,-0.6421188,-0.6421188,-0.6466342,-0.6533919,-0.6556649,-0.65394485,-0.6511496,-0.6500131,-0.6517025,-0.64887655,-0.64380825,-0.6387093,-0.6370199,-0.6387093,-0.64098233,-0.6471871,-0.6612861,-0.67710525,-0.68331003,-0.66018033,-0.5918662,-0.4688148,-0.2921319,-0.0792954,0.13633645,0.3141557,0.43496478,0.5026952,0.5303403,0.5083473,0.39939487,0.17980063,-0.12727499,-0.4394496,-0.66921103,-0.7753375,-0.7758904,-0.72677433,-0.6776582,-0.6500131,-0.64436114,-0.650566,-0.6607332,-0.6686274,-0.66921103,-0.66300625,-0.6567707,-0.6533919,-0.6533919,-0.6517025,-0.64832366,-0.64436114,-0.6421188,-0.6415352,-0.6387093,-0.6330881,-0.6279891,-0.6251632,-0.6229209,-0.6178219,-0.61048055,-0.60485935,-0.60034406,-0.598071,-0.5918662,-0.583972,-0.5771836,-0.5726682,-0.5698423,-0.5641904,-0.5551597,-0.5461289,-0.5405078,-0.5337193,-0.5218626,-0.5054906,-0.48629266,-0.47164077,-0.4637158,-0.457511,-0.45075333,-0.44227552,-0.43269187,-0.4213881,-0.40728915,-0.39147002,-0.37792385,-0.3700297,-0.36662012,-0.36268836,-0.3598624,-0.358173,-0.3587259,-0.36041534,-0.358173,-0.3542105,-0.3542105,-0.36041534,-0.3734085,-0.3864017,-0.39881128,-0.41291028,-0.43324482,-0.457511,-0.48122436,-0.5026647,-0.5224463,-0.5438866,-0.5664635,-0.58790374,-0.60654885,-0.62402666,-0.64267176,-0.6595967,-0.67090046,-0.67596877,-0.67655236,-0.6776582,-0.6816206,-0.68275714,-0.6821735,-0.6810677,-0.6816206,-0.6838629,-0.68331003,-0.6782417,-0.6731428,-0.67145336,-0.67427933,-0.67710525,-0.67710525,-0.67655236,-0.6754159,-0.67710525,-0.6776582,-0.6782417,-0.6782417,-0.6782417,-0.6787947,-0.67710525,-0.6754159,-0.6754159,-0.6793476,-0.68331003,-0.6844466,-0.6844466,-0.68275714,-0.68499947,-0.68837833,-0.68837833,-0.68727255,-0.68331003,-0.6821735,-0.68275714,-0.68275714,-0.6810677,-0.6793476,-0.6810677,-0.6844466,-0.6855831,-0.6855831,-0.68499947,-0.68499947,-0.68782544,-0.68727255,-0.68499947,-0.6838629,-0.68499947,-0.68837833,-0.68837833,-0.6855831,-0.68275714,-0.68048406,-0.6810677,-0.67993116,-0.6776582,-0.6776582,-0.6810677,-0.6855831,-0.68499947,-0.6821735,-0.6787947,-0.6787947,-0.6816206,-0.6821735,-0.6816206,-0.68048406,-0.68048406,-0.6821735,-0.6821735,-0.6821735,-0.68331003,-0.68499947,-0.6866889,-0.6838629,-0.6782417,-0.6748322,-0.6782417,-0.6838629,-0.6866889,-0.6855831,-0.6821735,-0.67993116,-0.67993116,-0.6787947,-0.6776582,-0.67710525,-0.6787947,-0.6810677,-0.67993116,-0.67710525,-0.6748322,-0.6748322,-0.67596877,-0.6731428,-0.66921103,-0.6675216,-0.6697639,-0.6754159,-0.6776582,-0.6754159,-0.6725899,-0.6703168,-0.6703168,-0.6680745,-0.6641121,-0.6612861,-0.66186976,-0.6646957,-0.6641121,-0.6607332,-0.65735435,-0.6567707,-0.6567707,-0.6517025,-0.6415352,-0.62912565,-0.6200949,-0.6178219,-0.6195113,-0.6229209,-0.6257468,-0.6251632,-0.6178219,-0.60203344,-0.5856614,-0.5749413,-0.57604706,-0.581146,-0.5800095,-0.57153165,-0.5641904,-0.5664635,-0.5856614,-0.61220074,-0.6381564,-0.6595967,-0.6725899,-0.6782417,-0.67596877,-0.6686274,-0.66242266,-0.66242266,-0.6663851,-0.6697639,-0.6703168,-0.66921103,-0.6697639,-0.6725899,-0.672037,-0.66921103,-0.6652486,-0.6635592,-0.6652486,-0.6635592,-0.6607332,-0.66186976,-0.6748322,-0.6957196,-0.7075763,-0.6929244,-0.6341939,-0.5184838,-0.338975,-0.106387556,0.13747287,0.3480363,0.49197507,0.5721153,0.6076853,0.5935862,0.4925282,0.27407038,-0.045998394,-0.38526517,-0.6511496,-0.7894365,-0.807498,-0.75838184,-0.6979927,-0.66018033,-0.64942944,-0.6567707,-0.6675216,-0.672037,-0.6697639,-0.6646957,-0.66186976,-0.6612861,-0.6607332,-0.65846014,-0.65394485,-0.6511496,-0.64942944,-0.6454977,-0.64098233,-0.63588333,-0.6319516,-0.6279891,-0.62123144,-0.6127536,-0.60485935,-0.60144985,-0.60034406,-0.5975181,-0.5913133,-0.583972,-0.5771836,-0.57380474,-0.5664635,-0.5562962,-0.5450231,-0.5337193,-0.5246886,-0.5156579,-0.5043541,-0.49421757,-0.4868763,-0.48067147,-0.47050422,-0.45637447,-0.44000244,-0.42363042,-0.4100843,-0.3959853,-0.38074982,-0.36775666,-0.3587259,-0.35196817,-0.34686917,-0.34011155,-0.33614904,-0.33783847,-0.3406644,-0.34011155,-0.336702,-0.33445966,-0.336702,-0.34462684,-0.353074,-0.3621047,-0.37227196,-0.38809115,-0.40839493,-0.42872941,-0.44792736,-0.46823114,-0.49139166,-0.5173473,-0.53992414,-0.56139517,-0.5800095,-0.60203344,-0.6251632,-0.6421188,-0.6533919,-0.66018033,-0.6675216,-0.67655236,-0.68275714,-0.6838629,-0.6816206,-0.6821735,-0.686136,-0.6895148,-0.6895148,-0.686136,-0.6838629,-0.68499947,-0.68499947,-0.68331003,-0.68048406,-0.67993116,-0.6810677,-0.6816206,-0.67993116,-0.67710525,-0.6782417,-0.6816206,-0.68331003,-0.68331003,-0.6838629,-0.68727255,-0.6929244,-0.6940302,-0.69120425,-0.6866889,-0.6855831,-0.686136,-0.68499947,-0.6838629,-0.68048406,-0.6821735,-0.6866889,-0.68782544,-0.68782544,-0.68837833,-0.69120425,-0.6946138,-0.6951667,-0.6906513,-0.68275714,-0.67993116,-0.68048406,-0.6816206,-0.6855831,-0.6889619,-0.6940302,-0.6985456,-0.6979927,-0.6940302,-0.6900984,-0.6906513,-0.6934773,-0.6929244,-0.6889619,-0.6838629,-0.6838629,-0.68727255,-0.6895148,-0.68727255,-0.68331003,-0.6821735,-0.6838629,-0.6844466,-0.6810677,-0.6754159,-0.67427933,-0.67710525,-0.6782417,-0.67596877,-0.67090046,-0.6675216,-0.6686274,-0.6703168,-0.6703168,-0.6686274,-0.6686274,-0.67145336,-0.672037,-0.67090046,-0.6663851,-0.66242266,-0.66018033,-0.6567707,-0.65394485,-0.6517025,-0.6562178,-0.66300625,-0.6663851,-0.6675216,-0.6641121,-0.6612861,-0.66018033,-0.6595967,-0.6590438,-0.65735435,-0.65735435,-0.6567707,-0.65452844,-0.6517025,-0.6522554,-0.6590438,-0.6646957,-0.6646957,-0.6590438,-0.6511496,-0.6500131,-0.6522554,-0.6556649,-0.65508133,-0.6522554,-0.6522554,-0.65452844,-0.6556649,-0.6517025,-0.64322466,-0.636467,-0.62854207,-0.61840546,-0.60937476,-0.6037229,-0.6082382,-0.617269,-0.6200949,-0.6116171,-0.5935556,-0.5777672,-0.57097876,-0.57042587,-0.57042587,-0.5664635,-0.56194806,-0.5608115,-0.56477404,-0.5777672,-0.595245,-0.61840546,-0.6387093,-0.6500131,-0.6500131,-0.6454977,-0.6421188,-0.64436114,-0.64942944,-0.65508133,-0.6590438,-0.66186976,-0.6641121,-0.6635592,-0.66018033,-0.65735435,-0.65452844,-0.6522554,-0.64887655,-0.64436114,-0.6421188,-0.6466342,-0.6567707,-0.672037,-0.6866889,-0.6900984,-0.67655236,-0.6246103,-0.51452136,-0.34011155,-0.11317593,0.12899506,0.34349036,0.5015588,0.59979105,0.6421187,0.6138902,0.48577046,0.2396369,-0.09680396,-0.443412,-0.71040225,-0.84193146,-0.84531033,-0.78095865,-0.71040225,-0.672037,-0.6680745,-0.67655236,-0.68275714,-0.6793476,-0.67427933,-0.66921103,-0.6641121,-0.6590438,-0.6556649,-0.6562178,-0.66018033,-0.6612861,-0.6556649,-0.6466342,-0.63984585,-0.63533044,-0.6319516,-0.6274363,-0.6223372,-0.6200949,-0.6189584,-0.61613244,-0.60710174,-0.5969345,-0.5907297,-0.5890403,-0.58679795,-0.5800095,-0.56759995,-0.5574327,-0.5500914,-0.5427501,-0.53427225,-0.52017325,-0.50493777,-0.49421757,-0.4846033,-0.47501963,-0.46598887,-0.45582163,-0.44565433,-0.43210828,-0.41631985,-0.4016372,-0.39147002,-0.3864017,-0.38074982,-0.37171906,-0.358173,-0.34686917,-0.34121734,-0.33783847,-0.33728552,-0.33728552,-0.3406644,-0.34686917,-0.35138458,-0.35476345,-0.35589993,-0.36155182,-0.37454504,-0.39033347,-0.40839493,-0.42703998,-0.44792736,-0.47164077,-0.495907,-0.51903677,-0.5410607,-0.5653269,-0.5884874,-0.6087911,-0.6251632,-0.6376035,-0.6511496,-0.6658015,-0.6776582,-0.68499947,-0.68782544,-0.69178784,-0.69685614,-0.700235,-0.6991292,-0.6951667,-0.69234073,-0.69120425,-0.69120425,-0.69120425,-0.6900984,-0.69178784,-0.6940302,-0.6940302,-0.6900984,-0.68499947,-0.68499947,-0.6895148,-0.6951667,-0.6979927,-0.69685614,-0.69685614,-0.69685614,-0.6951667,-0.69178784,-0.68727255,-0.68727255,-0.6889619,-0.6906513,-0.6906513,-0.6906513,-0.6940302,-0.6979927,-0.6996821,-0.6979927,-0.6951667,-0.6985456,-0.7064705,-0.7126753,-0.71322817,-0.7087128,-0.70533395,-0.7064705,-0.70984936,-0.7120917,-0.7126753,-0.7143647,-0.71605414,-0.71550125,-0.7120917,-0.7064705,-0.7058869,-0.7081599,-0.71153873,-0.71153873,-0.7092657,-0.71040225,-0.7126753,-0.71378106,-0.70984936,-0.7030609,-0.700235,-0.7008186,-0.7036446,-0.7058869,-0.70419747,-0.70419747,-0.70533395,-0.70419747,-0.700235,-0.6940302,-0.6906513,-0.6900984,-0.6906513,-0.6895148,-0.68782544,-0.68727255,-0.6889619,-0.6895148,-0.68727255,-0.68275714,-0.68048406,-0.6810677,-0.6816206,-0.6810677,-0.6793476,-0.6787947,-0.6776582,-0.67596877,-0.67090046,-0.6663851,-0.666938,-0.6703168,-0.6731428,-0.672037,-0.666938,-0.6612861,-0.6556649,-0.64774,-0.636467,-0.62685263,-0.62347376,-0.6274363,-0.63477755,-0.6376035,-0.6330881,-0.6217843,-0.60654885,-0.5930027,-0.58283544,-0.5794566,-0.58228254,-0.58679795,-0.58735085,-0.58452487,-0.5862143,-0.5992075,-0.6217843,-0.6460506,-0.6641121,-0.672037,-0.6754159,-0.67655236,-0.67596877,-0.67145336,-0.6641121,-0.6607332,-0.66242266,-0.6658015,-0.6680745,-0.6680745,-0.6686274,-0.6697639,-0.67090046,-0.6697639,-0.6658015,-0.6635592,-0.66300625,-0.6635592,-0.66300625,-0.666938,-0.6810677,-0.6985456,-0.7058869,-0.6810677,-0.60937476,-0.48122436,-0.2955107,-0.07084823,0.15667081,0.3446269,0.47050416,0.53826535,0.5574633,0.5134156,0.37002957,0.10979712,-0.22550726,-0.5438866,-0.7589655,-0.8374161,-0.8125969,-0.7476617,-0.6929244,-0.666938,-0.6641121,-0.6703168,-0.67596877,-0.67655236,-0.6731428,-0.6686274,-0.6663851,-0.6652486,-0.6635592,-0.6595967,-0.65452844,-0.6500131,-0.6449141,-0.63984585,-0.631368,-0.6229209,-0.6178219,-0.61613244,-0.61444306,-0.60992765,-0.6031393,-0.598071,-0.595245,-0.5918662,-0.583972,-0.5743576,-0.56759995,-0.5653269,-0.56477404,-0.559675,-0.5506443,-0.53992414,-0.5297569,-0.52072614,-0.5094531,-0.49759644,-0.48742914,-0.4778455,-0.46712536,-0.45299566,-0.43889666,-0.42759287,-0.41969866,-0.4118045,-0.4005007,-0.3875075,-0.37678736,-0.3700297,-0.36379415,-0.35703647,-0.3508317,-0.34745282,-0.34855866,-0.35024804,-0.34855866,-0.34745282,-0.35024804,-0.35703647,-0.36775666,-0.3784768,-0.39147002,-0.4100843,-0.43210828,-0.45695817,-0.47895133,-0.50042236,-0.5252415,-0.5512279,-0.57604706,-0.59582865,-0.6110642,-0.6279891,-0.6449141,-0.65846014,-0.6658015,-0.666938,-0.66921103,-0.6725899,-0.67710525,-0.6782417,-0.6754159,-0.67372644,-0.6754159,-0.67710525,-0.6754159,-0.6725899,-0.6703168,-0.6697639,-0.6703168,-0.6680745,-0.666938,-0.6680745,-0.67090046,-0.67372644,-0.67090046,-0.6635592,-0.6595967,-0.6612861,-0.6658015,-0.66921103,-0.67090046,-0.672037,-0.6725899,-0.67145336,-0.666938,-0.66300625,-0.66300625,-0.6658015,-0.66921103,-0.6697639,-0.6686274,-0.6703168,-0.6748322,-0.6793476,-0.6793476,-0.67710525,-0.67596877,-0.67710525,-0.6810677,-0.6821735,-0.6821735,-0.68275714,-0.68331003,-0.68331003,-0.67993116,-0.6754159,-0.6731428,-0.6731428,-0.67372644,-0.672037,-0.6697639,-0.6703168,-0.6731428,-0.67596877,-0.6748322,-0.6731428,-0.67427933,-0.67655236,-0.6776582,-0.6754159,-0.67090046,-0.67090046,-0.67427933,-0.67655236,-0.67372644,-0.6675216,-0.6646957,-0.6646957,-0.6663851,-0.6658015,-0.6635592,-0.6646957,-0.6680745,-0.67090046,-0.6686274,-0.6641121,-0.6612861,-0.66300625,-0.6658015,-0.6658015,-0.66242266,-0.6595967,-0.65735435,-0.6567707,-0.65452844,-0.6517025,-0.6500131,-0.6511496,-0.6517025,-0.650566,-0.64887655,-0.64774,-0.6471871,-0.64774,-0.6449141,-0.63929296,-0.6376035,-0.6376035,-0.63929296,-0.63984585,-0.6381564,-0.6370199,-0.6370199,-0.636467,-0.6308151,-0.6217843,-0.61048055,-0.6031393,-0.6025864,-0.6059652,-0.6110642,-0.61444306,-0.60937476,-0.595245,-0.5743576,-0.5579856,-0.55347025,-0.5585692,-0.56477404,-0.5630846,-0.5551597,-0.55236447,-0.56139517,-0.58283544,-0.6076853,-0.62854207,-0.64380825,-0.6517025,-0.65394485,-0.650566,-0.6449141,-0.64322466,-0.6454977,-0.650566,-0.6517025,-0.6500131,-0.64887655,-0.6500131,-0.650566,-0.6471871,-0.6415352,-0.6387093,-0.63929296,-0.64098233,-0.63984585,-0.64039874,-0.64887655,-0.6680745,-0.686136,-0.68499947,-0.64774,-0.5608115,-0.41235733,-0.20293039,0.042619467,0.2752068,0.45413208,0.5681834,0.6285726,0.64721775,0.5964122,0.43382823,0.15043533,-0.19955158,-0.5162108,-0.72170603,-0.79395187,-0.769102,-0.7109859,-0.6641121,-0.6471871,-0.652839,-0.6646957,-0.67427933,-0.67427933,-0.6697639,-0.6652486,-0.66300625,-0.6607332,-0.65508133,-0.64887655,-0.6449141,-0.64380825,-0.64380825,-0.63984585,-0.6330881,-0.6274363,-0.62347376,-0.6200949,-0.61444306,-0.6076853,-0.6031393,-0.6031393,-0.6031393,-0.598071,-0.5890403,-0.5794566,-0.5721153,-0.5659106,-0.5562962,-0.5467125,-0.53937125,-0.53485584,-0.5297569,-0.5173473,-0.5009753,-0.48573977,-0.4738831,-0.46485233,-0.4535486,-0.4394496,-0.4259035,-0.41404682,-0.40277374,-0.3875075,-0.37058252,-0.358173,-0.3508317,-0.34745282,-0.341801,-0.33501256,-0.32936066,-0.32656538,-0.32711834,-0.3254289,-0.3248453,-0.32656538,-0.33218658,-0.34121734,-0.34855866,-0.35703647,-0.37058252,-0.38919693,-0.41235733,-0.43324482,-0.45413214,-0.47726196,-0.50324833,-0.5314771,-0.5551597,-0.5766307,-0.59638155,-0.6167161,-0.63533044,-0.64774,-0.6562178,-0.6641121,-0.67372644,-0.68275714,-0.68499947,-0.6821735,-0.6776582,-0.6748322,-0.6754159,-0.67596877,-0.67596877,-0.6754159,-0.6748322,-0.67427933,-0.67090046,-0.6675216,-0.6675216,-0.6697639,-0.6731428,-0.672037,-0.66921103,-0.666938,-0.6680745,-0.6725899,-0.67372644,-0.6725899,-0.672037,-0.672037,-0.67372644,-0.6725899,-0.66921103,-0.6663851,-0.666938,-0.67090046,-0.6754159,-0.6793476,-0.68275714,-0.68499947,-0.686136,-0.68275714,-0.6782417,-0.67596877,-0.6776582,-0.6816206,-0.6821735,-0.68048406,-0.6787947,-0.67993116,-0.68275714,-0.6816206,-0.68048406,-0.6810677,-0.6838629,-0.6889619,-0.6889619,-0.6838629,-0.6793476,-0.67710525,-0.6793476,-0.67993116,-0.6793476,-0.6782417,-0.6787947,-0.68048406,-0.6782417,-0.6754159,-0.67427933,-0.67427933,-0.6754159,-0.6725899,-0.666938,-0.66242266,-0.66242266,-0.6652486,-0.6658015,-0.6646957,-0.6635592,-0.6635592,-0.6641121,-0.66186976,-0.65735435,-0.65452844,-0.6533919,-0.65394485,-0.6522554,-0.64887655,-0.64774,-0.64832366,-0.650566,-0.64832366,-0.64436114,-0.6415352,-0.6421188,-0.6449141,-0.64436114,-0.6415352,-0.63929296,-0.63984585,-0.6421188,-0.6415352,-0.6387093,-0.63533044,-0.6341939,-0.6341939,-0.63250446,-0.6308151,-0.631368,-0.6341939,-0.6376035,-0.6370199,-0.633641,-0.6296786,-0.6279891,-0.6279891,-0.6251632,-0.6195113,-0.6127536,-0.6054123,-0.5975181,-0.5884874,-0.583972,-0.58679795,-0.5935556,-0.5975181,-0.58735085,-0.56815284,-0.5495385,-0.53992414,-0.5410607,-0.5416136,-0.53709817,-0.5286511,-0.5224463,-0.5275146,-0.54443955,-0.5698423,-0.598071,-0.6206478,-0.63250446,-0.6319516,-0.62629974,-0.62123144,-0.62123144,-0.62347376,-0.6246103,-0.62402666,-0.6251632,-0.62854207,-0.633641,-0.63588333,-0.63477755,-0.63250446,-0.63026214,-0.62854207,-0.62347376,-0.6189584,-0.61840546,-0.6274363,-0.6460506,-0.6646957,-0.6697639,-0.64832366,-0.581146,-0.45526868,-0.25656188,-0.003670752,0.25769842,0.48125494,0.6404294,0.74035096,0.78777766,0.7691326,0.64380825,0.3875383,0.03134656,-0.33614904,-0.6200949,-0.76630676,-0.78492117,-0.7312896,-0.6703168,-0.6387093,-0.6376035,-0.64942944,-0.65735435,-0.65735435,-0.65394485,-0.6511496,-0.64942944,-0.64436114,-0.63588333,-0.62912565,-0.62629974,-0.6257468,-0.62347376,-0.6178219,-0.6110642,-0.6059652,-0.6037229,-0.5997604,-0.5935556,-0.58679795,-0.58283544,-0.58169895,-0.57832015,-0.5732211,-0.5659106,-0.5574327,-0.5512279,-0.5450231,-0.53992414,-0.5354088,-0.5297569,-0.5213098,-0.50662714,-0.48970217,-0.47443599,-0.46202642,-0.45130628,-0.43662363,-0.41969866,-0.40332663,-0.38978052,-0.37737095,-0.36268836,-0.34686917,-0.3316337,-0.3203299,-0.3118828,-0.30057907,-0.28930598,-0.281381,-0.2785551,-0.27913868,-0.2774493,-0.2729339,-0.2695244,-0.27124453,-0.2780022,-0.28420705,-0.29041177,-0.29944247,-0.31412512,-0.33332318,-0.35476345,-0.37565082,-0.3976748,-0.42252463,-0.44961685,-0.47443599,-0.49873298,-0.5235521,-0.5500914,-0.57549417,-0.5946921,-0.60937476,-0.6217843,-0.63477755,-0.64774,-0.6556649,-0.65846014,-0.6595967,-0.66242266,-0.6658015,-0.6658015,-0.66242266,-0.65790725,-0.6567707,-0.6590438,-0.6590438,-0.65790725,-0.6562178,-0.6562178,-0.65846014,-0.65735435,-0.65452844,-0.6533919,-0.6556649,-0.6607332,-0.66300625,-0.6635592,-0.66300625,-0.6641121,-0.6675216,-0.6675216,-0.666938,-0.6658015,-0.6680745,-0.67145336,-0.67145336,-0.66921103,-0.6686274,-0.6703168,-0.6754159,-0.67655236,-0.6748322,-0.67372644,-0.67596877,-0.6810677,-0.6838629,-0.6844466,-0.6838629,-0.6866889,-0.69120425,-0.6929244,-0.69234073,-0.6906513,-0.6906513,-0.69120425,-0.6895148,-0.6866889,-0.6855831,-0.68837833,-0.69234073,-0.6934773,-0.69178784,-0.6900984,-0.69234073,-0.69630325,-0.6957196,-0.6929244,-0.68837833,-0.68727255,-0.6889619,-0.68837833,-0.686136,-0.6838629,-0.68499947,-0.68837833,-0.68837833,-0.68499947,-0.6810677,-0.67993116,-0.6810677,-0.6816206,-0.67993116,-0.6782417,-0.67993116,-0.6838629,-0.68331003,-0.68048406,-0.67596877,-0.6731428,-0.67372644,-0.6731428,-0.67145336,-0.67090046,-0.67145336,-0.67145336,-0.6675216,-0.66186976,-0.65790725,-0.65735435,-0.66186976,-0.6646957,-0.6646957,-0.6641121,-0.6646957,-0.666938,-0.6652486,-0.66186976,-0.65790725,-0.6567707,-0.65735435,-0.6562178,-0.65394485,-0.65394485,-0.6556649,-0.6590438,-0.6567707,-0.6511496,-0.6454977,-0.6454977,-0.64774,-0.6466342,-0.64039874,-0.6308151,-0.6229209,-0.61557955,-0.60710174,-0.60034406,-0.5986239,-0.6059652,-0.61557955,-0.61557955,-0.6025864,-0.58169895,-0.5636375,-0.5557433,-0.5540539,-0.5540539,-0.5517808,-0.5472654,-0.5461289,-0.5512279,-0.56815284,-0.5924191,-0.62123144,-0.64436114,-0.6533919,-0.6522554,-0.64832366,-0.64774,-0.6500131,-0.6517025,-0.6517025,-0.6511496,-0.65394485,-0.6595967,-0.66242266,-0.66300625,-0.6595967,-0.65735435,-0.6567707,-0.6533919,-0.64942944,-0.6460506,-0.6471871,-0.65735435,-0.6754159,-0.6951667,-0.70419747,-0.68837833,-0.62685263,-0.49983877,-0.30057907,-0.045998394,0.22157538,0.4535792,0.6235045,0.72735786,0.7725116,0.74824536,0.6206784,0.36834013,0.011595488,-0.36268836,-0.65846014,-0.81146044,-0.8266959,-0.7651703,-0.69630325,-0.6595967,-0.65846014,-0.6697639,-0.6787947,-0.6793476,-0.67710525,-0.6754159,-0.672037,-0.6680745,-0.6641121,-0.66242266,-0.6595967,-0.65394485,-0.6471871,-0.64098233,-0.6381564,-0.6381564,-0.636467,-0.631368,-0.62629974,-0.62402666,-0.62123144,-0.61499596,-0.60710174,-0.5986239,-0.5935556,-0.5907297,-0.58283544,-0.57097876,-0.5562962,-0.5461289,-0.5405078,-0.53316647,-0.5246886,-0.5133848,-0.50324833,-0.493634,-0.48236096,-0.46936768,-0.45413214,-0.4394496,-0.4259035,-0.40953147,-0.39202285,-0.37678736,-0.36606717,-0.358173,-0.34914225,-0.33839136,-0.32711834,-0.319777,-0.3175347,-0.31526166,-0.3124357,-0.30960977,-0.3118828,-0.3169511,-0.322603,-0.32825482,-0.333876,-0.34462684,-0.3592788,-0.37565082,-0.39484882,-0.41631985,-0.44227552,-0.47105712,-0.4970435,-0.52072614,-0.5467125,-0.57604706,-0.60710174,-0.6330881,-0.6500131,-0.6612861,-0.6731428,-0.68499947,-0.6946138,-0.700235,-0.7030609,-0.70475036,-0.7064705,-0.70475036,-0.7019551,-0.6991292,-0.6991292,-0.700235,-0.6985456,-0.6946138,-0.6906513,-0.69120425,-0.6951667,-0.69685614,-0.69685614,-0.6946138,-0.6934773,-0.6934773,-0.6929244,-0.69178784,-0.69234073,-0.6974398,-0.7036446,-0.7064705,-0.70533395,-0.7019551,-0.702508,-0.7036446,-0.70419747,-0.7030609,-0.70137155,-0.7036446,-0.70984936,-0.71378106,-0.71660703,-0.71660703,-0.71660703,-0.71660703,-0.71378106,-0.7092657,-0.7064705,-0.7092657,-0.7143647,-0.7177436,-0.71888006,-0.71605414,-0.7143647,-0.7149176,-0.71378106,-0.7143647,-0.7143647,-0.71660703,-0.7200166,-0.71943295,-0.71660703,-0.7126753,-0.71153873,-0.7126753,-0.7109859,-0.7064705,-0.700235,-0.6996821,-0.70419747,-0.7070234,-0.7070234,-0.7036446,-0.70137155,-0.7036446,-0.7075763,-0.7087128,-0.7064705,-0.7030609,-0.6996821,-0.69685614,-0.6974398,-0.6979927,-0.700235,-0.7019551,-0.6991292,-0.6940302,-0.6900984,-0.6906513,-0.6934773,-0.6946138,-0.6934773,-0.69178784,-0.69234073,-0.6940302,-0.6934773,-0.6895148,-0.68275714,-0.6810677,-0.68275714,-0.68331003,-0.6816206,-0.67993116,-0.67993116,-0.6821735,-0.6816206,-0.67655236,-0.6703168,-0.66921103,-0.6725899,-0.67427933,-0.6731428,-0.6675216,-0.66242266,-0.66018033,-0.65508133,-0.64774,-0.6387093,-0.6341939,-0.6341939,-0.63533044,-0.63533044,-0.6341939,-0.63477755,-0.6308151,-0.61840546,-0.5997604,-0.5794566,-0.57042587,-0.5726682,-0.5771836,-0.57887304,-0.57604706,-0.57549417,-0.5856614,-0.60427576,-0.6274363,-0.64887655,-0.6663851,-0.67596877,-0.67655236,-0.6725899,-0.6658015,-0.66300625,-0.6641121,-0.6641121,-0.6635592,-0.66186976,-0.66242266,-0.6652486,-0.6675216,-0.6658015,-0.66242266,-0.6607332,-0.6595967,-0.6567707,-0.652839,-0.6511496,-0.65790725,-0.6754159,-0.6940302,-0.70137155,-0.6816206,-0.617269,-0.49532342,-0.30736744,-0.065196455,0.19165719,0.41631985,0.577767,0.67486286,0.7115694,0.672037,0.5218934,0.24811482,-0.111486554,-0.46654177,-0.7233954,-0.8374161,-0.82893825,-0.75727606,-0.68499947,-0.6454977,-0.64098233,-0.6533919,-0.6612861,-0.6595967,-0.6517025,-0.6466342,-0.64436114,-0.64098233,-0.63477755,-0.6279891,-0.6257468,-0.6257468,-0.6251632,-0.6223372,-0.6167161,-0.6110642,-0.6059652,-0.5992075,-0.5907297,-0.58283544,-0.5794566,-0.5766307,-0.5721153,-0.5630846,-0.5517808,-0.54443955,-0.53992414,-0.5337193,-0.5246886,-0.5133848,-0.5038012,-0.49532342,-0.48573977,-0.47274655,-0.45864755,-0.44679087,-0.4377601,-0.42703998,-0.41122085,-0.39202285,-0.37227196,-0.35589993,-0.3406644,-0.3248453,-0.31019336,-0.30116266,-0.29437423,-0.28930598,-0.28196472,-0.27348685,-0.26841855,-0.2689715,-0.27066088,-0.27066088,-0.27010798,-0.27179736,-0.27631277,-0.28479058,-0.2915483,-0.30171555,-0.31808758,-0.341801,-0.36775666,-0.39091706,-0.41349387,-0.43607068,-0.46088988,-0.48573977,-0.5094531,-0.5325829,-0.5591221,-0.58735085,-0.60992765,-0.6257468,-0.63477755,-0.6415352,-0.64887655,-0.65452844,-0.65790725,-0.6590438,-0.66018033,-0.6607332,-0.6590438,-0.65394485,-0.64942944,-0.6517025,-0.65452844,-0.6562178,-0.65452844,-0.650566,-0.64942944,-0.650566,-0.650566,-0.64774,-0.6421188,-0.6415352,-0.6454977,-0.64887655,-0.64942944,-0.6466342,-0.64380825,-0.64267176,-0.6387093,-0.633641,-0.62854207,-0.6279891,-0.631368,-0.63588333,-0.63929296,-0.64039874,-0.64436114,-0.64942944,-0.6517025,-0.650566,-0.6471871,-0.6460506,-0.6460506,-0.6454977,-0.6449141,-0.64380825,-0.64774,-0.6533919,-0.65735435,-0.6567707,-0.652839,-0.6500131,-0.64942944,-0.64887655,-0.6466342,-0.6449141,-0.6454977,-0.6471871,-0.64774,-0.6454977,-0.64267176,-0.6449141,-0.64942944,-0.6522554,-0.6500131,-0.64436114,-0.64098233,-0.64098233,-0.64098233,-0.6387093,-0.63477755,-0.6330881,-0.6341939,-0.63588333,-0.6341939,-0.63026214,-0.6279891,-0.6274363,-0.6251632,-0.62123144,-0.61613244,-0.61557955,-0.6189584,-0.6206478,-0.6167161,-0.60654885,-0.59582865,-0.58790374,-0.581146,-0.5771836,-0.57604706,-0.58169895,-0.58735085,-0.58507776,-0.5721153,-0.5495385,-0.5314771,-0.5241357,-0.5269616,-0.53034055,-0.52806747,-0.5252415,-0.5241357,-0.53427225,-0.55347025,-0.5766307,-0.5997604,-0.61557955,-0.6217843,-0.6195113,-0.6138901,-0.60937476,-0.6076853,-0.60710174,-0.6059652,-0.6059652,-0.6076853,-0.6110642,-0.61220074,-0.60992765,-0.60654885,-0.60654885,-0.60937476,-0.6110642,-0.60937476,-0.60427576,-0.60144985,-0.6025864,-0.60992765,-0.6246103,-0.6387093,-0.64380825,-0.6229209,-0.55347025,-0.41969866,-0.22099185,0.020042658,0.26390314,0.47050416,0.61785245,0.7064704,0.7358357,0.68444645,0.5230299,0.24246275,-0.11203945,-0.45016974,-0.6821735,-0.77192795,-0.74652517,-0.67596877,-0.617269,-0.5935556,-0.59582865,-0.60427576,-0.6082382,-0.6082382,-0.6054123,-0.60203344,-0.5946921,-0.5856614,-0.5800095,-0.57604706,-0.5726682,-0.56815284,-0.5636375,-0.56139517,-0.5602586,-0.5562962,-0.54840195,-0.5387876,-0.53316647,-0.5314771,-0.53089345,-0.5269616,-0.5196204,-0.5133848,-0.5077637,-0.5021118,-0.495907,-0.4868763,-0.48008782,-0.47219366,-0.46202642,-0.44679087,-0.43041885,-0.41800928,-0.41066796,-0.40277374,-0.39202285,-0.37678736,-0.36041534,-0.3429067,-0.32656538,-0.30792034,-0.29041177,-0.2780022,-0.2695244,-0.26221377,-0.25428885,-0.2452581,-0.23850042,-0.23681098,-0.2356745,-0.23229563,-0.22833318,-0.22774959,-0.2305755,-0.2362274,-0.24412161,-0.25204653,-0.2644561,-0.28251755,-0.30395788,-0.3254289,-0.3508317,-0.37792385,-0.40556896,-0.43210828,-0.45526868,-0.47726196,-0.5054906,-0.53485584,-0.56194806,-0.5805625,-0.5918662,-0.60144985,-0.61048055,-0.61840546,-0.6223372,-0.62347376,-0.62685263,-0.631368,-0.6341939,-0.6319516,-0.6274363,-0.6246103,-0.6251632,-0.6279891,-0.6279891,-0.6246103,-0.6223372,-0.6217843,-0.6217843,-0.6200949,-0.6178219,-0.6178219,-0.6178219,-0.617269,-0.6138901,-0.60992765,-0.6116171,-0.6167161,-0.6223372,-0.6246103,-0.62402666,-0.6246103,-0.62685263,-0.62685263,-0.62347376,-0.6200949,-0.62123144,-0.6274363,-0.63477755,-0.6387093,-0.63929296,-0.64039874,-0.6421188,-0.6421188,-0.6381564,-0.63250446,-0.63026214,-0.631368,-0.63533044,-0.6381564,-0.6387093,-0.64098233,-0.64436114,-0.6454977,-0.64267176,-0.63929296,-0.63984585,-0.64322466,-0.6460506,-0.6454977,-0.64098233,-0.6381564,-0.6370199,-0.63533044,-0.63250446,-0.62912565,-0.62854207,-0.631368,-0.63250446,-0.63026214,-0.62629974,-0.6257468,-0.62912565,-0.63250446,-0.631368,-0.62685263,-0.62402666,-0.62402666,-0.62347376,-0.6200949,-0.6167161,-0.617269,-0.6217843,-0.6274363,-0.62629974,-0.6217843,-0.6200949,-0.6223372,-0.62685263,-0.6274363,-0.6257468,-0.6251632,-0.62402666,-0.6229209,-0.6200949,-0.6167161,-0.6167161,-0.6189584,-0.62123144,-0.6178219,-0.61444306,-0.6133065,-0.6138901,-0.61444306,-0.60937476,-0.60203344,-0.60144985,-0.6059652,-0.61048055,-0.6082382,-0.5997604,-0.5913133,-0.58679795,-0.5856614,-0.581146,-0.5732211,-0.56759995,-0.5653269,-0.5687058,-0.5726682,-0.57380474,-0.5687058,-0.5579856,-0.543303,-0.5286511,-0.52017325,-0.5184838,-0.5184838,-0.515105,-0.5071801,-0.5026647,-0.51396847,-0.53937125,-0.5692894,-0.5918662,-0.6031393,-0.6059652,-0.60654885,-0.6076853,-0.60654885,-0.60427576,-0.60485935,-0.6082382,-0.6116171,-0.61220074,-0.6116171,-0.61220074,-0.61557955,-0.6195113,-0.6167161,-0.61048055,-0.6054123,-0.6031393,-0.6031393,-0.60485935,-0.6127536,-0.6308151,-0.6517025,-0.65790725,-0.6279891,-0.5461289,-0.40219015,-0.19221026,0.05899155,0.30905676,0.51568854,0.6579379,0.7420405,0.7764739,0.74035096,0.59244967,0.31188273,-0.055582047,-0.41066796,-0.6595967,-0.7651703,-0.7589655,-0.70475036,-0.65735435,-0.636467,-0.6370199,-0.6471871,-0.6556649,-0.6595967,-0.65735435,-0.65394485,-0.6522554,-0.6522554,-0.6522554,-0.6466342,-0.63984585,-0.63533044,-0.6341939,-0.636467,-0.63533044,-0.631368,-0.6274363,-0.6246103,-0.6206478,-0.6133065,-0.60654885,-0.6031393,-0.60203344,-0.5997604,-0.5918662,-0.58228254,-0.57604706,-0.57380474,-0.57042587,-0.56194806,-0.5495385,-0.53992414,-0.5337193,-0.5286511,-0.51903677,-0.50493777,-0.490808,-0.47726196,-0.46485233,-0.44903314,-0.43269187,-0.41856217,-0.4061526,-0.39429587,-0.3784768,-0.36324126,-0.35024804,-0.34011155,-0.33332318,-0.3248453,-0.3158145,-0.3107463,-0.30905688,-0.31019336,-0.31019336,-0.30960977,-0.31412512,-0.32315582,-0.336702,-0.35024804,-0.36551434,-0.3841287,-0.40839493,-0.43662363,-0.46485233,-0.49252814,-0.5218626,-0.55291736,-0.58228254,-0.6059652,-0.6251632,-0.64322466,-0.6607332,-0.67710525,-0.68727255,-0.6934773,-0.6991292,-0.70475036,-0.71040225,-0.7126753,-0.7109859,-0.71040225,-0.71153873,-0.71153873,-0.7081599,-0.7030609,-0.7008186,-0.7019551,-0.70419747,-0.702508,-0.6985456,-0.69685614,-0.6974398,-0.7008186,-0.7019551,-0.7019551,-0.70419747,-0.7075763,-0.71040225,-0.7087128,-0.70475036,-0.702508,-0.70419747,-0.7087128,-0.7109859,-0.71153873,-0.71153873,-0.7120917,-0.71322817,-0.71153873,-0.70984936,-0.71153873,-0.71605414,-0.7211224,-0.7222589,-0.71943295,-0.7177436,-0.71888006,-0.7222589,-0.7228425,-0.7211224,-0.7205695,-0.72170603,-0.724532,-0.7262214,-0.7273579,-0.7296002,-0.7318733,-0.7346685,-0.73297906,-0.7290473,-0.7262214,-0.72563773,-0.7262214,-0.72563773,-0.72563773,-0.7273579,-0.7301531,-0.7312896,-0.72791076,-0.724532,-0.72394836,-0.7262214,-0.7284637,-0.72563773,-0.7211224,-0.71888006,-0.71943295,-0.72170603,-0.71888006,-0.7149176,-0.7126753,-0.7149176,-0.7205695,-0.7228425,-0.7228425,-0.7222589,-0.7228425,-0.7233954,-0.7205695,-0.71660703,-0.7149176,-0.7171906,-0.7211224,-0.7211224,-0.71888006,-0.71660703,-0.71660703,-0.7177436,-0.7143647,-0.70984936,-0.7070234,-0.7087128,-0.71322817,-0.71378106,-0.71322817,-0.71378106,-0.71550125,-0.7182964,-0.71660703,-0.7109859,-0.7064705,-0.70419747,-0.70475036,-0.70419747,-0.7030609,-0.7036446,-0.70475036,-0.7058869,-0.7030609,-0.6985456,-0.69685614,-0.6974398,-0.700235,-0.700235,-0.6974398,-0.6951667,-0.6946138,-0.6940302,-0.69120425,-0.68837833,-0.68782544,-0.6900984,-0.69234073,-0.6906513,-0.686136,-0.68331003,-0.6838629,-0.68727255,-0.68727255,-0.68499947,-0.68275714,-0.68275714,-0.6844466,-0.68331003,-0.68048406,-0.6793476,-0.6810677,-0.68499947,-0.6844466,-0.6816206,-0.67655236,-0.67090046,-0.6658015,-0.65846014,-0.6517025,-0.64832366,-0.650566,-0.65508133,-0.6567707,-0.6562178,-0.65508133,-0.6533919,-0.64832366,-0.633641,-0.6138901,-0.5969345,-0.58679795,-0.58735085,-0.5901768,-0.5907297,-0.5930027,-0.6031393,-0.6217843,-0.64436114,-0.6646957,-0.67993116,-0.68727255,-0.68727255,-0.68275714,-0.67655236,-0.67427933,-0.6776582,-0.6844466,-0.68782544,-0.6866889,-0.6855831,-0.68499947,-0.6855831,-0.68275714,-0.6776582,-0.67427933,-0.6731428,-0.67372644,-0.67090046,-0.6686274,-0.672037,-0.68727255,-0.71040225,-0.7233954,-0.7126753,-0.6635592,-0.5585692,-0.38468152,-0.14309412,0.12844217,0.37964392,0.5715624,0.6980232,0.77364814,0.79339886,0.7149482,0.501006,0.15722382,-0.2356745,-0.5721153,-0.7764433,-0.83686316,-0.80353546,-0.7403204,-0.6951667,-0.6838629,-0.6951667,-0.7109859,-0.7200166,-0.7200166,-0.71605414,-0.7120917,-0.7081599,-0.7036446,-0.6991292,-0.6974398,-0.6974398,-0.69630325,-0.69120425,-0.6838629,-0.6787947,-0.67710525,-0.67655236,-0.67090046,-0.66242266,-0.65394485,-0.64832366,-0.64380825,-0.63533044,-0.6251632,-0.61613244,-0.6110642,-0.6076853,-0.60089695,-0.5913133,-0.58228254,-0.57380474,-0.5659106,-0.55347025,-0.5382347,-0.5246886,-0.51396847,-0.50493777,-0.4919445,-0.47615612,-0.46033698,-0.44623798,-0.4343813,-0.41800928,-0.39881128,-0.3824392,-0.37058252,-0.36155182,-0.35196817,-0.34121734,-0.33332318,-0.33108085,-0.33218658,-0.33049715,-0.32656538,-0.3248453,-0.32825482,-0.33614904,-0.3451798,-0.3542105,-0.36606717,-0.38357574,-0.40728915,-0.43155533,-0.45695817,-0.4846033,-0.51396847,-0.5450231,-0.57153165,-0.5969345,-0.62347376,-0.6511496,-0.6782417,-0.6991292,-0.7143647,-0.72677433,-0.7369416,-0.74483573,-0.74824536,-0.74824536,-0.74935114,-0.75331354,-0.75727606,-0.7566924,-0.75276065,-0.74824536,-0.7459723,-0.7459723,-0.7431463,-0.73807806,-0.73525214,-0.73580503,-0.738631,-0.738631,-0.7363887,-0.7341156,-0.7341156,-0.7363887,-0.7363887,-0.73525214,-0.73580503,-0.738631,-0.74200976,-0.73976743,-0.73525214,-0.73297906,-0.7341156,-0.73807806,-0.738631,-0.7369416,-0.73580503,-0.7369416,-0.73976743,-0.73918384,-0.7369416,-0.73580503,-0.738631,-0.7431463,-0.74483573,-0.74428284,-0.74200976,-0.740904,-0.74200976,-0.74200976,-0.7425934,-0.7454194,-0.7476617,-0.74993473,-0.7471088,-0.74200976,-0.738631,-0.73807806,-0.740904,-0.7403204,-0.73807806,-0.73749447,-0.73918384,-0.7431463,-0.7431463,-0.73976743,-0.7369416,-0.7369416,-0.73749447,-0.73525214,-0.73073673,-0.7273579,-0.72791076,-0.7296002,-0.7273579,-0.7211224,-0.71605414,-0.71550125,-0.7200166,-0.7233954,-0.724532,-0.72394836,-0.72394836,-0.72563773,-0.724532,-0.72170603,-0.71943295,-0.7200166,-0.7228425,-0.7222589,-0.7205695,-0.7177436,-0.7171906,-0.7171906,-0.7143647,-0.7092657,-0.70533395,-0.70419747,-0.7064705,-0.7058869,-0.7036446,-0.7019551,-0.7036446,-0.7075763,-0.70984936,-0.70984936,-0.7081599,-0.7081599,-0.7075763,-0.7036446,-0.6996821,-0.700235,-0.70475036,-0.71153873,-0.7120917,-0.7070234,-0.700235,-0.6979927,-0.700235,-0.7008186,-0.6996821,-0.6974398,-0.6957196,-0.69685614,-0.69630325,-0.6940302,-0.6929244,-0.6951667,-0.6985456,-0.6991292,-0.69630325,-0.6934773,-0.6934773,-0.6957196,-0.6940302,-0.6900984,-0.6866889,-0.6855831,-0.68727255,-0.68727255,-0.68331003,-0.6782417,-0.6731428,-0.6686274,-0.66242266,-0.6590438,-0.66018033,-0.666938,-0.6731428,-0.67145336,-0.66018033,-0.64267176,-0.6246103,-0.61048055,-0.60034406,-0.59582865,-0.5975181,-0.6025864,-0.60654885,-0.6059652,-0.6082382,-0.62123144,-0.64436114,-0.6731428,-0.6940302,-0.7019551,-0.70137155,-0.6985456,-0.6979927,-0.69630325,-0.6951667,-0.69630325,-0.6996821,-0.70533395,-0.7064705,-0.70419747,-0.702508,-0.702508,-0.70475036,-0.7036446,-0.6996821,-0.69630325,-0.6957196,-0.6979927,-0.7030609,-0.7149176,-0.7312896,-0.74145687,-0.72791076,-0.6658015,-0.5387876,-0.338975,-0.08156842,0.19389951,0.44230604,0.62688327,0.7414875,0.7939825,0.77533734,0.6545284,0.4016372,0.034172297,-0.36155182,-0.6793476,-0.84813625,-0.8718496,-0.81539214,-0.74879825,-0.7120917,-0.7058869,-0.7143647,-0.7233954,-0.73073673,-0.7335627,-0.7296002,-0.7222589,-0.7149176,-0.71153873,-0.71153873,-0.7087128,-0.7036446,-0.6974398,-0.6934773,-0.69234073,-0.6889619,-0.68499947,-0.6810677,-0.6787947,-0.67655236,-0.6703168,-0.6595967,-0.64942944,-0.64322466,-0.63984585,-0.633641,-0.6246103,-0.61557955,-0.6082382,-0.6025864,-0.5930027,-0.581146,-0.56815284,-0.5579856,-0.5500914,-0.5387876,-0.52299917,-0.5054906,-0.48970217,-0.47615612,-0.46088988,-0.44396496,-0.4259035,-0.40897852,-0.39429587,-0.37737095,-0.36041534,-0.3451798,-0.33614904,-0.3316337,-0.32598186,-0.3209135,-0.3169511,-0.3158145,-0.31864053,-0.32146645,-0.32315582,-0.32656538,-0.33614904,-0.34969515,-0.36324126,-0.3784768,-0.39822763,-0.42307752,-0.45244277,-0.48067147,-0.50662714,-0.5325829,-0.5630846,-0.5969345,-0.62685263,-0.6522554,-0.6725899,-0.6900984,-0.70475036,-0.7149176,-0.7200166,-0.7233954,-0.7284637,-0.7335627,-0.73525214,-0.7341156,-0.73242617,-0.73297906,-0.73580503,-0.7341156,-0.7296002,-0.7228425,-0.7200166,-0.7222589,-0.7211224,-0.7182964,-0.7149176,-0.71322817,-0.7143647,-0.71550125,-0.7149176,-0.7149176,-0.7182964,-0.7233954,-0.7250849,-0.72394836,-0.72170603,-0.7228425,-0.72563773,-0.72563773,-0.7233954,-0.7205695,-0.7200166,-0.7233954,-0.724532,-0.724532,-0.72563773,-0.7290473,-0.7335627,-0.73297906,-0.7296002,-0.72563773,-0.72563773,-0.7284637,-0.7296002,-0.7290473,-0.7273579,-0.7290473,-0.7346685,-0.738631,-0.73918384,-0.73918384,-0.740904,-0.74428284,-0.74428284,-0.74145687,-0.7369416,-0.7346685,-0.73580503,-0.7346685,-0.7318733,-0.7296002,-0.7301531,-0.73297906,-0.73297906,-0.7312896,-0.7290473,-0.7284637,-0.7312896,-0.73073673,-0.72791076,-0.7250849,-0.7233954,-0.7228425,-0.71943295,-0.71605414,-0.71378106,-0.71660703,-0.7222589,-0.7233954,-0.7200166,-0.71322817,-0.7087128,-0.7070234,-0.70475036,-0.702508,-0.702508,-0.70475036,-0.7087128,-0.7087128,-0.70533395,-0.7019551,-0.702508,-0.70475036,-0.70419747,-0.702508,-0.700235,-0.70137155,-0.70419747,-0.7036446,-0.6996821,-0.6951667,-0.6946138,-0.69630325,-0.69685614,-0.6957196,-0.6934773,-0.6940302,-0.69630325,-0.6957196,-0.69178784,-0.68727255,-0.68499947,-0.68499947,-0.6844466,-0.68275714,-0.6810677,-0.6821735,-0.6844466,-0.68275714,-0.67710525,-0.6686274,-0.66186976,-0.65846014,-0.6562178,-0.6567707,-0.6595967,-0.6663851,-0.6748322,-0.6787947,-0.6776582,-0.67145336,-0.6641121,-0.6517025,-0.6330881,-0.6110642,-0.5913133,-0.5805625,-0.57887304,-0.58283544,-0.595245,-0.617269,-0.6466342,-0.6776582,-0.69630325,-0.7008186,-0.69685614,-0.69234073,-0.69178784,-0.69120425,-0.6900984,-0.6900984,-0.6929244,-0.69630325,-0.69685614,-0.6929244,-0.6895148,-0.6900984,-0.6929244,-0.6929244,-0.6895148,-0.6838629,-0.6821735,-0.686136,-0.69630325,-0.7120917,-0.7262214,-0.7262214,-0.6934773,-0.60203344,-0.43662363,-0.19841504,0.07987893,0.3491422,0.56591046,0.7126752,0.7928461,0.80977094,0.7375252,0.54333365,0.22102249,-0.17187572,-0.53316647,-0.774201,-0.8599929,-0.8312113,-0.7595184,-0.7036446,-0.68499947,-0.69178784,-0.7058869,-0.71550125,-0.7182964,-0.71660703,-0.70984936,-0.7019551,-0.6946138,-0.69178784,-0.69234073,-0.6906513,-0.6855831,-0.6776582,-0.67145336,-0.666938,-0.6607332,-0.6556649,-0.650566,-0.64832366,-0.6466342,-0.64039874,-0.631368,-0.6229209,-0.6178219,-0.61557955,-0.61048055,-0.60089695,-0.5895932,-0.58169895,-0.57549417,-0.5664635,-0.5551597,-0.5427501,-0.53316647,-0.5235521,-0.5105896,-0.4930811,-0.47333014,-0.45637447,-0.44172263,-0.42535055,-0.4067055,-0.3875075,-0.37282485,-0.36099887,-0.3480057,-0.333876,-0.32146645,-0.31357223,-0.3107463,-0.30736744,-0.3022685,-0.29833674,-0.29775304,-0.30171555,-0.305678,-0.30792034,-0.31298864,-0.3248453,-0.3429067,-0.36324126,-0.38468152,-0.40897852,-0.438313,-0.47219366,-0.5043541,-0.5320299,-0.5574327,-0.58452487,-0.6127536,-0.63984585,-0.6635592,-0.68499947,-0.7058869,-0.7233954,-0.7346685,-0.73807806,-0.7363887,-0.7363887,-0.738631,-0.73976743,-0.73918384,-0.73807806,-0.73807806,-0.738631,-0.73807806,-0.7335627,-0.7284637,-0.72677433,-0.7273579,-0.7262214,-0.7228425,-0.71888006,-0.7182964,-0.7200166,-0.7205695,-0.7182964,-0.71550125,-0.71660703,-0.7211224,-0.7233954,-0.7211224,-0.71660703,-0.7143647,-0.71605414,-0.7171906,-0.71660703,-0.7149176,-0.7171906,-0.7211224,-0.72394836,-0.7233954,-0.7205695,-0.7200166,-0.7222589,-0.724532,-0.7262214,-0.7273579,-0.73073673,-0.73580503,-0.73749447,-0.7363887,-0.73525214,-0.73749447,-0.7403204,-0.740904,-0.7369416,-0.73297906,-0.7335627,-0.73807806,-0.7403204,-0.73976743,-0.73580503,-0.7346685,-0.7346685,-0.73242617,-0.72791076,-0.7222589,-0.7205695,-0.72170603,-0.72170603,-0.7200166,-0.7177436,-0.7182964,-0.72170603,-0.7228425,-0.7205695,-0.71605414,-0.71378106,-0.71322817,-0.7120917,-0.7109859,-0.70984936,-0.71153873,-0.7143647,-0.7143647,-0.7109859,-0.7058869,-0.702508,-0.7019551,-0.70137155,-0.6996821,-0.6979927,-0.6979927,-0.700235,-0.700235,-0.6974398,-0.6929244,-0.6906513,-0.6900984,-0.6895148,-0.68782544,-0.686136,-0.68727255,-0.6889619,-0.68782544,-0.6838629,-0.6793476,-0.6782417,-0.68048406,-0.68275714,-0.68275714,-0.6810677,-0.6816206,-0.68275714,-0.6810677,-0.67596877,-0.6703168,-0.6675216,-0.6680745,-0.666938,-0.66186976,-0.65452844,-0.64887655,-0.64380825,-0.6381564,-0.63250446,-0.6279891,-0.62912565,-0.633641,-0.63533044,-0.63250446,-0.6251632,-0.6167161,-0.6054123,-0.5907297,-0.5732211,-0.5585692,-0.5540539,-0.5574327,-0.5653269,-0.5766307,-0.5941085,-0.6200949,-0.64832366,-0.6697639,-0.6793476,-0.6787947,-0.67655236,-0.67596877,-0.6748322,-0.67145336,-0.6680745,-0.6680745,-0.67145336,-0.67427933,-0.6748322,-0.6725899,-0.6725899,-0.6725899,-0.67090046,-0.6675216,-0.6635592,-0.66242266,-0.6646957,-0.6686274,-0.67993116,-0.69685614,-0.71040225,-0.7036446,-0.6511496,-0.5320299,-0.33783847,-0.079878986,0.20351398,0.46374655,0.66186965,0.7860575,0.84082556,0.82559013,0.70874333,0.46429932,0.10528171,-0.29268485,-0.6206478,-0.80353546,-0.8374161,-0.7815423,-0.71153873,-0.67090046,-0.6641121,-0.67372644,-0.6821735,-0.686136,-0.6866889,-0.68275714,-0.67655236,-0.6697639,-0.6658015,-0.6646957,-0.66300625,-0.65790725,-0.64942944,-0.64436114,-0.64039874,-0.636467,-0.63026214,-0.62402666,-0.6217843,-0.6217843,-0.6195113,-0.6127536,-0.6037229,-0.5969345,-0.5918662,-0.5856614,-0.5771836,-0.56815284,-0.56139517,-0.5557433,-0.54784906,-0.5354088,-0.52072614,-0.5077637,-0.4970435,-0.48518682,-0.47050422,-0.4535486,-0.4377601,-0.42252463,-0.40556896,-0.38526517,-0.36324126,-0.34631634,-0.33332318,-0.32146645,-0.30736744,-0.2921319,-0.27913868,-0.2695244,-0.26221377,-0.25656188,-0.2537359,-0.25428885,-0.25938785,-0.26163018,-0.26276666,-0.26559263,-0.27517623,-0.29099542,-0.3112992,-0.33277023,-0.35476345,-0.3813027,-0.40839493,-0.43548715,-0.46202642,-0.490808,-0.5241357,-0.5591221,-0.5901768,-0.6138901,-0.6319516,-0.650566,-0.6697639,-0.6866889,-0.69685614,-0.702508,-0.7064705,-0.70984936,-0.7120917,-0.71153873,-0.70984936,-0.7081599,-0.7064705,-0.7036446,-0.6974398,-0.6906513,-0.68727255,-0.68727255,-0.68727255,-0.68499947,-0.68331003,-0.686136,-0.6906513,-0.6934773,-0.69120425,-0.6866889,-0.6855831,-0.6866889,-0.68727255,-0.6855831,-0.6821735,-0.68275714,-0.68782544,-0.6929244,-0.6946138,-0.6957196,-0.6979927,-0.702508,-0.7058869,-0.70475036,-0.7019551,-0.700235,-0.7008186,-0.7030609,-0.70419747,-0.70533395,-0.7075763,-0.71040225,-0.7109859,-0.71040225,-0.70984936,-0.71322817,-0.71660703,-0.7177436,-0.7149176,-0.71153873,-0.7109859,-0.71378106,-0.7149176,-0.7126753,-0.71040225,-0.7109859,-0.71378106,-0.71605414,-0.71322817,-0.7075763,-0.70419747,-0.702508,-0.7019551,-0.700235,-0.6974398,-0.6974398,-0.6985456,-0.6985456,-0.6957196,-0.69178784,-0.6906513,-0.6906513,-0.6906513,-0.6895148,-0.68782544,-0.6906513,-0.6934773,-0.6940302,-0.6900984,-0.6844466,-0.6821735,-0.6821735,-0.68331003,-0.6816206,-0.6793476,-0.6782417,-0.6787947,-0.6782417,-0.67427933,-0.6703168,-0.6703168,-0.672037,-0.6731428,-0.672037,-0.6680745,-0.6680745,-0.6703168,-0.67145336,-0.66921103,-0.6646957,-0.66186976,-0.66186976,-0.6641121,-0.6652486,-0.6658015,-0.6675216,-0.6697639,-0.6686274,-0.6635592,-0.65790725,-0.6556649,-0.65735435,-0.65846014,-0.65790725,-0.65508133,-0.652839,-0.6511496,-0.6471871,-0.6387093,-0.62912565,-0.6217843,-0.6195113,-0.6200949,-0.6206478,-0.6200949,-0.62123144,-0.6206478,-0.61499596,-0.60034406,-0.5794566,-0.5608115,-0.5500914,-0.5461289,-0.5472654,-0.5500914,-0.5574327,-0.57153165,-0.5918662,-0.61499596,-0.6370199,-0.6556649,-0.6675216,-0.672037,-0.67090046,-0.666938,-0.6652486,-0.6652486,-0.6641121,-0.66018033,-0.6556649,-0.6533919,-0.6522554,-0.6511496,-0.6471871,-0.6415352,-0.63984585,-0.6421188,-0.6454977,-0.6460506,-0.6454977,-0.6517025,-0.6680745,-0.6900984,-0.7008186,-0.68499947,-0.62402666,-0.49814934,-0.2972002,-0.032452345,0.25431955,0.5055213,0.6872724,0.7968085,0.8464775,0.82559013,0.6963031,0.4310025,0.054476142,-0.3406644,-0.64942944,-0.8108768,-0.8312113,-0.7730645,-0.7036446,-0.6635592,-0.65790725,-0.6703168,-0.6810677,-0.68275714,-0.6787947,-0.6754159,-0.6748322,-0.67427933,-0.67090046,-0.6652486,-0.66018033,-0.65508133,-0.6500131,-0.64322466,-0.63588333,-0.6330881,-0.6330881,-0.6308151,-0.6246103,-0.61613244,-0.6110642,-0.60992765,-0.60937476,-0.60654885,-0.5997604,-0.5924191,-0.5862143,-0.57832015,-0.56701636,-0.5546068,-0.5461289,-0.53937125,-0.5325829,-0.52017325,-0.5043541,-0.48856568,-0.47443599,-0.4597841,-0.44227552,-0.42307752,-0.405016,-0.38978052,-0.3739614,-0.35648358,-0.33839136,-0.32315582,-0.30960977,-0.29606366,-0.28251755,-0.27010798,-0.26331955,-0.26163018,-0.26221377,-0.26107723,-0.2588042,-0.25994074,-0.265009,-0.2729339,-0.28251755,-0.2955107,-0.31526166,-0.34011155,-0.36606717,-0.39147002,-0.41687274,-0.44679087,-0.48067147,-0.5156579,-0.5472654,-0.57604706,-0.6054123,-0.6330881,-0.65735435,-0.6754159,-0.6889619,-0.7019551,-0.7143647,-0.72394836,-0.7284637,-0.7284637,-0.7284637,-0.7284637,-0.72677433,-0.72170603,-0.7149176,-0.71153873,-0.7120917,-0.71378106,-0.71322817,-0.7087128,-0.70475036,-0.7019551,-0.70137155,-0.700235,-0.6985456,-0.6985456,-0.6991292,-0.6991292,-0.6974398,-0.6951667,-0.69685614,-0.6991292,-0.7008186,-0.6996821,-0.69630325,-0.6974398,-0.70137155,-0.70533395,-0.70533395,-0.7030609,-0.70419747,-0.7081599,-0.7120917,-0.7126753,-0.7092657,-0.7081599,-0.7092657,-0.71153873,-0.7109859,-0.7087128,-0.7087128,-0.7120917,-0.71605414,-0.7182964,-0.7182964,-0.71888006,-0.7200166,-0.7211224,-0.71888006,-0.71550125,-0.7149176,-0.71605414,-0.71660703,-0.7143647,-0.7126753,-0.71378106,-0.7177436,-0.7205695,-0.7182964,-0.71378106,-0.7109859,-0.71153873,-0.71322817,-0.7109859,-0.70533395,-0.7030609,-0.7030609,-0.70533395,-0.7058869,-0.7019551,-0.7008186,-0.70137155,-0.702508,-0.70137155,-0.6985456,-0.69630325,-0.6957196,-0.6957196,-0.6951667,-0.6934773,-0.6951667,-0.6985456,-0.7019551,-0.700235,-0.6957196,-0.69234073,-0.69120425,-0.6906513,-0.68837833,-0.6844466,-0.68275714,-0.6844466,-0.6866889,-0.68727255,-0.6844466,-0.6821735,-0.6810677,-0.6810677,-0.6787947,-0.67596877,-0.6748322,-0.67427933,-0.67427933,-0.67145336,-0.6675216,-0.6663851,-0.666938,-0.666938,-0.6646957,-0.6612861,-0.6607332,-0.66186976,-0.66186976,-0.6590438,-0.6556649,-0.65452844,-0.6556649,-0.6556649,-0.6522554,-0.64832366,-0.64887655,-0.6522554,-0.6567707,-0.6562178,-0.6522554,-0.64887655,-0.64774,-0.64774,-0.6466342,-0.6449141,-0.64380825,-0.64322466,-0.64098233,-0.63477755,-0.6279891,-0.6229209,-0.6189584,-0.61444306,-0.60710174,-0.60034406,-0.5992075,-0.60089695,-0.60144985,-0.5930027,-0.5771836,-0.559675,-0.54557604,-0.5376818,-0.5354088,-0.53709817,-0.543303,-0.5500914,-0.5551597,-0.5602586,-0.57097876,-0.5913133,-0.6167161,-0.63984585,-0.6522554,-0.65508133,-0.65452844,-0.65394485,-0.652839,-0.64942944,-0.6460506,-0.6449141,-0.6454977,-0.6471871,-0.6449141,-0.6415352,-0.64039874,-0.6421188,-0.64322466,-0.6415352,-0.6370199,-0.6341939,-0.6330881,-0.63588333,-0.64267176,-0.65790725,-0.67710525,-0.6844466,-0.6595967,-0.5794566,-0.42872941,-0.20744574,0.06350696,0.33955848,0.57380474,0.73866165,0.83124185,0.8594401,0.80866516,0.64549756,0.35141516,-0.03641486,-0.41631985,-0.6900984,-0.807498,-0.7956413,-0.7290473,-0.66921103,-0.6449141,-0.64774,-0.66018033,-0.6703168,-0.67427933,-0.67372644,-0.6680745,-0.6607332,-0.6567707,-0.65394485,-0.650566,-0.64380825,-0.6370199,-0.63250446,-0.631368,-0.6308151,-0.62685263,-0.6206478,-0.61613244,-0.6116171,-0.60654885,-0.5975181,-0.58735085,-0.581146,-0.5794566,-0.57832015,-0.5732211,-0.5641904,-0.5551597,-0.5472654,-0.53992414,-0.53089345,-0.52017325,-0.5111425,-0.5026647,-0.4930811,-0.47895133,-0.46202642,-0.44623798,-0.43269187,-0.41800928,-0.4005007,-0.38074982,-0.36324126,-0.34745282,-0.333876,-0.31864053,-0.30454147,-0.29382133,-0.28648,-0.27969164,-0.27124453,-0.26276666,-0.25938785,-0.25938785,-0.26107723,-0.26163018,-0.26276666,-0.2695244,-0.28251755,-0.29888964,-0.3158145,-0.33445966,-0.3587259,-0.38809115,-0.41969866,-0.44903314,-0.47615612,-0.5054906,-0.53709817,-0.5687058,-0.59638155,-0.6206478,-0.64380825,-0.6652486,-0.6838629,-0.6951667,-0.70137155,-0.7058869,-0.7092657,-0.71153873,-0.71040225,-0.7070234,-0.7070234,-0.7092657,-0.71153873,-0.71040225,-0.7064705,-0.70419747,-0.70419747,-0.70475036,-0.702508,-0.6985456,-0.69685614,-0.69685614,-0.6991292,-0.6996821,-0.6991292,-0.7008186,-0.70419747,-0.7070234,-0.7058869,-0.702508,-0.7019551,-0.70475036,-0.7092657,-0.7109859,-0.71040225,-0.71040225,-0.71153873,-0.71322817,-0.71153873,-0.7092657,-0.70984936,-0.71378106,-0.71888006,-0.7205695,-0.71943295,-0.7205695,-0.72394836,-0.72791076,-0.7284637,-0.7262214,-0.724532,-0.7262214,-0.7296002,-0.7301531,-0.7296002,-0.7301531,-0.7312896,-0.7335627,-0.73242617,-0.7290473,-0.7273579,-0.7273579,-0.7284637,-0.72677433,-0.724532,-0.72394836,-0.7250849,-0.7262214,-0.724532,-0.7211224,-0.7200166,-0.7211224,-0.7233954,-0.7233954,-0.7211224,-0.7200166,-0.71943295,-0.71943295,-0.71605414,-0.7126753,-0.71153873,-0.7120917,-0.71322817,-0.70984936,-0.70533395,-0.7036446,-0.70419747,-0.7058869,-0.70475036,-0.7008186,-0.6996821,-0.7008186,-0.7036446,-0.702508,-0.6991292,-0.6974398,-0.6974398,-0.6985456,-0.6985456,-0.69685614,-0.6974398,-0.6991292,-0.7008186,-0.6974398,-0.6929244,-0.69120425,-0.69234073,-0.6946138,-0.6929244,-0.68782544,-0.6838629,-0.68331003,-0.6844466,-0.68331003,-0.6810677,-0.67993116,-0.6810677,-0.68275714,-0.68048406,-0.67596877,-0.67427933,-0.67427933,-0.67596877,-0.6754159,-0.6725899,-0.6703168,-0.66921103,-0.6680745,-0.6641121,-0.6607332,-0.6607332,-0.6635592,-0.6675216,-0.666938,-0.6641121,-0.66300625,-0.6635592,-0.6652486,-0.66242266,-0.6562178,-0.64942944,-0.64380825,-0.63929296,-0.633641,-0.62912565,-0.62912565,-0.63250446,-0.63588333,-0.633641,-0.6246103,-0.61220074,-0.598071,-0.5833883,-0.5687058,-0.5585692,-0.5579856,-0.5641904,-0.5732211,-0.57887304,-0.5856614,-0.60089695,-0.62347376,-0.64887655,-0.666938,-0.6748322,-0.67655236,-0.67655236,-0.6754159,-0.67090046,-0.6658015,-0.66300625,-0.6641121,-0.6680745,-0.6686274,-0.6680745,-0.6686274,-0.6697639,-0.67090046,-0.6675216,-0.66186976,-0.65846014,-0.6590438,-0.6612861,-0.66242266,-0.6686274,-0.68499947,-0.70419747,-0.71040225,-0.6810677,-0.59582865,-0.44282842,-0.21871883,0.05505979,0.33335364,0.5664941,0.7256683,0.8125968,0.8374467,0.7855047,0.61840546,0.31639802,-0.07646942,-0.45806396,-0.72677433,-0.8379997,-0.8244229,-0.75782895,-0.6996821,-0.67372644,-0.67596877,-0.6889619,-0.6991292,-0.702508,-0.6985456,-0.6929244,-0.6895148,-0.68837833,-0.6866889,-0.67993116,-0.6703168,-0.6635592,-0.6595967,-0.6595967,-0.65735435,-0.652839,-0.6471871,-0.64267176,-0.63929296,-0.6330881,-0.62685263,-0.6217843,-0.6178219,-0.6133065,-0.60485935,-0.5930027,-0.58283544,-0.57604706,-0.57097876,-0.5630846,-0.55347025,-0.543303,-0.5337193,-0.5241357,-0.5111425,-0.49477047,-0.47839844,-0.46202642,-0.44565433,-0.42645633,-0.4067055,-0.38978052,-0.37509793,-0.3621047,-0.34686917,-0.32994425,-0.3158145,-0.30509436,-0.2972002,-0.2870329,-0.27631277,-0.26783496,-0.2639032,-0.26221377,-0.25994074,-0.25994074,-0.2639032,-0.2729339,-0.28589642,-0.29775304,-0.3112992,-0.33108085,-0.35648358,-0.3864017,-0.41459966,-0.44227552,-0.47274655,-0.50662714,-0.5421972,-0.5732211,-0.60034406,-0.6251632,-0.64832366,-0.66921103,-0.68499947,-0.69685614,-0.7064705,-0.7149176,-0.7205695,-0.7200166,-0.7177436,-0.7171906,-0.7182964,-0.7200166,-0.71888006,-0.71605414,-0.71605414,-0.71888006,-0.7211224,-0.71943295,-0.7143647,-0.71153873,-0.7109859,-0.7126753,-0.7120917,-0.7092657,-0.7081599,-0.7081599,-0.70984936,-0.7092657,-0.7058869,-0.70419747,-0.70475036,-0.7081599,-0.7087128,-0.7081599,-0.7075763,-0.7092657,-0.7126753,-0.71322817,-0.7120917,-0.7126753,-0.7143647,-0.71605414,-0.7149176,-0.7120917,-0.7120917,-0.71605414,-0.7222589,-0.7250849,-0.72394836,-0.7228425,-0.72394836,-0.7262214,-0.7250849,-0.7233954,-0.7228425,-0.724532,-0.7273579,-0.7262214,-0.72394836,-0.7228425,-0.72563773,-0.7290473,-0.7284637,-0.72394836,-0.71943295,-0.7177436,-0.7171906,-0.7149176,-0.7109859,-0.70984936,-0.71153873,-0.7149176,-0.71378106,-0.70984936,-0.7070234,-0.7070234,-0.7092657,-0.7087128,-0.70533395,-0.702508,-0.7019551,-0.7036446,-0.7030609,-0.7008186,-0.6996821,-0.700235,-0.7019551,-0.7008186,-0.6979927,-0.69630325,-0.6974398,-0.6991292,-0.6974398,-0.6940302,-0.69234073,-0.6929244,-0.6957196,-0.6951667,-0.69234073,-0.6895148,-0.6889619,-0.6900984,-0.6866889,-0.6821735,-0.67993116,-0.6810677,-0.68499947,-0.6855831,-0.68331003,-0.6810677,-0.68048406,-0.68275714,-0.6810677,-0.6776582,-0.67427933,-0.6725899,-0.6725899,-0.6697639,-0.6663851,-0.6641121,-0.6635592,-0.6658015,-0.6641121,-0.66186976,-0.6607332,-0.66186976,-0.6646957,-0.6641121,-0.6612861,-0.6595967,-0.6595967,-0.6612861,-0.6607332,-0.6590438,-0.65735435,-0.65790725,-0.6590438,-0.65735435,-0.65452844,-0.652839,-0.6533919,-0.65508133,-0.6533919,-0.64887655,-0.64380825,-0.63929296,-0.63533044,-0.6274363,-0.6195113,-0.61557955,-0.61613244,-0.6206478,-0.6206478,-0.61613244,-0.6076853,-0.59638155,-0.5833883,-0.56701636,-0.5540539,-0.54895484,-0.55291736,-0.5608115,-0.5641904,-0.5641904,-0.57097876,-0.5890403,-0.61444306,-0.6376035,-0.6522554,-0.65846014,-0.6595967,-0.6607332,-0.65790725,-0.65452844,-0.652839,-0.65452844,-0.6590438,-0.6607332,-0.66186976,-0.66300625,-0.6652486,-0.6680745,-0.6663851,-0.66186976,-0.65846014,-0.65735435,-0.65846014,-0.65735435,-0.65846014,-0.6697639,-0.69120425,-0.71040225,-0.7070234,-0.6612861,-0.5574327,-0.38526517,-0.14533645,0.13406336,0.40277374,0.6144736,0.7516241,0.8216276,0.8329314,0.7533443,0.5461596,0.20858216,-0.19389969,-0.5467125,-0.7679962,-0.83686316,-0.8012932,-0.73297906,-0.67993116,-0.6607332,-0.666938,-0.6821735,-0.6929244,-0.6934773,-0.68727255,-0.68048406,-0.6776582,-0.67655236,-0.67427933,-0.66921103,-0.6641121,-0.6607332,-0.6595967,-0.6556649,-0.64942944,-0.64380825,-0.63929296,-0.63533044,-0.62912565,-0.62123144,-0.61499596,-0.6116171,-0.60992765,-0.60427576,-0.59638155,-0.5895932,-0.5833883,-0.57832015,-0.56815284,-0.5551597,-0.5427501,-0.5325829,-0.5246886,-0.51452136,-0.5009753,-0.48573977,-0.47164077,-0.45695817,-0.438313,-0.41742563,-0.39822763,-0.38299215,-0.3700297,-0.35476345,-0.336702,-0.3209135,-0.30792034,-0.29888964,-0.28816944,-0.27686572,-0.26728207,-0.26276666,-0.26276666,-0.26163018,-0.25994074,-0.26107723,-0.26614553,-0.27517623,-0.28420705,-0.2955107,-0.3112992,-0.33332318,-0.36155182,-0.38919693,-0.41742563,-0.44623798,-0.476709,-0.5083165,-0.53709817,-0.5641904,-0.5913133,-0.6195113,-0.6460506,-0.6663851,-0.68048406,-0.69120425,-0.7008186,-0.70984936,-0.71378106,-0.7149176,-0.71550125,-0.7182964,-0.72170603,-0.7211224,-0.7171906,-0.7120917,-0.7087128,-0.7087128,-0.7064705,-0.7036446,-0.70137155,-0.7019551,-0.7036446,-0.7036446,-0.70137155,-0.7008186,-0.7019551,-0.70419747,-0.7036446,-0.70137155,-0.700235,-0.70137155,-0.7036446,-0.70419747,-0.702508,-0.702508,-0.70475036,-0.7081599,-0.7081599,-0.7058869,-0.70475036,-0.7070234,-0.71153873,-0.7120917,-0.70984936,-0.7087128,-0.70984936,-0.71378106,-0.71550125,-0.7143647,-0.71322817,-0.7149176,-0.7182964,-0.71888006,-0.71605414,-0.71322817,-0.7126753,-0.7143647,-0.7143647,-0.71322817,-0.71322817,-0.7149176,-0.7182964,-0.7182964,-0.71605414,-0.71378106,-0.71322817,-0.7143647,-0.71322817,-0.7109859,-0.7092657,-0.71040225,-0.71322817,-0.71153873,-0.7081599,-0.70533395,-0.70475036,-0.7064705,-0.70533395,-0.70137155,-0.6979927,-0.69685614,-0.6979927,-0.69630325,-0.69234073,-0.6889619,-0.6889619,-0.69120425,-0.6900984,-0.6866889,-0.68275714,-0.6816206,-0.68331003,-0.68275714,-0.6816206,-0.6810677,-0.68275714,-0.6855831,-0.6838629,-0.68048406,-0.6787947,-0.68048406,-0.68499947,-0.6866889,-0.68499947,-0.6821735,-0.6810677,-0.6821735,-0.68048406,-0.6782417,-0.6776582,-0.6787947,-0.6810677,-0.6782417,-0.67372644,-0.6703168,-0.67145336,-0.67427933,-0.67427933,-0.67145336,-0.66921103,-0.6697639,-0.6725899,-0.67145336,-0.6663851,-0.6607332,-0.65790725,-0.6595967,-0.66018033,-0.6595967,-0.65790725,-0.65735435,-0.65735435,-0.65394485,-0.6500131,-0.6454977,-0.64380825,-0.64267176,-0.6370199,-0.62912565,-0.6217843,-0.61840546,-0.6206478,-0.6223372,-0.62347376,-0.62402666,-0.62347376,-0.62123144,-0.6110642,-0.595245,-0.57887304,-0.5653269,-0.5585692,-0.5546068,-0.55291736,-0.5562962,-0.56815284,-0.5901768,-0.61557955,-0.63929296,-0.65790725,-0.6703168,-0.6748322,-0.67145336,-0.6652486,-0.66018033,-0.6595967,-0.6635592,-0.6646957,-0.66300625,-0.6612861,-0.6612861,-0.6635592,-0.6635592,-0.66242266,-0.6607332,-0.66186976,-0.6641121,-0.66300625,-0.6612861,-0.6635592,-0.67655236,-0.6996821,-0.71550125,-0.7081599,-0.66242266,-0.559675,-0.38864398,-0.14705658,0.13237393,0.39825845,0.60485935,0.738078,0.8103547,0.82331717,0.7448665,0.53657603,0.1967256,-0.20179391,-0.55347025,-0.77475387,-0.8436209,-0.80808157,-0.7346685,-0.6787947,-0.66018033,-0.66921103,-0.686136,-0.6929244,-0.69178784,-0.6866889,-0.68331003,-0.68331003,-0.6793476,-0.6731428,-0.666938,-0.6641121,-0.6646957,-0.6635592,-0.65846014,-0.6522554,-0.6466342,-0.64322466,-0.6376035,-0.6308151,-0.62402666,-0.6200949,-0.6178219,-0.61220074,-0.60427576,-0.59582865,-0.5895932,-0.58507776,-0.57887304,-0.5687058,-0.55687976,-0.5467125,-0.5387876,-0.52806747,-0.51452136,-0.49928582,-0.48405033,-0.47105712,-0.45582163,-0.43889666,-0.4208352,-0.40446317,-0.38809115,-0.36944604,-0.3508317,-0.333876,-0.32146645,-0.3124357,-0.3022685,-0.2915483,-0.28196472,-0.27631277,-0.2740397,-0.27010798,-0.26614553,-0.2639032,-0.26672918,-0.27348685,-0.27969164,-0.28648,-0.29606366,-0.31357223,-0.336702,-0.36099887,-0.38581806,-0.41235733,-0.443412,-0.47839844,-0.5111425,-0.5416136,-0.57042587,-0.60034406,-0.62912565,-0.6511496,-0.6680745,-0.6816206,-0.6946138,-0.7064705,-0.71322817,-0.71605414,-0.71660703,-0.71888006,-0.7233954,-0.72394836,-0.7211224,-0.7177436,-0.71550125,-0.7149176,-0.7126753,-0.7092657,-0.7070234,-0.7075763,-0.70984936,-0.7092657,-0.7064705,-0.70419747,-0.7058869,-0.7092657,-0.70984936,-0.7075763,-0.7030609,-0.7019551,-0.7030609,-0.7030609,-0.702508,-0.7030609,-0.7058869,-0.7109859,-0.71378106,-0.7149176,-0.7149176,-0.71605414,-0.7182964,-0.7171906,-0.7149176,-0.71378106,-0.71605414,-0.7211224,-0.7233954,-0.7228425,-0.72170603,-0.72394836,-0.72791076,-0.7290473,-0.72791076,-0.7250849,-0.724532,-0.72677433,-0.72677433,-0.72563773,-0.7250849,-0.7273579,-0.73073673,-0.7301531,-0.7273579,-0.7233954,-0.72170603,-0.7233954,-0.7228425,-0.7205695,-0.71888006,-0.71943295,-0.7222589,-0.7222589,-0.7200166,-0.7177436,-0.7171906,-0.7182964,-0.71605414,-0.7109859,-0.7064705,-0.7058869,-0.7087128,-0.7109859,-0.7109859,-0.71040225,-0.71153873,-0.71378106,-0.7126753,-0.70984936,-0.7064705,-0.7058869,-0.7075763,-0.7075763,-0.70533395,-0.702508,-0.70137155,-0.702508,-0.70137155,-0.6991292,-0.69685614,-0.69630325,-0.6974398,-0.6957196,-0.69120425,-0.68782544,-0.68837833,-0.69178784,-0.6929244,-0.6900984,-0.6855831,-0.68275714,-0.6810677,-0.6782417,-0.6748322,-0.672037,-0.67145336,-0.6731428,-0.6725899,-0.6703168,-0.6680745,-0.66921103,-0.67090046,-0.6703168,-0.6675216,-0.6652486,-0.6652486,-0.6686274,-0.6686274,-0.6663851,-0.66300625,-0.66186976,-0.66242266,-0.66018033,-0.65508133,-0.64832366,-0.6421188,-0.6381564,-0.633641,-0.6296786,-0.62854207,-0.6308151,-0.63477755,-0.633641,-0.62912565,-0.6195113,-0.6082382,-0.595245,-0.57887304,-0.5641904,-0.5562962,-0.5579856,-0.5659106,-0.5743576,-0.58790374,-0.60710174,-0.633641,-0.6590438,-0.67372644,-0.67655236,-0.6731428,-0.67090046,-0.67145336,-0.67090046,-0.6697639,-0.6680745,-0.66921103,-0.6731428,-0.67427933,-0.6725899,-0.6697639,-0.6703168,-0.6725899,-0.67372644,-0.6731428,-0.6703168,-0.66921103,-0.67145336,-0.68048406,-0.6957196,-0.7081599,-0.7036446,-0.6607332,-0.5551597,-0.37509793,-0.12727499,0.15101898,0.41066778,0.6122006,0.74317694,0.8103547,0.81373346,0.7256683,0.5145521,0.18035352,-0.21251404,-0.56139517,-0.7815423,-0.84813625,-0.8069451,-0.7318733,-0.6782417,-0.6641121,-0.672037,-0.6838629,-0.6889619,-0.68837833,-0.6855831,-0.67993116,-0.6731428,-0.666938,-0.6641121,-0.6635592,-0.66018033,-0.65508133,-0.6500131,-0.6471871,-0.6471871,-0.64322466,-0.6376035,-0.63026214,-0.62629974,-0.62402666,-0.6195113,-0.61220074,-0.60485935,-0.60034406,-0.5969345,-0.5901768,-0.57887304,-0.56701636,-0.5585692,-0.55291736,-0.5450231,-0.53427225,-0.52072614,-0.5094531,-0.49983877,-0.48856568,-0.47557247,-0.46147346,-0.4484803,-0.4349342,-0.41911507,-0.4005007,-0.3813027,-0.3649307,-0.3508317,-0.33614904,-0.32205003,-0.30960977,-0.30116266,-0.2955107,-0.28872234,-0.28196472,-0.27575988,-0.2746234,-0.2774493,-0.28027523,-0.2836541,-0.28985888,-0.30057907,-0.3169511,-0.333876,-0.35024804,-0.3683095,-0.3926065,-0.4208352,-0.45185918,-0.48346668,-0.515105,-0.54840195,-0.581146,-0.60937476,-0.6330881,-0.65394485,-0.67372644,-0.6929244,-0.7064705,-0.71605414,-0.7222589,-0.7290473,-0.73525214,-0.7369416,-0.73525214,-0.73242617,-0.73242617,-0.73580503,-0.73749447,-0.73749447,-0.73525214,-0.7335627,-0.73242617,-0.7290473,-0.72394836,-0.71943295,-0.7182964,-0.7205695,-0.7205695,-0.71888006,-0.71605414,-0.71550125,-0.7177436,-0.7171906,-0.7149176,-0.7120917,-0.7120917,-0.71550125,-0.7177436,-0.7182964,-0.7177436,-0.7200166,-0.7233954,-0.72394836,-0.7228425,-0.7211224,-0.72170603,-0.72563773,-0.72791076,-0.7290473,-0.7301531,-0.73297906,-0.73525214,-0.7341156,-0.73073673,-0.72677433,-0.72791076,-0.7318733,-0.73297906,-0.7312896,-0.7290473,-0.7296002,-0.73297906,-0.7346685,-0.7335627,-0.7301531,-0.7273579,-0.72677433,-0.724532,-0.7211224,-0.7182964,-0.71888006,-0.7222589,-0.7222589,-0.7205695,-0.7171906,-0.71660703,-0.71888006,-0.71943295,-0.7177436,-0.7143647,-0.7120917,-0.7126753,-0.7120917,-0.7092657,-0.7064705,-0.7058869,-0.7081599,-0.7087128,-0.7070234,-0.70419747,-0.7036446,-0.70475036,-0.70475036,-0.702508,-0.700235,-0.700235,-0.70137155,-0.7008186,-0.6974398,-0.69234073,-0.6900984,-0.6906513,-0.6889619,-0.686136,-0.6838629,-0.6844466,-0.68782544,-0.68782544,-0.68499947,-0.6816206,-0.68048406,-0.6810677,-0.67993116,-0.67596877,-0.67145336,-0.6697639,-0.67145336,-0.672037,-0.67090046,-0.66921103,-0.6703168,-0.6725899,-0.67145336,-0.6686274,-0.6646957,-0.6646957,-0.6675216,-0.6675216,-0.6646957,-0.6607332,-0.66018033,-0.6590438,-0.6533919,-0.64436114,-0.63477755,-0.631368,-0.6341939,-0.6381564,-0.6387093,-0.63588333,-0.633641,-0.6330881,-0.6296786,-0.6200949,-0.60485935,-0.5895932,-0.57832015,-0.57042587,-0.5664635,-0.5659106,-0.5721153,-0.58679795,-0.60654885,-0.62912565,-0.6511496,-0.6703168,-0.6844466,-0.6895148,-0.686136,-0.6787947,-0.6754159,-0.67655236,-0.6787947,-0.67993116,-0.6793476,-0.6793476,-0.67993116,-0.67710525,-0.6725899,-0.6680745,-0.6675216,-0.66921103,-0.6680745,-0.6652486,-0.6646957,-0.67655236,-0.6996821,-0.7177436,-0.71322817,-0.6680745,-0.56701636,-0.39822763,-0.1594662,0.11996436,0.3892275,0.59979105,0.7358357,0.8063922,0.81824875,0.74428284,0.5456066,0.21592355,-0.18090647,-0.5382347,-0.769102,-0.84871984,-0.8182181,-0.74652517,-0.6895148,-0.6663851,-0.67145336,-0.6844466,-0.69178784,-0.69120425,-0.6866889,-0.68499947,-0.6855831,-0.68275714,-0.67655236,-0.6680745,-0.66186976,-0.6590438,-0.65452844,-0.64832366,-0.64267176,-0.63984585,-0.63929296,-0.63588333,-0.6296786,-0.6223372,-0.61840546,-0.617269,-0.61444306,-0.6076853,-0.5986239,-0.5907297,-0.583972,-0.57604706,-0.5659106,-0.5546068,-0.5450231,-0.5365453,-0.5252415,-0.51227903,-0.49873298,-0.4868763,-0.47501963,-0.4597841,-0.44113898,-0.4213881,-0.405016,-0.39091706,-0.37509793,-0.35703647,-0.33839136,-0.32429236,-0.31412512,-0.30454147,-0.29492718,-0.2870329,-0.28307045,-0.28196472,-0.28082818,-0.2785551,-0.27686572,-0.28027523,-0.2870329,-0.29437423,-0.30116266,-0.30960977,-0.32373953,-0.3440433,-0.36606717,-0.38978052,-0.41404682,-0.44172263,-0.47333014,-0.5038012,-0.53427225,-0.56477404,-0.59582865,-0.6251632,-0.64887655,-0.6658015,-0.6787947,-0.69234073,-0.7064705,-0.7177436,-0.7233954,-0.72563773,-0.7284637,-0.73242617,-0.7341156,-0.7335627,-0.73073673,-0.7296002,-0.73073673,-0.73073673,-0.7290473,-0.72677433,-0.7273579,-0.73073673,-0.7318733,-0.73073673,-0.72791076,-0.7262214,-0.7273579,-0.7273579,-0.72677433,-0.7250849,-0.7273579,-0.73073673,-0.7318733,-0.7301531,-0.72677433,-0.72563773,-0.72791076,-0.7301531,-0.7301531,-0.7290473,-0.7290473,-0.7312896,-0.7335627,-0.7346685,-0.73525214,-0.73807806,-0.7431463,-0.7454194,-0.74428284,-0.74145687,-0.740904,-0.7431463,-0.7436992,-0.7403204,-0.73525214,-0.73242617,-0.73242617,-0.73242617,-0.7301531,-0.72677433,-0.72563773,-0.7250849,-0.7228425,-0.71943295,-0.7149176,-0.71605414,-0.7205695,-0.7233954,-0.72394836,-0.72170603,-0.72170603,-0.7233954,-0.724532,-0.72394836,-0.7222589,-0.7222589,-0.7233954,-0.72170603,-0.7171906,-0.7126753,-0.7109859,-0.71153873,-0.71040225,-0.7075763,-0.70419747,-0.7036446,-0.70475036,-0.7030609,-0.6991292,-0.6940302,-0.69234073,-0.6929244,-0.69178784,-0.6889619,-0.686136,-0.68782544,-0.6906513,-0.69234073,-0.6900984,-0.6855831,-0.6844466,-0.686136,-0.686136,-0.68275714,-0.6782417,-0.67596877,-0.67655236,-0.67710525,-0.67596877,-0.67372644,-0.67372644,-0.6748322,-0.67427933,-0.6697639,-0.6646957,-0.66300625,-0.6646957,-0.6658015,-0.6658015,-0.6646957,-0.6658015,-0.6686274,-0.6680745,-0.6641121,-0.65790725,-0.65394485,-0.652839,-0.6522554,-0.64942944,-0.6454977,-0.6415352,-0.6381564,-0.633641,-0.62685263,-0.62123144,-0.62123144,-0.62347376,-0.6257468,-0.62347376,-0.6167161,-0.6082382,-0.5975181,-0.5833883,-0.56815284,-0.5562962,-0.55347025,-0.5574327,-0.56250095,-0.56815284,-0.5777672,-0.5975181,-0.6223372,-0.6460506,-0.6607332,-0.6663851,-0.6686274,-0.66921103,-0.6680745,-0.6646957,-0.6612861,-0.66186976,-0.6635592,-0.6652486,-0.6646957,-0.6641121,-0.6663851,-0.66921103,-0.6686274,-0.6658015,-0.66242266,-0.6612861,-0.6635592,-0.6675216,-0.67655236,-0.69234073,-0.7075763,-0.70533395,-0.66186976,-0.5546068,-0.37282485,-0.12503266,0.15495074,0.41914558,0.6235045,0.7561394,0.8193853,0.8159758,0.7217058,0.50324833,0.16118622,-0.2362274,-0.58283544,-0.7928153,-0.84758335,-0.7984672,-0.7228425,-0.67145336,-0.6567707,-0.6635592,-0.67427933,-0.6816206,-0.68275714,-0.6782417,-0.67090046,-0.6652486,-0.6646957,-0.666938,-0.666938,-0.66186976,-0.6556649,-0.6522554,-0.6517025,-0.6500131,-0.6449141,-0.6376035,-0.6330881,-0.63026214,-0.62629974,-0.6195113,-0.61048055,-0.6025864,-0.5969345,-0.5901768,-0.5805625,-0.57097876,-0.5636375,-0.5591221,-0.55291736,-0.543303,-0.5314771,-0.5196204,-0.5083165,-0.49477047,-0.47839844,-0.46147346,-0.44679087,-0.43379766,-0.41969866,-0.4016372,-0.38188636,-0.36551434,-0.353074,-0.34121734,-0.32825482,-0.3163982,-0.30736744,-0.30057907,-0.29323775,-0.28534353,-0.27969164,-0.27913868,-0.28251755,-0.28534353,-0.28420705,-0.28420705,-0.29041177,-0.30171555,-0.31526166,-0.32936066,-0.34462684,-0.36606717,-0.39147002,-0.41742563,-0.44227552,-0.46712536,-0.49814934,-0.5320299,-0.56477404,-0.5924191,-0.61499596,-0.6376035,-0.6590438,-0.67596877,-0.6866889,-0.6906513,-0.6946138,-0.700235,-0.7064705,-0.71040225,-0.71322817,-0.71660703,-0.7200166,-0.7200166,-0.71660703,-0.71153873,-0.7087128,-0.7087128,-0.7075763,-0.7064705,-0.70475036,-0.70533395,-0.7064705,-0.7058869,-0.7019551,-0.6974398,-0.69685614,-0.6991292,-0.70137155,-0.7008186,-0.6996821,-0.70137155,-0.70533395,-0.7075763,-0.7064705,-0.702508,-0.7008186,-0.7036446,-0.7058869,-0.7075763,-0.7064705,-0.7081599,-0.71153873,-0.7143647,-0.7149176,-0.7143647,-0.7149176,-0.7171906,-0.7182964,-0.71660703,-0.7149176,-0.71550125,-0.7171906,-0.71605414,-0.7109859,-0.7058869,-0.70533395,-0.7087128,-0.7120917,-0.71322817,-0.71153873,-0.71322817,-0.71605414,-0.7177436,-0.7182964,-0.71605414,-0.71605414,-0.7182964,-0.7177436,-0.7149176,-0.7126753,-0.71322817,-0.71378106,-0.7126753,-0.7070234,-0.700235,-0.6979927,-0.6996821,-0.70137155,-0.6985456,-0.6929244,-0.6900984,-0.6900984,-0.69178784,-0.69178784,-0.69234073,-0.6951667,-0.6979927,-0.6985456,-0.6946138,-0.6895148,-0.68837833,-0.69234073,-0.6946138,-0.6929244,-0.686136,-0.6810677,-0.6793476,-0.67993116,-0.6821735,-0.6844466,-0.6855831,-0.686136,-0.6844466,-0.68048406,-0.6787947,-0.6816206,-0.68727255,-0.6900984,-0.6866889,-0.6810677,-0.67655236,-0.67372644,-0.66921103,-0.66018033,-0.64887655,-0.64322466,-0.64098233,-0.64267176,-0.64267176,-0.63984585,-0.6387093,-0.6370199,-0.633641,-0.6223372,-0.6059652,-0.5901768,-0.5794566,-0.5749413,-0.57549417,-0.5800095,-0.5890403,-0.60203344,-0.62123144,-0.6421188,-0.66242266,-0.6821735,-0.6951667,-0.6996821,-0.6979927,-0.6940302,-0.69178784,-0.69234073,-0.6934773,-0.69178784,-0.6895148,-0.6906513,-0.69234073,-0.6929244,-0.6895148,-0.6838629,-0.68048406,-0.68048406,-0.67993116,-0.6776582,-0.67655236,-0.68499947,-0.70475036,-0.724532,-0.7273579,-0.6951667,-0.6116171,-0.46429944,-0.24808407,0.018906236,0.29213178,0.5230299,0.6810676,0.76630676,0.7815422,0.70533395,0.50945306,0.1871419,-0.20348334,-0.5636375,-0.80298257,-0.89273703,-0.8656448,-0.7894365,-0.7211224,-0.686136,-0.68331003,-0.6946138,-0.7030609,-0.7008186,-0.69178784,-0.68499947,-0.6810677,-0.6776582,-0.672037,-0.6652486,-0.6607332,-0.65846014,-0.6556649,-0.6511496,-0.6454977,-0.6421188,-0.64039874,-0.6376035,-0.63026214,-0.6223372,-0.6167161,-0.6127536,-0.6076853,-0.5986239,-0.5862143,-0.5777672,-0.5726682,-0.5687058,-0.56194806,-0.5512279,-0.5410607,-0.53089345,-0.52017325,-0.5054906,-0.48911858,-0.47557247,-0.46429944,-0.4535486,-0.43889666,-0.42194098,-0.4067055,-0.3931594,-0.3790604,-0.3621047,-0.34349036,-0.3288077,-0.3175347,-0.30905688,-0.30116266,-0.29492718,-0.29268485,-0.29099542,-0.28816944,-0.2836541,-0.28082818,-0.2836541,-0.29268485,-0.3022685,-0.31019336,-0.31922412,-0.33445966,-0.35534704,-0.3784768,-0.40277374,-0.42814583,-0.457511,-0.49025512,-0.5213098,-0.54840195,-0.5726682,-0.60089695,-0.63026214,-0.6556649,-0.6748322,-0.68727255,-0.6974398,-0.7081599,-0.7171906,-0.71943295,-0.7182964,-0.7177436,-0.7177436,-0.7182964,-0.7182964,-0.71605414,-0.71550125,-0.71605414,-0.71660703,-0.7149176,-0.7109859,-0.7109859,-0.7120917,-0.71378106,-0.71322817,-0.7109859,-0.70984936,-0.71040225,-0.71040225,-0.7081599,-0.7058869,-0.7058869,-0.7087128,-0.71153873,-0.71153873,-0.7109859,-0.7120917,-0.7143647,-0.71605414,-0.7143647,-0.7126753,-0.7149176,-0.7200166,-0.7250849,-0.72563773,-0.7228425,-0.72170603,-0.724532,-0.72791076,-0.7273579,-0.72394836,-0.7211224,-0.7222589,-0.7262214,-0.7290473,-0.7301531,-0.7301531,-0.7290473,-0.7284637,-0.7262214,-0.7233954,-0.72394836,-0.7250849,-0.72563773,-0.7233954,-0.7205695,-0.71888006,-0.7182964,-0.71888006,-0.7177436,-0.7177436,-0.71943295,-0.7233954,-0.72394836,-0.7205695,-0.71550125,-0.71378106,-0.71605414,-0.7182964,-0.7171906,-0.7143647,-0.71322817,-0.7126753,-0.7109859,-0.70475036,-0.6940302,-0.6838629,-0.67596877,-0.67090046,-0.666938,-0.6658015,-0.67090046,-0.6776582,-0.6787947,-0.6686274,-0.64942944,-0.63026214,-0.6167161,-0.6116171,-0.6133065,-0.617269,-0.62123144,-0.6229209,-0.6251632,-0.63250446,-0.64942944,-0.6748322,-0.700235,-0.71605414,-0.7200166,-0.7143647,-0.70984936,-0.7081599,-0.7075763,-0.7064705,-0.70475036,-0.7070234,-0.7109859,-0.7143647,-0.71322817,-0.7092657,-0.7075763,-0.7064705,-0.70533395,-0.70137155,-0.6974398,-0.6979927,-0.7036446,-0.71322817,-0.7262214,-0.73918384,-0.7476617,-0.7346685,-0.67710525,-0.5579856,-0.37058252,-0.13068455,0.12447977,0.35141516,0.52130973,0.6285726,0.6754159,0.6534226,0.5303403,0.28537416,-0.059544504,-0.42476696,-0.71153873,-0.85885644,-0.8701602,-0.80525565,-0.73297906,-0.6929244,-0.6866889,-0.6951667,-0.7008186,-0.700235,-0.6957196,-0.69120425,-0.68782544,-0.6838629,-0.6816206,-0.6793476,-0.6754159,-0.6680745,-0.6595967,-0.6556649,-0.65508133,-0.65452844,-0.650566,-0.64436114,-0.64098233,-0.63984585,-0.6381564,-0.6308151,-0.62123144,-0.6138901,-0.60992765,-0.6082382,-0.60144985,-0.5924191,-0.58452487,-0.5766307,-0.56815284,-0.5551597,-0.5410607,-0.52920395,-0.5196204,-0.5111425,-0.49814934,-0.4829138,-0.46992064,-0.45582163,-0.44113898,-0.4213881,-0.4005007,-0.3841287,-0.37282485,-0.3643778,-0.353074,-0.3406644,-0.3316337,-0.3254289,-0.32146645,-0.31526166,-0.30905688,-0.30847323,-0.3112992,-0.31526166,-0.3163982,-0.3169511,-0.32429236,-0.34011155,-0.3621047,-0.38468152,-0.40784204,-0.4349342,-0.4637158,-0.49532342,-0.52299917,-0.5495385,-0.57832015,-0.6076853,-0.63533044,-0.65735435,-0.6725899,-0.6866889,-0.700235,-0.7109859,-0.71660703,-0.7177436,-0.7200166,-0.72394836,-0.7284637,-0.7290473,-0.72677433,-0.724532,-0.7233954,-0.72394836,-0.72170603,-0.7177436,-0.71660703,-0.7177436,-0.71943295,-0.7177436,-0.71322817,-0.71040225,-0.7092657,-0.71040225,-0.7092657,-0.7075763,-0.7092657,-0.7126753,-0.7171906,-0.71660703,-0.7143647,-0.71322817,-0.71378106,-0.71550125,-0.7143647,-0.71322817,-0.71378106,-0.7149176,-0.71660703,-0.7143647,-0.71153873,-0.71378106,-0.71888006,-0.7233954,-0.7228425,-0.71943295,-0.71660703,-0.71660703,-0.71888006,-0.71943295,-0.71888006,-0.71943295,-0.7200166,-0.7228425,-0.7228425,-0.72170603,-0.72394836,-0.7262214,-0.7273579,-0.7228425,-0.7177436,-0.71605414,-0.7177436,-0.7205695,-0.71943295,-0.7143647,-0.71153873,-0.71153873,-0.71322817,-0.71153873,-0.7081599,-0.7070234,-0.7087128,-0.7109859,-0.7109859,-0.70984936,-0.7075763,-0.70419747,-0.6991292,-0.6895148,-0.6782417,-0.66921103,-0.6652486,-0.6663851,-0.6697639,-0.6754159,-0.67710525,-0.67145336,-0.65735435,-0.6370199,-0.61840546,-0.6110642,-0.61220074,-0.61048055,-0.60089695,-0.5918662,-0.5924191,-0.6133065,-0.64887655,-0.68331003,-0.7064705,-0.71605414,-0.71660703,-0.7120917,-0.70419747,-0.69685614,-0.6940302,-0.6946138,-0.6979927,-0.6985456,-0.6974398,-0.6974398,-0.6991292,-0.7008186,-0.6985456,-0.6946138,-0.69234073,-0.69120425,-0.6900984,-0.68499947,-0.6787947,-0.6787947,-0.6889619,-0.7109859,-0.7312896,-0.7363887,-0.7120917,-0.6387093,-0.50042236,-0.2915483,-0.03469467,0.22271204,0.43665433,0.58679783,0.6805148,0.7256683,0.69857633,0.5585691,0.29099536,-0.069711745,-0.43324482,-0.7064705,-0.83968914,-0.84813625,-0.7877471,-0.7228425,-0.6906513,-0.6906513,-0.70419747,-0.7126753,-0.7126753,-0.70984936,-0.7075763,-0.7058869,-0.702508,-0.6974398,-0.6946138,-0.6929244,-0.69178784,-0.686136,-0.6787947,-0.6725899,-0.66921103,-0.6675216,-0.66242266,-0.65508133,-0.64942944,-0.6454977,-0.64380825,-0.63984585,-0.6330881,-0.62685263,-0.6206478,-0.6127536,-0.60144985,-0.5890403,-0.57832015,-0.57097876,-0.5641904,-0.55347025,-0.5382347,-0.52299917,-0.510006,-0.49759644,-0.48405033,-0.4688148,-0.4535486,-0.4394496,-0.42535055,-0.40784204,-0.38978052,-0.37509793,-0.3649307,-0.358173,-0.34914225,-0.338975,-0.32994425,-0.32429236,-0.3209135,-0.3175347,-0.31357223,-0.3124357,-0.31526166,-0.3209135,-0.32711834,-0.33614904,-0.34969515,-0.3700297,-0.39371228,-0.41742563,-0.44058615,-0.46712536,-0.4970435,-0.5297569,-0.559675,-0.5856614,-0.61048055,-0.63533044,-0.66018033,-0.67993116,-0.6940302,-0.7036446,-0.7109859,-0.71550125,-0.7177436,-0.71943295,-0.7228425,-0.7290473,-0.7335627,-0.73073673,-0.7228425,-0.7149176,-0.70984936,-0.7087128,-0.7081599,-0.7070234,-0.7058869,-0.7058869,-0.7064705,-0.70533395,-0.7030609,-0.7036446,-0.7058869,-0.7092657,-0.70984936,-0.7075763,-0.7064705,-0.7070234,-0.7092657,-0.70984936,-0.7087128,-0.7081599,-0.7092657,-0.70984936,-0.7092657,-0.7081599,-0.71040225,-0.71378106,-0.7177436,-0.71660703,-0.7120917,-0.7092657,-0.7087128,-0.71040225,-0.70984936,-0.7075763,-0.7070234,-0.7092657,-0.7120917,-0.7120917,-0.7120917,-0.7120917,-0.71322817,-0.71605414,-0.71605414,-0.71378106,-0.71550125,-0.7182964,-0.7205695,-0.7182964,-0.71322817,-0.71040225,-0.71153873,-0.71550125,-0.7171906,-0.7143647,-0.71040225,-0.7081599,-0.7081599,-0.7070234,-0.70533395,-0.70475036,-0.7058869,-0.7081599,-0.7064705,-0.702508,-0.6985456,-0.69685614,-0.6974398,-0.6979927,-0.6985456,-0.7008186,-0.7036446,-0.7030609,-0.6951667,-0.68275714,-0.672037,-0.6635592,-0.65735435,-0.6511496,-0.64774,-0.65394485,-0.6652486,-0.6731428,-0.6658015,-0.6449141,-0.62123144,-0.60654885,-0.6059652,-0.60992765,-0.60992765,-0.60485935,-0.598071,-0.5986239,-0.6110642,-0.63588333,-0.6646957,-0.6895148,-0.70475036,-0.7070234,-0.70419747,-0.70475036,-0.7075763,-0.7109859,-0.7092657,-0.70475036,-0.7019551,-0.7036446,-0.7081599,-0.71040225,-0.7075763,-0.70475036,-0.7030609,-0.7036446,-0.702508,-0.6996821,-0.6979927,-0.6979927,-0.702508,-0.7109859,-0.7250849,-0.73807806,-0.73918384,-0.7075763,-0.6195113,-0.45864755,-0.2271967,0.041513562,0.29833663,0.5049375,0.6460812,0.7262213,0.7510711,0.6923715,0.5145521,0.20689273,-0.17697471,-0.53316647,-0.77137506,-0.857167,-0.8300748,-0.76403373,-0.7149176,-0.6996821,-0.70475036,-0.7143647,-0.7228425,-0.7273579,-0.7284637,-0.72394836,-0.71660703,-0.71153873,-0.7109859,-0.7120917,-0.7092657,-0.70419747,-0.6985456,-0.6940302,-0.6900984,-0.6816206,-0.67145336,-0.66242266,-0.6567707,-0.65508133,-0.6517025,-0.6466342,-0.6415352,-0.636467,-0.6308151,-0.6229209,-0.61557955,-0.6116171,-0.6076853,-0.60203344,-0.5901768,-0.5726682,-0.5557433,-0.5427501,-0.53089345,-0.5156579,-0.49928582,-0.48573977,-0.4738831,-0.46147346,-0.44451785,-0.42535055,-0.40897852,-0.3976748,-0.39033347,-0.3790604,-0.36379415,-0.34969515,-0.33952785,-0.333876,-0.32825482,-0.32315582,-0.3203299,-0.3203299,-0.32315582,-0.3254289,-0.32711834,-0.33277023,-0.34462684,-0.36099887,-0.3784768,-0.3959853,-0.41631985,-0.44058615,-0.46936768,-0.49759644,-0.5252415,-0.55291736,-0.5800095,-0.6076853,-0.6319516,-0.65394485,-0.6748322,-0.6934773,-0.7075763,-0.7143647,-0.71660703,-0.71888006,-0.72170603,-0.724532,-0.7228425,-0.71888006,-0.71660703,-0.7177436,-0.7200166,-0.71943295,-0.71660703,-0.7126753,-0.7126753,-0.7149176,-0.7149176,-0.71322817,-0.71153873,-0.71153873,-0.71322817,-0.7120917,-0.7087128,-0.7075763,-0.71040225,-0.71550125,-0.7177436,-0.7171906,-0.71550125,-0.7171906,-0.7205695,-0.72170603,-0.7211224,-0.7222589,-0.724532,-0.7284637,-0.72677433,-0.7211224,-0.71605414,-0.71605414,-0.71943295,-0.7222589,-0.7228425,-0.7228425,-0.724532,-0.72791076,-0.7273579,-0.724532,-0.7222589,-0.7228425,-0.72677433,-0.7273579,-0.7262214,-0.72563773,-0.7273579,-0.7318733,-0.73242617,-0.7312896,-0.7290473,-0.7290473,-0.73073673,-0.7301531,-0.72791076,-0.72677433,-0.7284637,-0.7312896,-0.7296002,-0.724532,-0.7182964,-0.7149176,-0.71550125,-0.7143647,-0.71378106,-0.71322817,-0.7143647,-0.7149176,-0.7109859,-0.7064705,-0.7030609,-0.7058869,-0.7109859,-0.7120917,-0.70984936,-0.7070234,-0.7058869,-0.7058869,-0.7036446,-0.700235,-0.6974398,-0.6974398,-0.6974398,-0.69234073,-0.6838629,-0.6754159,-0.6697639,-0.6652486,-0.6567707,-0.64887655,-0.6471871,-0.6533919,-0.66300625,-0.66300625,-0.6500131,-0.63026214,-0.6127536,-0.60654885,-0.60654885,-0.60654885,-0.6025864,-0.595245,-0.5901768,-0.5935556,-0.6116171,-0.64039874,-0.67090046,-0.6940302,-0.7019551,-0.6985456,-0.6934773,-0.69120425,-0.6929244,-0.6940302,-0.6946138,-0.6946138,-0.6957196,-0.6979927,-0.6974398,-0.6951667,-0.6929244,-0.6929244,-0.6940302,-0.69178784,-0.68782544,-0.68499947,-0.6855831,-0.6906513,-0.6974398,-0.70984936,-0.72677433,-0.73580503,-0.71943295,-0.6556649,-0.5275146,-0.32598186,-0.06912804,0.20237732,0.44454837,0.6246103,0.73866165,0.7939825,0.77985275,0.6624534,0.410115,0.04375589,-0.34855866,-0.66186976,-0.826143,-0.84813625,-0.79226243,-0.7284637,-0.69685614,-0.6951667,-0.70533395,-0.7143647,-0.7177436,-0.71660703,-0.7126753,-0.7075763,-0.70475036,-0.7036446,-0.7030609,-0.6985456,-0.69234073,-0.6855831,-0.6821735,-0.6810677,-0.6754159,-0.6680745,-0.6590438,-0.6533919,-0.6511496,-0.64774,-0.64322466,-0.6387093,-0.63477755,-0.63250446,-0.6257468,-0.61557955,-0.60654885,-0.5986239,-0.5930027,-0.58452487,-0.5732211,-0.5602586,-0.54784906,-0.5365453,-0.5218626,-0.50493777,-0.48856568,-0.47501963,-0.4637158,-0.4484803,-0.43097174,-0.41291028,-0.3976748,-0.38526517,-0.37113547,-0.35648358,-0.34235388,-0.3316337,-0.32205003,-0.3124357,-0.30454147,-0.30057907,-0.3022685,-0.30792034,-0.3107463,-0.30960977,-0.3062309,-0.3112992,-0.32656538,-0.34745282,-0.3734085,-0.39881128,-0.42421407,-0.4484803,-0.47164077,-0.49421757,-0.51903677,-0.5467125,-0.5766307,-0.60144985,-0.6217843,-0.63929296,-0.6567707,-0.67427933,-0.6855831,-0.69234073,-0.6957196,-0.6991292,-0.7036446,-0.70533395,-0.70475036,-0.70419747,-0.7058869,-0.7075763,-0.70533395,-0.700235,-0.6940302,-0.6906513,-0.6900984,-0.68782544,-0.68499947,-0.68275714,-0.6838629,-0.6866889,-0.68727255,-0.6855831,-0.68499947,-0.68782544,-0.69234073,-0.6929244,-0.6900984,-0.68782544,-0.68782544,-0.69120425,-0.69120425,-0.6889619,-0.68727255,-0.6889619,-0.6946138,-0.6974398,-0.6979927,-0.69685614,-0.6979927,-0.70137155,-0.70137155,-0.6996821,-0.6974398,-0.6979927,-0.7008186,-0.70137155,-0.700235,-0.6985456,-0.6996821,-0.702508,-0.7019551,-0.700235,-0.6979927,-0.6991292,-0.7030609,-0.7030609,-0.700235,-0.6974398,-0.69630325,-0.6957196,-0.6940302,-0.6906513,-0.68837833,-0.6900984,-0.6951667,-0.6974398,-0.6974398,-0.6940302,-0.6906513,-0.68837833,-0.6844466,-0.6810677,-0.68048406,-0.68275714,-0.6844466,-0.68275714,-0.6776582,-0.67372644,-0.6748322,-0.6776582,-0.67655236,-0.6725899,-0.6686274,-0.6686274,-0.67145336,-0.6725899,-0.6697639,-0.6675216,-0.6680745,-0.6697639,-0.66921103,-0.666938,-0.6641121,-0.6635592,-0.6641121,-0.6607332,-0.6562178,-0.65394485,-0.6567707,-0.66018033,-0.6590438,-0.6533919,-0.6466342,-0.64322466,-0.64267176,-0.64098233,-0.6387093,-0.6370199,-0.63929296,-0.64322466,-0.64436114,-0.6421188,-0.6387093,-0.636467,-0.63533044,-0.63026214,-0.6223372,-0.61220074,-0.6037229,-0.59582865,-0.58735085,-0.5833883,-0.58679795,-0.595245,-0.5997604,-0.5918662,-0.5732211,-0.55347025,-0.54557604,-0.54840195,-0.5500914,-0.5461289,-0.53709817,-0.5325829,-0.53937125,-0.5585692,-0.58452487,-0.6110642,-0.63250446,-0.6449141,-0.6466342,-0.64380825,-0.64098233,-0.6415352,-0.64380825,-0.64267176,-0.6381564,-0.633641,-0.63250446,-0.6341939,-0.6341939,-0.63250446,-0.6308151,-0.6319516,-0.63588333,-0.636467,-0.633641,-0.62854207,-0.62912565,-0.6415352,-0.65846014,-0.6697639,-0.6595967,-0.6116171,-0.5071801,-0.32994425,-0.08663672,0.18600547,0.43665433,0.62743604,0.7538971,0.8239006,0.8340373,0.74769235,0.5314771,0.19389951,-0.19221026,-0.5252415,-0.7296002,-0.790573,-0.75331354,-0.686136,-0.64039874,-0.631368,-0.6454977,-0.6590438,-0.6641121,-0.66018033,-0.65508133,-0.6517025,-0.6466342,-0.6421188,-0.6381564,-0.636467,-0.63533044,-0.6308151,-0.6229209,-0.6167161,-0.6138901,-0.6138901,-0.61048055,-0.6037229,-0.5946921,-0.583972,-0.5771836,-0.57042587,-0.56701636,-0.56759995,-0.57042587,-0.5698423,-0.5608115,-0.54784906,-0.53427225,-0.5241357,-0.51679444,-0.5083165,-0.49759644,-0.48573977,-0.476709,-0.4676783,-0.45413214,-0.4377601,-0.4213881,-0.40839493,-0.3976748,-0.38357574,-0.36662012,-0.34969515,-0.336702,-0.32711834,-0.3175347,-0.305678,-0.29437423,-0.28816944,-0.28479058,-0.281381,-0.27686572,-0.2729339,-0.27348685,-0.2785551,-0.28307045,-0.28872234,-0.29664725,-0.31019336,-0.32936066,-0.34855866,-0.36775666,-0.38864398,-0.41404682,-0.443412,-0.47164077,-0.4970435,-0.52072614,-0.5450231,-0.5692894,-0.5901768,-0.60710174,-0.6195113,-0.63250446,-0.6466342,-0.6556649,-0.6607332,-0.6612861,-0.66242266,-0.66300625,-0.66186976,-0.66018033,-0.65846014,-0.6595967,-0.6635592,-0.6663851,-0.6652486,-0.66186976,-0.6595967,-0.65735435,-0.65452844,-0.652839,-0.6522554,-0.6567707,-0.6641121,-0.6680745,-0.6686274,-0.666938,-0.6675216,-0.6703168,-0.67145336,-0.6703168,-0.6680745,-0.66921103,-0.6725899,-0.6748322,-0.67427933,-0.672037,-0.67145336,-0.6725899,-0.6725899,-0.6703168,-0.6680745,-0.6686274,-0.672037,-0.6748322,-0.6776582,-0.67993116,-0.68499947,-0.6900984,-0.69120425,-0.68782544,-0.68331003,-0.68331003,-0.68727255,-0.6895148,-0.6895148,-0.6855831,-0.6838629,-0.68499947,-0.6855831,-0.6866889,-0.68782544,-0.6906513,-0.6934773,-0.69234073,-0.68782544,-0.6821735,-0.6816206,-0.68331003,-0.68331003,-0.68048406,-0.67596877,-0.6748322,-0.67710525,-0.6787947,-0.6782417,-0.6754159,-0.6748322,-0.67655236,-0.67710525,-0.6754159,-0.6725899,-0.6703168,-0.6686274,-0.66300625,-0.6533919,-0.6415352,-0.6341939,-0.63250446,-0.6341939,-0.6381564,-0.63929296,-0.63533044,-0.62402666,-0.60427576,-0.58283544,-0.5687058,-0.5664635,-0.57097876,-0.5721153,-0.56815284,-0.56477404,-0.5726682,-0.5975181,-0.62912565,-0.65846014,-0.67710525,-0.68499947,-0.686136,-0.6821735,-0.67596877,-0.6697639,-0.66921103,-0.6725899,-0.6748322,-0.6748322,-0.67372644,-0.6754159,-0.6793476,-0.6810677,-0.68048406,-0.67710525,-0.6754159,-0.6748322,-0.6748322,-0.6787947,-0.6934773,-0.7200166,-0.74428284,-0.7459723,-0.70475036,-0.6082382,-0.44734377,-0.21930242,0.05505979,0.33108068,0.56139517,0.7200166,0.80977094,0.84137857,0.79170954,0.619542,0.30795097,-0.09001553,-0.46654177,-0.7262214,-0.83065844,-0.8182181,-0.7589655,-0.7081599,-0.68727255,-0.6906513,-0.70475036,-0.71660703,-0.7200166,-0.71660703,-0.70984936,-0.7058869,-0.70419747,-0.7008186,-0.6951667,-0.686136,-0.67993116,-0.67655236,-0.6725899,-0.6663851,-0.6607332,-0.65790725,-0.65735435,-0.65508133,-0.6500131,-0.6415352,-0.6341939,-0.62854207,-0.6217843,-0.6133065,-0.6031393,-0.59582865,-0.5901768,-0.58228254,-0.5721153,-0.559675,-0.5500914,-0.5416136,-0.53089345,-0.5179309,-0.50324833,-0.48970217,-0.4778455,-0.46316296,-0.44510144,-0.42476696,-0.4061526,-0.38864398,-0.37058252,-0.353074,-0.336702,-0.32598186,-0.31922412,-0.3124357,-0.30509436,-0.29775304,-0.2955107,-0.29775304,-0.30057907,-0.3022685,-0.30454147,-0.3107463,-0.32146645,-0.33445966,-0.34855866,-0.36551434,-0.38864398,-0.41631985,-0.44510144,-0.47219366,-0.49873298,-0.52806747,-0.5602586,-0.5907297,-0.6178219,-0.6421188,-0.6658015,-0.68727255,-0.702508,-0.7120917,-0.7171906,-0.7233954,-0.7296002,-0.7318733,-0.7296002,-0.7250849,-0.7228425,-0.7222589,-0.7211224,-0.7182964,-0.7143647,-0.71378106,-0.7149176,-0.7143647,-0.71153873,-0.7075763,-0.7075763,-0.7109859,-0.71322817,-0.71153873,-0.7075763,-0.7070234,-0.7087128,-0.7109859,-0.7120917,-0.71153873,-0.71378106,-0.7182964,-0.7211224,-0.7211224,-0.71888006,-0.71888006,-0.7211224,-0.7222589,-0.72170603,-0.7200166,-0.72170603,-0.72563773,-0.72791076,-0.72791076,-0.72677433,-0.72791076,-0.7318733,-0.7346685,-0.7341156,-0.73242617,-0.7341156,-0.73749447,-0.73976743,-0.73807806,-0.7346685,-0.73297906,-0.7341156,-0.73525214,-0.7341156,-0.7318733,-0.73242617,-0.7346685,-0.73525214,-0.73297906,-0.7290473,-0.72791076,-0.7301531,-0.7312896,-0.7296002,-0.724532,-0.7205695,-0.7177436,-0.7126753,-0.7036446,-0.6929244,-0.6866889,-0.68727255,-0.69120425,-0.6946138,-0.69178784,-0.6821735,-0.6652486,-0.6449141,-0.62629974,-0.61613244,-0.6167161,-0.62123144,-0.6223372,-0.6200949,-0.6217843,-0.6381564,-0.666938,-0.6979927,-0.7211224,-0.73242617,-0.73580503,-0.7363887,-0.73580503,-0.7335627,-0.7301531,-0.7301531,-0.73242617,-0.7341156,-0.7341156,-0.7335627,-0.73525214,-0.73749447,-0.738631,-0.73580503,-0.7301531,-0.7273579,-0.724532,-0.7211224,-0.71605414,-0.71153873,-0.71550125,-0.7312896,-0.75555587,-0.77137506,-0.7645866,-0.7177436,-0.6082382,-0.41969866,-0.15719306,0.14085174,0.41800916,0.63026214,0.76575375,0.83234775,0.82783246,0.71946347,0.4784292,0.11544895,-0.28930598,-0.63026214,-0.83345366,-0.8876687,-0.84475744,-0.7753375,-0.7290473,-0.71943295,-0.7318733,-0.74483573,-0.74935114,-0.7459723,-0.7425934,-0.7425934,-0.7425934,-0.7403204,-0.7363887,-0.7341156,-0.7318733,-0.7284637,-0.7228425,-0.71550125,-0.7109859,-0.7075763,-0.7030609,-0.6957196,-0.6866889,-0.6816206,-0.6793476,-0.67655236,-0.6703168,-0.66300625,-0.6562178,-0.6500131,-0.6415352,-0.6296786,-0.61499596,-0.6037229,-0.5935556,-0.5833883,-0.5698423,-0.5540539,-0.5405078,-0.52806747,-0.51452136,-0.49814934,-0.47953498,-0.46202642,-0.44451785,-0.42703998,-0.40784204,-0.38919693,-0.37509793,-0.3649307,-0.35534704,-0.3451798,-0.33559614,-0.33108085,-0.33049715,-0.33049715,-0.3288077,-0.32711834,-0.3288077,-0.33445966,-0.34349036,-0.35252112,-0.3649307,-0.3841287,-0.40897852,-0.43662363,-0.46261,-0.48911858,-0.5179309,-0.5500914,-0.58283544,-0.6116171,-0.6376035,-0.66242266,-0.686136,-0.7058869,-0.7200166,-0.73073673,-0.740904,-0.74993473,-0.755003,-0.7544501,-0.7516241,-0.7516241,-0.75386643,-0.75555587,-0.75386643,-0.74993473,-0.74824536,-0.74993473,-0.7516241,-0.75217706,-0.7510405,-0.7504877,-0.7510405,-0.7510405,-0.74879825,-0.7459723,-0.7471088,-0.7504877,-0.75217706,-0.7504877,-0.7459723,-0.74428284,-0.7459723,-0.74879825,-0.74879825,-0.7471088,-0.7476617,-0.74935114,-0.7516241,-0.75217706,-0.7516241,-0.75386643,-0.75727606,-0.7589655,-0.7561395,-0.75217706,-0.7504877,-0.75217706,-0.755003,-0.755003,-0.75331354,-0.75331354,-0.7544501,-0.75555587,-0.7544501,-0.75217706,-0.75386643,-0.75727606,-0.7600713,-0.7589655,-0.75555587,-0.755003,-0.75838184,-0.7612078,-0.7600713,-0.755003,-0.7510405,-0.74935114,-0.74935114,-0.7476617,-0.74483573,-0.74428284,-0.7459723,-0.74824536,-0.74652517,-0.7436992,-0.74200976,-0.74200976,-0.74200976,-0.73918384,-0.73525214,-0.7341156,-0.73525214,-0.7363887,-0.7346685,-0.73073673,-0.7296002,-0.7312896,-0.73297906,-0.7312896,-0.72791076,-0.7250849,-0.7222589,-0.71660703,-0.70533395,-0.6929244,-0.6866889,-0.6889619,-0.69685614,-0.6996821,-0.69178784,-0.67427933,-0.6533919,-0.63533044,-0.6251632,-0.6223372,-0.62347376,-0.6217843,-0.6178219,-0.61613244,-0.62629974,-0.6533919,-0.68782544,-0.7177436,-0.7335627,-0.73525214,-0.73242617,-0.7296002,-0.7290473,-0.7290473,-0.7290473,-0.73242617,-0.7369416,-0.740904,-0.74145687,-0.73976743,-0.73976743,-0.740904,-0.73976743,-0.73525214,-0.7284637,-0.7233954,-0.7205695,-0.71943295,-0.71550125,-0.71153873,-0.71550125,-0.73242617,-0.7561395,-0.7696856,-0.7566924,-0.6979927,-0.57380474,-0.37509793,-0.10866064,0.18093705,0.4394803,0.62970924,0.74600303,0.80018735,0.7843683,0.66076386,0.39994764,0.022868633,-0.38074982,-0.70419747,-0.88032746,-0.9107985,-0.857167,-0.78605765,-0.74145687,-0.73242617,-0.74200976,-0.75276065,-0.75555587,-0.7504877,-0.7454194,-0.7436992,-0.74145687,-0.73749447,-0.73073673,-0.72394836,-0.7205695,-0.7182964,-0.71378106,-0.7087128,-0.70475036,-0.7008186,-0.6974398,-0.6900984,-0.6810677,-0.67427933,-0.6697639,-0.6658015,-0.6595967,-0.6522554,-0.6449141,-0.6370199,-0.62912565,-0.6189584,-0.60710174,-0.5975181,-0.5895932,-0.57887304,-0.5653269,-0.5512279,-0.5405078,-0.5314771,-0.5213098,-0.5054906,-0.4846033,-0.46654177,-0.45075333,-0.43720722,-0.42307752,-0.40784204,-0.39543247,-0.38526517,-0.37737095,-0.36662012,-0.35758936,-0.35252112,-0.35138458,-0.35196817,-0.35024804,-0.34631634,-0.3451798,-0.35024804,-0.358173,-0.36551434,-0.3734085,-0.38581806,-0.40332663,-0.42645633,-0.4484803,-0.47050422,-0.49532342,-0.52299917,-0.55236447,-0.5800095,-0.6059652,-0.6319516,-0.65846014,-0.6810677,-0.6974398,-0.7092657,-0.7200166,-0.7290473,-0.73749447,-0.7403204,-0.73976743,-0.73976743,-0.740904,-0.74145687,-0.738631,-0.7346685,-0.73297906,-0.7335627,-0.7346685,-0.7341156,-0.7335627,-0.7341156,-0.73580503,-0.73749447,-0.73580503,-0.73297906,-0.73297906,-0.7335627,-0.7341156,-0.73242617,-0.73073673,-0.73242617,-0.73580503,-0.73918384,-0.73807806,-0.7369416,-0.738631,-0.74428284,-0.74935114,-0.74935114,-0.7454194,-0.7431463,-0.7459723,-0.75217706,-0.75555587,-0.75555587,-0.75386643,-0.75217706,-0.7516241,-0.7510405,-0.7504877,-0.75276065,-0.75838184,-0.76403373,-0.7651703,-0.7634808,-0.7617914,-0.76065487,-0.7600713,-0.75727606,-0.75331354,-0.7516241,-0.7516241,-0.75276065,-0.7504877,-0.7471088,-0.7471088,-0.74935114,-0.75276065,-0.75217706,-0.74824536,-0.74652517,-0.74652517,-0.74824536,-0.7459723,-0.74200976,-0.73918384,-0.73807806,-0.7363887,-0.7290473,-0.7171906,-0.70475036,-0.69685614,-0.6946138,-0.6940302,-0.6940302,-0.6940302,-0.68837833,-0.67596877,-0.65790725,-0.64267176,-0.636467,-0.63984585,-0.64436114,-0.64039874,-0.6319516,-0.63026214,-0.64322466,-0.6680745,-0.6940302,-0.7149176,-0.7273579,-0.73297906,-0.73580503,-0.7341156,-0.73073673,-0.7296002,-0.7296002,-0.7301531,-0.72791076,-0.7250849,-0.7250849,-0.7290473,-0.73297906,-0.73242617,-0.7273579,-0.7228425,-0.7205695,-0.7211224,-0.7200166,-0.7171906,-0.71605414,-0.71605414,-0.7177436,-0.724532,-0.73749447,-0.7544501,-0.7634808,-0.74652517,-0.6787947,-0.54784906,-0.35024804,-0.10076642,0.16060269,0.3915006,0.5574633,0.6505965,0.67713606,0.62292075,0.4626099,0.17866409,-0.19052088,-0.5517808,-0.8091874,-0.91476095,-0.89501005,-0.82218057,-0.7561395,-0.724532,-0.71888006,-0.72563773,-0.7318733,-0.7341156,-0.73297906,-0.72677433,-0.7177436,-0.71040225,-0.7058869,-0.702508,-0.6979927,-0.6929244,-0.6906513,-0.69120425,-0.6929244,-0.6900984,-0.68275714,-0.67596877,-0.6703168,-0.6658015,-0.66018033,-0.6533919,-0.64832366,-0.64322466,-0.6370199,-0.62685263,-0.61557955,-0.6076853,-0.6025864,-0.5975181,-0.58790374,-0.57604706,-0.5641904,-0.5540539,-0.5438866,-0.5297569,-0.5133848,-0.49928582,-0.48629266,-0.47501963,-0.4597841,-0.44172263,-0.42535055,-0.41122085,-0.4010536,-0.39033347,-0.38074982,-0.37454504,-0.37058252,-0.3672037,-0.3621047,-0.35534704,-0.35196817,-0.35196817,-0.35589993,-0.36041534,-0.3649307,-0.3739614,-0.3864017,-0.40219015,-0.4157362,-0.43097174,-0.45130628,-0.47615612,-0.5054906,-0.53427225,-0.5602586,-0.58735085,-0.61499596,-0.64039874,-0.6607332,-0.67655236,-0.69178784,-0.70475036,-0.71605414,-0.72170603,-0.724532,-0.7284637,-0.7335627,-0.73918384,-0.7403204,-0.73976743,-0.740904,-0.7436992,-0.7471088,-0.74652517,-0.7425934,-0.7403204,-0.7403204,-0.74200976,-0.7403204,-0.7369416,-0.73525214,-0.7346685,-0.73580503,-0.7335627,-0.7284637,-0.7262214,-0.72677433,-0.7312896,-0.7335627,-0.73297906,-0.73242617,-0.73297906,-0.73580503,-0.7369416,-0.7363887,-0.73807806,-0.73976743,-0.74145687,-0.73976743,-0.7369416,-0.73580503,-0.738631,-0.7425934,-0.7425934,-0.7403204,-0.73918384,-0.7431463,-0.7504877,-0.755003,-0.755003,-0.7516241,-0.74935114,-0.74879825,-0.7471088,-0.7454194,-0.7436992,-0.7425934,-0.740904,-0.73580503,-0.7312896,-0.7284637,-0.7296002,-0.73242617,-0.73297906,-0.7318733,-0.73242617,-0.7346685,-0.7369416,-0.7346685,-0.7296002,-0.72394836,-0.7200166,-0.71550125,-0.7070234,-0.69630325,-0.686136,-0.67993116,-0.6793476,-0.6810677,-0.6844466,-0.68727255,-0.6838629,-0.67145336,-0.650566,-0.631368,-0.6229209,-0.62402666,-0.62912565,-0.62629974,-0.617269,-0.6110642,-0.61840546,-0.6415352,-0.6697639,-0.6951667,-0.7126753,-0.7205695,-0.72170603,-0.7177436,-0.7120917,-0.7087128,-0.7087128,-0.7120917,-0.71322817,-0.7120917,-0.7126753,-0.71550125,-0.7177436,-0.7149176,-0.7087128,-0.7030609,-0.7008186,-0.70137155,-0.6991292,-0.6940302,-0.68837833,-0.686136,-0.6906513,-0.7036446,-0.7233954,-0.73976743,-0.73525214,-0.68782544,-0.5766307,-0.39371228,-0.15267777,0.10810757,0.34293735,0.52527225,0.6489072,0.71946347,0.7284944,0.6376034,0.41631985,0.074227095,-0.31019336,-0.633641,-0.82218057,-0.8645083,-0.8171123,-0.74935114,-0.7075763,-0.700235,-0.7092657,-0.7177436,-0.7211224,-0.7200166,-0.7177436,-0.71322817,-0.7081599,-0.70419747,-0.7036446,-0.7036446,-0.700235,-0.6940302,-0.68727255,-0.68275714,-0.6793476,-0.67372644,-0.666938,-0.66186976,-0.65846014,-0.6562178,-0.6500131,-0.64098233,-0.6330881,-0.62854207,-0.6246103,-0.6167161,-0.6059652,-0.59582865,-0.58790374,-0.58283544,-0.57549417,-0.5636375,-0.55291736,-0.5421972,-0.5325829,-0.51903677,-0.50324833,-0.48629266,-0.47164077,-0.45920044,-0.443412,-0.42645633,-0.41235733,-0.39936417,-0.38864398,-0.37737095,-0.3649307,-0.35648358,-0.35252112,-0.35138458,-0.34745282,-0.3429067,-0.34121734,-0.3457327,-0.353074,-0.35758936,-0.3621047,-0.3683095,-0.37961328,-0.39712185,-0.41459966,-0.43324482,-0.45526868,-0.4817773,-0.51169544,-0.5382347,-0.56250095,-0.58735085,-0.6133065,-0.63929296,-0.65790725,-0.67090046,-0.68048406,-0.6906513,-0.7030609,-0.7109859,-0.71550125,-0.71888006,-0.7233954,-0.7273579,-0.72677433,-0.7228425,-0.7182964,-0.7171906,-0.71888006,-0.7177436,-0.7143647,-0.71040225,-0.7087128,-0.7092657,-0.7081599,-0.70475036,-0.70137155,-0.7008186,-0.7030609,-0.70475036,-0.70533395,-0.7064705,-0.7087128,-0.71153873,-0.71040225,-0.7070234,-0.70533395,-0.7070234,-0.7109859,-0.71153873,-0.71040225,-0.7092657,-0.70984936,-0.71153873,-0.71040225,-0.7070234,-0.70533395,-0.7075763,-0.71322817,-0.7171906,-0.7182964,-0.7171906,-0.7171906,-0.7177436,-0.71550125,-0.7143647,-0.7149176,-0.7182964,-0.7222589,-0.7211224,-0.7177436,-0.71378106,-0.71378106,-0.71605414,-0.71550125,-0.7126753,-0.70984936,-0.71040225,-0.71378106,-0.7126753,-0.70984936,-0.7081599,-0.7087128,-0.7120917,-0.71153873,-0.7075763,-0.7036446,-0.702508,-0.7058869,-0.7070234,-0.7064705,-0.70533395,-0.7058869,-0.7081599,-0.7075763,-0.70475036,-0.7019551,-0.7019551,-0.7058869,-0.7075763,-0.7064705,-0.70533395,-0.70475036,-0.7058869,-0.70475036,-0.70137155,-0.69685614,-0.6940302,-0.6946138,-0.6940302,-0.69234073,-0.69120425,-0.6900984,-0.6895148,-0.6855831,-0.67993116,-0.67710525,-0.6787947,-0.68275714,-0.6838629,-0.6810677,-0.6776582,-0.6776582,-0.6810677,-0.6810677,-0.6782417,-0.67427933,-0.672037,-0.67090046,-0.6680745,-0.6646957,-0.66242266,-0.6641121,-0.6675216,-0.6663851,-0.6607332,-0.65394485,-0.64887655,-0.6449141,-0.63533044,-0.6229209,-0.61444306,-0.6138901,-0.6229209,-0.62912565,-0.62629974,-0.6116171,-0.5918662,-0.5766307,-0.56815284,-0.5664635,-0.56759995,-0.5664635,-0.56477404,-0.5630846,-0.5721153,-0.5946921,-0.62685263,-0.65790725,-0.6748322,-0.6787947,-0.6748322,-0.67145336,-0.6725899,-0.6731428,-0.6731428,-0.6731428,-0.6754159,-0.6787947,-0.6787947,-0.67596877,-0.6731428,-0.672037,-0.67427933,-0.67427933,-0.6725899,-0.6697639,-0.66921103,-0.672037,-0.6782417,-0.6929244,-0.71153873,-0.7205695,-0.7036446,-0.6381564,-0.50886947,-0.30960977,-0.056718647,0.20916593,0.44682157,0.6251937,0.7414875,0.80187666,0.7928461,0.67430997,0.42028236,0.052786827,-0.33728552,-0.6449141,-0.80525565,-0.82783246,-0.77475387,-0.7143647,-0.68331003,-0.67993116,-0.68837833,-0.69630325,-0.6991292,-0.6979927,-0.6934773,-0.68727255,-0.68275714,-0.68275714,-0.68331003,-0.6793476,-0.67427933,-0.6686274,-0.6675216,-0.6686274,-0.6658015,-0.6590438,-0.650566,-0.6449141,-0.6415352,-0.6370199,-0.6319516,-0.6257468,-0.6217843,-0.6189584,-0.6127536,-0.60485935,-0.5969345,-0.5901768,-0.58228254,-0.57153165,-0.5585692,-0.5467125,-0.53937125,-0.5337193,-0.5235521,-0.5083165,-0.4919445,-0.47839844,-0.4676783,-0.45526868,-0.44113898,-0.4259035,-0.41291028,-0.40219015,-0.39091706,-0.37961328,-0.3683095,-0.36099887,-0.35703647,-0.3508317,-0.3451798,-0.34121734,-0.3406644,-0.3429067,-0.3429067,-0.34235388,-0.34235388,-0.34631634,-0.35534704,-0.36551434,-0.3784768,-0.39484882,-0.41631985,-0.44058615,-0.46316296,-0.48573977,-0.50886947,-0.53485584,-0.56194806,-0.5856614,-0.6059652,-0.6246103,-0.64322466,-0.66018033,-0.672037,-0.6782417,-0.68275714,-0.68837833,-0.6951667,-0.6985456,-0.700235,-0.7008186,-0.7019551,-0.7019551,-0.6985456,-0.6946138,-0.69234073,-0.69630325,-0.7019551,-0.7019551,-0.6979927,-0.6934773,-0.6929244,-0.6974398,-0.70137155,-0.7030609,-0.7030609,-0.70419747,-0.7064705,-0.7058869,-0.7030609,-0.7008186,-0.70137155,-0.70533395,-0.7070234,-0.7058869,-0.70419747,-0.70475036,-0.7070234,-0.7075763,-0.7070234,-0.7070234,-0.70984936,-0.71550125,-0.7182964,-0.7182964,-0.71605414,-0.71605414,-0.7182964,-0.7182964,-0.7177436,-0.7171906,-0.7177436,-0.71943295,-0.71888006,-0.71660703,-0.71322817,-0.71322817,-0.71605414,-0.7171906,-0.71660703,-0.7143647,-0.7126753,-0.7120917,-0.70984936,-0.7070234,-0.70533395,-0.7081599,-0.71153873,-0.7126753,-0.71153873,-0.7087128,-0.7092657,-0.7126753,-0.71378106,-0.71153873,-0.7075763,-0.7058869,-0.7058869,-0.70533395,-0.7030609,-0.7008186,-0.70137155,-0.7030609,-0.7030609,-0.7008186,-0.6974398,-0.6957196,-0.69630325,-0.6951667,-0.6940302,-0.6929244,-0.6940302,-0.69630325,-0.6951667,-0.69120425,-0.68837833,-0.68782544,-0.6895148,-0.68837833,-0.686136,-0.68275714,-0.68331003,-0.686136,-0.686136,-0.6844466,-0.6821735,-0.6821735,-0.6838629,-0.6821735,-0.6787947,-0.6754159,-0.6748322,-0.67655236,-0.6748322,-0.672037,-0.66921103,-0.6697639,-0.6731428,-0.6725899,-0.6697639,-0.6658015,-0.6658015,-0.6675216,-0.6675216,-0.6652486,-0.66300625,-0.6635592,-0.6646957,-0.6641121,-0.6612861,-0.65790725,-0.6567707,-0.65452844,-0.6460506,-0.6341939,-0.62347376,-0.61840546,-0.6206478,-0.6251632,-0.62685263,-0.6251632,-0.6206478,-0.6116171,-0.595245,-0.5777672,-0.5653269,-0.5636375,-0.57042587,-0.5749413,-0.5732211,-0.5664635,-0.5636375,-0.5726682,-0.5935556,-0.6200949,-0.6454977,-0.666938,-0.6782417,-0.67993116,-0.6754159,-0.66921103,-0.6675216,-0.66921103,-0.672037,-0.6731428,-0.67427933,-0.67710525,-0.6793476,-0.67710525,-0.6731428,-0.666938,-0.6652486,-0.666938,-0.6663851,-0.6641121,-0.66300625,-0.672037,-0.6929244,-0.7126753,-0.7143647,-0.6810677,-0.59638155,-0.44396496,-0.21761304,0.055612683,0.32883835,0.55236435,0.7059176,0.7973614,0.8334843,0.787194,0.6155795,0.30736732,-0.083257854,-0.45244277,-0.7070234,-0.81146044,-0.7984672,-0.7335627,-0.67655236,-0.6533919,-0.6590438,-0.67427933,-0.68331003,-0.68275714,-0.67710525,-0.6725899,-0.6686274,-0.6641121,-0.65735435,-0.650566,-0.64774,-0.64774,-0.6449141,-0.6387093,-0.63026214,-0.6246103,-0.6200949,-0.61499596,-0.6087911,-0.60144985,-0.59638155,-0.5930027,-0.5862143,-0.57604706,-0.56477404,-0.5562962,-0.5506443,-0.5438866,-0.53485584,-0.5241357,-0.5156579,-0.5094531,-0.49983877,-0.48742914,-0.47333014,-0.46033698,-0.44903314,-0.43548715,-0.4202516,-0.40332663,-0.38919693,-0.37678736,-0.36268836,-0.34745282,-0.33218658,-0.32205003,-0.31526166,-0.3067838,-0.29606366,-0.28534353,-0.27969164,-0.27969164,-0.27969164,-0.2780022,-0.27517623,-0.27517623,-0.2780022,-0.28251755,-0.28816944,-0.2955107,-0.30847323,-0.32656538,-0.3451798,-0.3621047,-0.3790604,-0.39994782,-0.42535055,-0.45016974,-0.47443599,-0.495907,-0.5184838,-0.5405078,-0.5585692,-0.5721153,-0.58169895,-0.5930027,-0.60485935,-0.61220074,-0.61444306,-0.6138901,-0.61444306,-0.6167161,-0.617269,-0.61557955,-0.61220074,-0.6110642,-0.6133065,-0.6133065,-0.6110642,-0.6082382,-0.6082382,-0.61048055,-0.61048055,-0.60710174,-0.6025864,-0.60089695,-0.6025864,-0.6031393,-0.60203344,-0.5992075,-0.60089695,-0.60427576,-0.60654885,-0.60427576,-0.5997604,-0.598071,-0.5986239,-0.5997604,-0.5997604,-0.5986239,-0.5997604,-0.60144985,-0.60144985,-0.5986239,-0.5941085,-0.5935556,-0.5946921,-0.5941085,-0.5918662,-0.5901768,-0.5918662,-0.59638155,-0.598071,-0.595245,-0.5913133,-0.5901768,-0.5930027,-0.5946921,-0.5930027,-0.5862143,-0.581146,-0.5794566,-0.5777672,-0.57549417,-0.5732211,-0.5721153,-0.5721153,-0.5721153,-0.5692894,-0.56477404,-0.5636375,-0.5641904,-0.56477404,-0.5630846,-0.559675,-0.5585692,-0.5602586,-0.5608115,-0.5585692,-0.5551597,-0.5540539,-0.5562962,-0.5562962,-0.5540539,-0.5512279,-0.5506443,-0.55236447,-0.55236447,-0.5495385,-0.54443955,-0.543303,-0.5450231,-0.5467125,-0.5461289,-0.5438866,-0.54443955,-0.5461289,-0.5450231,-0.5410607,-0.5359924,-0.53427225,-0.53709817,-0.5382347,-0.53709817,-0.53485584,-0.5354088,-0.5365453,-0.5365453,-0.5337193,-0.53089345,-0.5297569,-0.53316647,-0.5354088,-0.5337193,-0.5297569,-0.5286511,-0.53034055,-0.53034055,-0.52637804,-0.51903677,-0.51169544,-0.5060742,-0.5038012,-0.5021118,-0.5009753,-0.50493777,-0.510006,-0.5105896,-0.5038012,-0.48970217,-0.4738831,-0.45864755,-0.44734377,-0.44282842,-0.44282842,-0.44734377,-0.44903314,-0.44679087,-0.44623798,-0.45582163,-0.4778455,-0.50662714,-0.5297569,-0.5416136,-0.5421972,-0.5405078,-0.53937125,-0.5382347,-0.5376818,-0.5376818,-0.5421972,-0.5472654,-0.54784906,-0.5450231,-0.5387876,-0.5354088,-0.5354088,-0.53485584,-0.53034055,-0.5252415,-0.52072614,-0.5196204,-0.5218626,-0.53034055,-0.54557604,-0.5608115,-0.559675,-0.51903677,-0.41911507,-0.25091004,-0.021148562,0.24077344,0.4942174,0.6980232,0.8346207,0.90010893,0.8944571,0.790573,0.56535757,0.22722733,-0.15608734,-0.48236096,-0.672037,-0.71378106,-0.6595967,-0.583972,-0.5314771,-0.51452136,-0.5179309,-0.5235521,-0.52582514,-0.5235521,-0.5173473,-0.5083165,-0.49983877,-0.495907,-0.493634,-0.48970217,-0.4829138,-0.47557247,-0.47274655,-0.47333014,-0.47333014,-0.4676783,-0.45864755,-0.45075333,-0.44565433,-0.44113898,-0.4349342,-0.42814583,-0.42421407,-0.42252463,-0.41969866,-0.41291028,-0.4016372,-0.39091706,-0.3824392,-0.37509793,-0.3649307,-0.3542105,-0.34462684,-0.336702,-0.3288077,-0.31864053,-0.30509436,-0.2921319,-0.27969164,-0.265009,-0.24808407,-0.2305755,-0.21647656,-0.2063092,-0.19783139,-0.1888007,-0.17921704,-0.17356515,-0.17132282,-0.17018634,-0.16791326,-0.16453439,-0.16339791,-0.16622388,-0.17073923,-0.17639112,-0.18259591,-0.19276321,-0.20517272,-0.2170294,-0.22946972,-0.24412161,-0.26559263,-0.2915483,-0.31808758,-0.3429067,-0.36662012,-0.39429587,-0.42307752,-0.45075333,-0.47274655,-0.49025512,-0.5077637,-0.5246886,-0.5376818,-0.5467125,-0.55291736,-0.5591221,-0.5664635,-0.5698423,-0.5687058,-0.56701636,-0.56815284,-0.57380474,-0.57887304,-0.5805625,-0.5794566,-0.5805625,-0.58283544,-0.58452487,-0.58507776,-0.58283544,-0.58283544,-0.5833883,-0.5833883,-0.581146,-0.57887304,-0.5800095,-0.58452487,-0.5890403,-0.5907297,-0.5913133,-0.5941085,-0.598071,-0.60144985,-0.60203344,-0.60203344,-0.6054123,-0.6116171,-0.6167161,-0.6178219,-0.61557955,-0.61444306,-0.61557955,-0.6167161,-0.61499596,-0.6138901,-0.61613244,-0.6217843,-0.6279891,-0.63026214,-0.63026214,-0.631368,-0.633641,-0.63533044,-0.63533044,-0.63477755,-0.636467,-0.6421188,-0.64774,-0.64942944,-0.650566,-0.6533919,-0.6562178,-0.6562178,-0.6522554,-0.6471871,-0.6460506,-0.64942944,-0.65452844,-0.65508133,-0.64942944,-0.6449141,-0.64098233,-0.63929296,-0.6387093,-0.6376035,-0.63984585,-0.64267176,-0.6449141,-0.6449141,-0.6421188,-0.6415352,-0.64322466,-0.6454977,-0.6460506,-0.6454977,-0.6449141,-0.64380825,-0.64098233,-0.63533044,-0.6296786,-0.6274363,-0.62854207,-0.63026214,-0.6279891,-0.6251632,-0.62347376,-0.6229209,-0.6206478,-0.61444306,-0.60654885,-0.5997604,-0.59582865,-0.5935556,-0.5918662,-0.5930027,-0.5975181,-0.5992075,-0.5918662,-0.5749413,-0.5551597,-0.5461289,-0.5495385,-0.5574327,-0.5591221,-0.55347025,-0.5467125,-0.5472654,-0.56139517,-0.58228254,-0.6059652,-0.6279891,-0.6415352,-0.6466342,-0.64436114,-0.64098233,-0.64267176,-0.64832366,-0.65452844,-0.65508133,-0.6517025,-0.64942944,-0.650566,-0.6533919,-0.65452844,-0.65394485,-0.6533919,-0.65394485,-0.6522554,-0.6471871,-0.64098233,-0.64267176,-0.65735435,-0.6810677,-0.6979927,-0.6951667,-0.6567707,-0.56701636,-0.4151833,-0.19841504,0.05392325,0.29326832,0.48125494,0.6065489,0.67768884,0.6935079,0.6206784,0.4231081,0.10414517,-0.26841855,-0.5935556,-0.79450476,-0.85323524,-0.81539214,-0.74428284,-0.6906513,-0.6725899,-0.6793476,-0.6900984,-0.6934773,-0.6895148,-0.68499947,-0.6838629,-0.68275714,-0.6793476,-0.67372644,-0.6697639,-0.6675216,-0.6663851,-0.66186976,-0.6562178,-0.652839,-0.6517025,-0.6511496,-0.64832366,-0.64436114,-0.64098233,-0.6370199,-0.6308151,-0.62123144,-0.60992765,-0.6025864,-0.5997604,-0.598071,-0.5924191,-0.58452487,-0.5777672,-0.5721153,-0.5653269,-0.55347025,-0.5382347,-0.5246886,-0.5133848,-0.5026647,-0.49025512,-0.47615612,-0.4637158,-0.45185918,-0.44000244,-0.42363042,-0.40728915,-0.39543247,-0.38864398,-0.38526517,-0.3813027,-0.37509793,-0.3700297,-0.36775666,-0.36551434,-0.36268836,-0.36041534,-0.36268836,-0.36889315,-0.37792385,-0.3869546,-0.39712185,-0.41122085,-0.43041885,-0.45244277,-0.4738831,-0.49532342,-0.5213098,-0.5506443,-0.5805625,-0.6054123,-0.6279891,-0.650566,-0.67427933,-0.69685614,-0.7143647,-0.72563773,-0.73525214,-0.7425934,-0.7476617,-0.74652517,-0.7436992,-0.7425934,-0.74483573,-0.74824536,-0.7476617,-0.74428284,-0.7431463,-0.7436992,-0.74652517,-0.7454194,-0.74145687,-0.73918384,-0.73807806,-0.738631,-0.73749447,-0.73580503,-0.7369416,-0.73918384,-0.7425934,-0.74200976,-0.73976743,-0.738631,-0.73918384,-0.74145687,-0.74145687,-0.740904,-0.7425934,-0.7459723,-0.74824536,-0.7476617,-0.7459723,-0.7476617,-0.75217706,-0.7561395,-0.75555587,-0.75331354,-0.75331354,-0.7566924,-0.7612078,-0.7623443,-0.76065487,-0.76065487,-0.7617914,-0.7628972,-0.7612078,-0.75838184,-0.7589655,-0.7628972,-0.7685491,-0.7696856,-0.7668597,-0.7657231,-0.76741254,-0.7702385,-0.77082217,-0.7685491,-0.76741254,-0.7657231,-0.76630676,-0.76403373,-0.7623443,-0.7634808,-0.7668597,-0.77137506,-0.77192795,-0.7696856,-0.7679962,-0.7657231,-0.7623443,-0.7566924,-0.75276065,-0.75331354,-0.75727606,-0.7623443,