-0.39718896,-0.40000618,-0.39973056,-0.3994243,-0.39801574,-0.4008329,-0.4033745,-0.40533423,-0.4092844,-0.4140613,-0.40983558,-0.37609088,-0.3035184,-0.18538141,-0.032336175,0.124904275,0.2624551,0.36399543,0.3971889,0.32375896,0.1310898,-0.1505037,-0.4503476,-0.6928377,-0.82193714,-0.8539976,-0.8174358,-0.74091315,-0.6503353,-0.56089044,-0.4880424,-0.44416207,-0.42615676,-0.42110425,-0.41856265,-0.4140613,-0.4067428,-0.3988732,-0.3918302,-0.3876351,-0.38340938,-0.380041,-0.37722385,-0.37244695,-0.36567962,-0.3617295,-0.356677,-0.3490829,-0.34234625,-0.33276176,-0.32039076,-0.31138808,-0.302661,-0.29142296,-0.2798788,-0.2658236,-0.25486118,-0.2466852,-0.23967296,-0.2292617,-0.21125638,-0.18960714,-0.17242861,-0.16400772,-0.16342592,-0.16933584,-0.17861408,-0.18960714,-0.20366234,-0.21799308,-0.23207885,-0.24558288,-0.263282,-0.28496188,-0.31392968,-0.34344858,-0.3699054,-0.39241207,-0.4092844,-0.42588115,-0.4427535,-0.4548489,-0.46385157,-0.4705882,-0.47903973,-0.49000216,-0.5009953,-0.50632334,-0.5094161,-0.5094161,-0.51054907,-0.5133662,-0.51168203,-0.51168203,-0.5150504,-0.5167346,-0.5206847,-0.52405304,-0.5237775,-0.5226445,-0.5220933,-0.51982725,-0.51927614,-0.5248798,-0.5305142,-0.53697526,-0.5395168,-0.53697526,-0.5333313,-0.525186,-0.51982725,-0.51900053,-0.5209603,-0.525186,-0.52687025,-0.51955175,-0.5069051,-0.48917538,-0.47989714,-0.474814,-0.47426283,-0.47708,-0.4745384,-0.46862847,-0.46075886,-0.45598185,-0.45203173,-0.4467036,-0.44220233,-0.43910956,-0.4407937,-0.4483878,-0.46075886,-0.47285426,-0.4827143,-0.49085957,-0.49900484,-0.5094161,-0.5217871,-0.53023857,-0.5350155,-0.53473985,-0.53164715,-0.5313716,-0.53587294,-0.54374254,-0.54907066,-0.5502037,-0.55133665,-0.5521634,-0.5538782,-0.54401815,-0.5009953,-0.4109686,-0.27087605,-0.1032244,0.06638694,0.21294057,0.30293655,0.30152798,0.18143117,-0.06133449,-0.37018096,-0.66582966,-0.88495576,-0.99013996,-1.0,-0.9476682,-0.8615917,-0.7648284,-0.6796093,-0.6143553,-0.576936,-0.5653918,-0.56370765,-0.5648406,-0.5648406,-0.55865514,-0.554705,-0.54907066,-0.5428852,-0.5324739,-0.5229201,-0.5133662,-0.5074563,-0.5074563,-0.50858927,-0.5099979,-0.50549656,-0.49536085,-0.4801727,-0.4649846,-0.4540221,-0.44584626,-0.43852776,-0.42532998,-0.40701848,-0.3893193,-0.37413114,-0.3594942,-0.34654135,-0.33389473,-0.32375914,-0.31674683,-0.3130722,-0.3105613,-0.30801976,-0.31025505,-0.31588942,-0.32743365,-0.34485716,-0.36681265,-0.38650215,-0.40815145,-0.42615676,-0.44471323,-0.4658113,-0.49085957,-0.5147748,-0.53697526,-0.55638915,-0.5721592,-0.58397895,-0.595217,-0.6042196,-0.61126256,-0.6140491,-0.61126256,-0.6109563,-0.61349785,-0.616315,-0.6196834,-0.62109196,-0.6191322,-0.61714184,-0.6179992,-0.61714184,-0.6165906,-0.6165906,-0.61377347,-0.60872096,-0.6056282,-0.60645497,-0.6084454,-0.6070368,-0.6033622,-0.59662557,-0.5954926,-0.6014025,-0.60899657,-0.61126256,-0.6059038,-0.59576815,-0.58508134,-0.57748723,-0.5746701,-0.57411885,-0.57243466,-0.57102615,-0.56961757,-0.56876016,-0.5668004,-0.5642588,-0.56202346,-0.5580733,-0.5549806,-0.5561136,-0.5575222,-0.56116605,-0.5651162,-0.56370765,-0.55779773,-0.55161226,-0.54401815,-0.5417828,-0.5426096,-0.5445694,-0.5473865,-0.5482439,-0.5487951,-0.5448755,-0.5417828,-0.5397924,-0.5406498,-0.5434669,-0.5448755,-0.5434669,-0.53869,-0.5352911,-0.5336069,-0.5344643,-0.5381082,-0.53669965,-0.529963,-0.5226445,-0.5133662,-0.5057721,-0.5012708,-0.49790245,-0.49732065,-0.49958664,-0.5032306,-0.5037818,-0.4961877,-0.4795909,-0.46075886,-0.44416207,-0.43375087,-0.43010694,-0.43010694,-0.43093365,-0.43151546,-0.43629235,-0.44639748,-0.46103442,-0.4801727,-0.49845362,-0.5111002,-0.514193,-0.51391745,-0.50858927,-0.5040879,-0.5040879,-0.50436354,-0.50549656,-0.5057721,-0.50549656,-0.50491476,-0.50549656,-0.5074563,-0.4998622,-0.46470898,-0.3904217,-0.265548,-0.1009891,0.072021246,0.23685586,0.3614539,0.40365005,0.3291179,0.11645281,-0.19239366,-0.51391745,-0.7679211,-0.90632945,-0.93924737,-0.90378785,-0.82757145,-0.73191047,-0.6419145,-0.5698931,-0.525186,-0.5057721,-0.49732065,-0.49309486,-0.49226815,-0.48945093,-0.48354107,-0.4764982,-0.46694428,-0.45598185,-0.44584626,-0.4351594,-0.42532998,-0.41687852,-0.4109686,-0.40873325,-0.4061916,-0.40028173,-0.3895949,-0.37495792,-0.3594942,-0.3476743,-0.33753866,-0.32406527,-0.30801976,-0.29169858,-0.27932757,-0.26750773,-0.25372815,-0.23740697,-0.2168907,-0.1994366,-0.1851058,-0.17129558,-0.16315031,-0.15978199,-0.16146612,-0.1701932,-0.18201303,-0.19465965,-0.20929664,-0.22362745,-0.24190831,-0.26245522,-0.28269595,-0.30492693,-0.32884222,-0.35640138,-0.38031667,-0.4016903,-0.41546988,-0.42392135,-0.43261784,-0.44162047,-0.45062315,-0.45766604,-0.45990145,-0.4604832,-0.46130997,-0.46216738,-0.46553576,-0.46611756,-0.46694428,-0.46666873,-0.46412712,-0.46385157,-0.46216738,-0.45907462,-0.45794165,-0.45766604,-0.45990145,-0.46103442,-0.45962584,-0.4582172,-0.45766604,-0.45849288,-0.4568087,-0.4540221,-0.447806,-0.44134492,-0.44051814,-0.43852776,-0.43488383,-0.43261784,-0.4334752,-0.43852776,-0.44416207,-0.44697922,-0.44388646,-0.4368435,-0.42983127,-0.4270141,-0.4306581,-0.43234217,-0.4368435,-0.43966073,-0.43880332,-0.4360168,-0.43151546,-0.4284227,-0.4250238,-0.42670792,-0.43093365,-0.43375087,-0.4368435,-0.4360168,-0.43292403,-0.42952508,-0.42306393,-0.41856265,-0.4160211,-0.41997123,-0.42532998,-0.42728972,-0.42361516,-0.41292834,-0.40251708,-0.39718896,-0.39859754,-0.4014147,-0.40478307,-0.40478307,-0.4033745,-0.40055734,-0.3977402,-0.39522922,-0.3910035,-0.3870533,-0.37918365,-0.37018096,-0.3614539,-0.35640138,-0.35808557,-0.35695255,-0.356677,-0.353033,-0.34403038,-0.3305264,-0.31702238,-0.30406958,-0.2976085,-0.30070126,-0.31279665,-0.329669,-0.34176445,-0.3502159,-0.35612583,-0.36313814,-0.37214077,-0.38368493,-0.38987046,-0.3918302,-0.39127904,-0.39296323,-0.39323884,-0.39492303,-0.3966378,-0.39914876,-0.40505862,-0.4132346,-0.41942,-0.4033745,-0.35134894,-0.2489512,-0.09621215,0.08776069,0.27960324,0.4570843,0.5803044,0.5977584,0.4722724,0.20026326,-0.14909518,-0.4852252,-0.7260312,-0.8458524,-0.86609304,-0.8213859,-0.7378204,-0.6385461,-0.5417828,-0.46666873,-0.42728972,-0.4140613,-0.41491872,-0.41546988,-0.4132346,-0.40815145,-0.40196592,-0.39296323,-0.38282758,-0.37103838,-0.35921854,-0.34853172,-0.34430593,-0.34289742,-0.33812052,-0.33107758,-0.31843102,-0.30716234,-0.3015586,-0.3015586,-0.30015004,-0.28805465,-0.26946753,-0.2483694,-0.23008853,-0.21630895,-0.2042135,-0.19015831,-0.17270416,-0.15469885,-0.1378265,-0.12236279,-0.11363566,-0.10999173,-0.11026734,-0.11590165,-0.12236279,-0.12940568,-0.13868392,-0.1507793,-0.16878468,-0.18902534,-0.21098083,-0.23235452,-0.253177,-0.27651042,-0.29929262,-0.32406527,-0.35049152,-0.37045652,-0.38509357,-0.39382064,-0.39578038,-0.3988732,-0.40505862,-0.4163273,-0.4256056,-0.4306581,-0.43234217,-0.4281165,-0.42588115,-0.42474812,-0.42474812,-0.42728972,-0.42756528,-0.42670792,-0.42532998,-0.42165542,-0.41856265,-0.4166029,-0.41546988,-0.41491872,-0.41210157,-0.408427,-0.4067428,-0.40450746,-0.40196592,-0.40028173,-0.39464742,-0.3893193,-0.3904217,-0.39072794,-0.39241207,-0.39072794,-0.38481796,-0.38340938,-0.38282758,-0.38650215,-0.39014608,-0.3887375,-0.38592035,-0.3817252,-0.37749952,-0.37581533,-0.37495792,-0.37495792,-0.3746823,-0.37609088,-0.3769483,-0.37777507,-0.3797348,-0.37722385,-0.37523353,-0.3746823,-0.37186515,-0.3707322,-0.3699054,-0.3696298,-0.37045652,-0.37299818,-0.3746823,-0.37413114,-0.37354934,-0.3707322,-0.36595523,-0.3600453,-0.3541354,-0.35076708,-0.3499403,-0.3493585,-0.34513277,-0.33812052,-0.32994455,-0.32884222,-0.33080196,-0.3344459,-0.3305264,-0.32011515,-0.30774415,-0.2950669,-0.2886058,-0.28073615,-0.27510184,-0.2728665,-0.2781946,-0.2908718,-0.3009768,-0.3068868,-0.3099795,-0.31757355,-0.33107758,-0.34739876,-0.36062717,-0.3639955,-0.35921854,-0.353033,-0.3502159,-0.34963405,-0.35190004,-0.35499287,-0.3600453,-0.36849684,-0.3766421,-0.3648529,-0.31702238,-0.21771747,-0.0683468,0.11391127,0.29874134,0.46330035,0.56652474,0.56116617,0.42052233,0.15359652,-0.1696114,-0.46807724,-0.6722908,-0.7670944,-0.7780568,-0.7299507,-0.6511927,-0.56370765,-0.47903973,-0.41773587,-0.3820008,-0.3648529,-0.35753435,-0.35275745,-0.34794992,-0.34008026,-0.32994455,-0.32179928,-0.31448084,-0.30884653,-0.30406958,-0.30015004,-0.29479134,-0.28805465,-0.27932757,-0.2711823,-0.26300645,-0.25654536,-0.24809384,-0.23798883,-0.22417855,-0.21349174,-0.20280492,-0.1893009,-0.17438835,-0.15583181,-0.13951069,-0.12631291,-0.11531985,-0.10435742,-0.09253758,-0.081575155,-0.07453227,-0.06920421,-0.06693816,-0.06583583,-0.07033718,-0.075665236,-0.08720952,-0.10631722,-0.12686408,-0.15133053,-0.17469454,-0.19325107,-0.21266502,-0.23207885,-0.25146222,-0.2703249,-0.28719723,-0.30575377,-0.3223505,-0.3372631,-0.34739876,-0.3510427,-0.35134894,-0.353033,-0.35640138,-0.36286247,-0.36623085,-0.3679456,-0.3673638,-0.36512846,-0.36371988,-0.3614539,-0.35863674,-0.35921854,-0.3600453,-0.36258692,-0.36512846,-0.3620357,-0.35695255,-0.35330862,-0.353033,-0.35499287,-0.35385984,-0.3493585,-0.34344858,-0.33643633,-0.33417034,-0.33417034,-0.33417034,-0.33389473,-0.33643633,-0.33753866,-0.33165938,-0.3248921,-0.31815535,-0.31561387,-0.31870657,-0.32434088,-0.3246165,-0.3232079,-0.31898212,-0.31588942,-0.31561387,-0.31616503,-0.31616503,-0.31392968,-0.30942827,-0.30575377,-0.3043452,-0.30633557,-0.30942827,-0.31196994,-0.3122455,-0.31196994,-0.3116637,-0.30575377,-0.2976085,-0.28946322,-0.2829715,-0.28214473,-0.2860642,-0.28833026,-0.28777903,-0.28242028,-0.274275,-0.263282,-0.25427938,-0.24699146,-0.23853993,-0.23067033,-0.22417855,-0.22108585,-0.2244848,-0.23290569,-0.24190831,-0.24950242,-0.25795388,-0.2649662,-0.27537745,-0.28777903,-0.29647547,-0.3043452,-0.30465138,-0.30379397,-0.30015004,-0.29733288,-0.29874152,-0.2984659,-0.29901707,-0.30296725,-0.30915272,-0.30605996,-0.275653,-0.19579268,-0.06329423,0.10463297,0.2807362,0.44388652,0.56624913,0.60645497,0.5333313,0.326025,0.028140903,-0.27960312,-0.52968735,-0.6736994,-0.71981514,-0.695073,-0.6182748,-0.5186943,-0.41773587,-0.34121323,-0.29956824,-0.2855131,-0.28214473,-0.28046054,-0.2781946,-0.27200907,-0.26469058,-0.25709647,-0.24386811,-0.23008853,-0.2191261,-0.21238935,-0.21067458,-0.21180755,-0.21238935,-0.20871484,-0.19971216,-0.18479955,-0.1704688,-0.1580978,-0.14851338,-0.13755095,-0.12631291,-0.115044236,-0.1009891,-0.08693385,-0.07342994,-0.055975795,-0.039379,-0.026456833,-0.013779581,-0.0008574128,0.0118198395,0.022506595,0.027834773,0.024190784,0.01546371,0.0075941086,-0.0011329651,-0.012095451,-0.025323868,-0.04755491,-0.07483852,-0.10181588,-0.130508,-0.15864897,-0.18256426,-0.20366234,-0.22025907,-0.23149711,-0.2441743,-0.25737208,-0.26836514,-0.27736783,-0.28410447,-0.28973883,-0.29338276,-0.29647547,-0.2959243,-0.29365838,-0.29114735,-0.29056555,-0.29338276,-0.29733288,-0.30125242,-0.30575377,-0.30633557,-0.3052026,-0.30296725,-0.302661,-0.30296725,-0.3035184,-0.30492693,-0.302661,-0.29929262,-0.29338276,-0.28578866,-0.28015435,-0.27678597,-0.27651042,-0.27847016,-0.28015435,-0.27932757,-0.27847016,-0.27537745,-0.27396888,-0.27314204,-0.27314204,-0.27905202,-0.28156292,-0.2818691,-0.27960312,-0.27537745,-0.27145785,-0.2711823,-0.2722847,-0.27537745,-0.275653,-0.274275,-0.2703249,-0.26695657,-0.26527238,-0.2689163,-0.27341765,-0.275653,-0.27455068,-0.27004933,-0.2649662,-0.26187342,-0.26245522,-0.2663747,-0.26946753,-0.27145785,-0.2703249,-0.27004933,-0.26946753,-0.2689163,-0.2703249,-0.26919192,-0.26609915,-0.26104665,-0.25541234,-0.25458556,-0.25654536,-0.2582295,-0.26046485,-0.26187342,-0.2635576,-0.26469058,-0.26104665,-0.25231957,-0.23768258,-0.22727138,-0.22280061,-0.22335184,-0.22840434,-0.23177272,-0.2312215,-0.22616899,-0.21771747,-0.20871484,-0.19971216,-0.19070953,-0.18170685,-0.17102003,-0.16259915,-0.16287476,-0.17187738,-0.18479955,-0.20084512,-0.21321619,-0.22108585,-0.22757757,-0.23768258,-0.24867564,-0.25682092,-0.26245522,-0.26273084,-0.2585051,-0.253177,-0.25287074,-0.25513673,-0.26018924,-0.26469058,-0.26919192,-0.26750773,-0.24585849,-0.19098508,-0.08298373,0.075665236,0.26104665,0.4531647,0.6255933,0.7341765,0.7321861,0.58367276,0.297333,-0.05514896,-0.38255197,-0.6132223,-0.72208107,-0.73390085,-0.6779251,-0.576936,-0.4663931,-0.37018096,-0.30633557,-0.27905202,-0.274275,-0.27482623,-0.27200907,-0.2641394,-0.25541234,-0.24558288,-0.24022412,-0.236274,-0.2292617,-0.22362745,-0.21548218,-0.2073062,-0.1994366,-0.19070953,-0.18002266,-0.17160183,-0.16679424,-0.16400772,-0.15978199,-0.15019757,-0.1330496,-0.11253333,-0.09367061,-0.07820684,-0.063845456,-0.04893285,-0.03346914,-0.017147958,-0.0030927658,0.00786972,0.016872406,0.025874972,0.03542888,0.044431448,0.05119872,0.05288303,0.048381686,0.038521647,0.024190784,0.0050524473,-0.019138277,-0.044737697,-0.07312369,-0.10013169,-0.12631291,-0.15160608,-0.17383718,-0.19548643,-0.2165845,-0.23936677,-0.2590869,-0.2706005,-0.275653,-0.275653,-0.277919,-0.2835533,-0.29114735,-0.29733288,-0.3015586,-0.30183423,-0.3009768,-0.29874152,-0.29675108,-0.29733288,-0.2976085,-0.29733288,-0.29956824,-0.29929262,-0.2959243,-0.292556,-0.28719723,-0.28438014,-0.28692162,-0.28888142,-0.29142296,-0.29029,-0.2860642,-0.28242028,-0.27960312,-0.28156292,-0.28438014,-0.28496188,-0.28496188,-0.28073615,-0.274275,-0.27256024,-0.27087605,-0.2706005,-0.27341765,-0.27537745,-0.27510184,-0.27200907,-0.26977372,-0.26836514,-0.27145785,-0.27764338,-0.2829715,-0.28410447,-0.2812873,-0.27510184,-0.27004933,-0.2711823,-0.28015435,-0.29142296,-0.3004256,-0.30605996,-0.30492693,-0.3035184,-0.29929262,-0.29647547,-0.2956487,-0.2950669,-0.29901707,-0.30210984,-0.3015586,-0.29956824,-0.29901707,-0.29929262,-0.30183423,-0.30633557,-0.3105613,-0.313654,-0.3153382,-0.31475645,-0.31252104,-0.3105613,-0.30716234,-0.3032428,-0.3032428,-0.30575377,-0.3074686,-0.30857086,-0.30661118,-0.29901707,-0.29114735,-0.2855131,-0.27905202,-0.27455068,-0.27256024,-0.27314204,-0.2689163,-0.265548,-0.26046485,-0.25118655,-0.24249011,-0.23263007,-0.21998346,-0.21012342,-0.21039903,-0.21940166,-0.23094589,-0.24135715,-0.24640965,-0.24754262,-0.25146222,-0.263282,-0.28015435,-0.2956487,-0.30575377,-0.30857086,-0.30379397,-0.29365838,-0.28692162,-0.28637046,-0.29169858,-0.29901707,-0.3097039,-0.31898212,-0.3223505,-0.30379397,-0.24558288,-0.13672417,0.024190784,0.21321607,0.4135102,0.6030866,0.7305019,0.74458766,0.60449517,0.31729794,-0.0374192,-0.3696298,-0.6073124,-0.72572494,-0.74991584,-0.7026671,-0.6123649,-0.5065989,-0.41433686,-0.35217565,-0.32516766,-0.31843102,-0.31674683,-0.3105613,-0.30183423,-0.29114735,-0.2798788,-0.27004933,-0.263282,-0.25963807,-0.25709647,-0.2489512,-0.23853993,-0.22727138,-0.22025907,-0.21630895,-0.21379799,-0.20929664,-0.20139635,-0.18734115,-0.17242861,-0.1580978,-0.1426034,-0.12995684,-0.11954558,-0.10380626,-0.083841145,-0.066387,-0.050341487,-0.034877658,-0.020240724,-0.005358696,0.0067367554,0.0118198395,0.0118198395,0.00786972,0.003950119,-0.00055116415,-0.005052507,-0.013779581,-0.028140962,-0.04755491,-0.07453227,-0.10154027,-0.12573105,-0.14542055,-0.1622929,-0.17888969,-0.196895,-0.21716636,-0.23740697,-0.25541234,-0.26778334,-0.27396888,-0.27455068,-0.275653,-0.2781946,-0.28496188,-0.2919742,-0.2956487,-0.29675108,-0.29283154,-0.2900144,-0.28915703,-0.28805465,-0.28915703,-0.28777903,-0.28438014,-0.28242028,-0.2812873,-0.27877635,-0.27932757,-0.27905202,-0.27847016,-0.2798788,-0.27932757,-0.275653,-0.2703249,-0.2663747,-0.2635576,-0.263282,-0.26441497,-0.265548,-0.26527238,-0.2641394,-0.2621796,-0.2590869,-0.25737208,-0.25709647,-0.2585051,-0.25936252,-0.26018924,-0.2590869,-0.25737208,-0.2582295,-0.25963807,-0.2621796,-0.26441497,-0.2658236,-0.2663747,-0.2663747,-0.26977372,-0.2711823,-0.2680589,-0.2621796,-0.25486118,-0.25035983,-0.25035983,-0.25541234,-0.25991362,-0.26132226,-0.26273084,-0.263282,-0.26469058,-0.26300645,-0.25709647,-0.24867564,-0.23853993,-0.23039472,-0.22898614,-0.23149711,-0.23572284,-0.23826438,-0.23403865,-0.22194326,-0.20562208,-0.19239366,-0.18369722,-0.18002266,-0.18283981,-0.18648374,-0.19410849,-0.20507091,-0.21603334,-0.22476041,-0.23094589,-0.2365802,-0.24444991,-0.25345254,-0.2585051,-0.25991362,-0.25682092,-0.25513673,-0.25513673,-0.25737208,-0.26132226,-0.2638638,-0.27004933,-0.27736783,-0.28637046,-0.28915703,-0.2621796,-0.19521081,-0.07342994,0.09030235,0.27173352,0.44498885,0.58535683,0.6497841,0.59803414,0.41237712,0.12150538,-0.196895,-0.46694428,-0.63545334,-0.7035246,-0.6953486,-0.63600457,-0.54992807,-0.4582172,-0.37413114,-0.3153382,-0.28214473,-0.26750773,-0.26723218,-0.26723218,-0.26187342,-0.25372815,-0.24527669,-0.23826438,-0.23544723,-0.23403865,-0.2292617,-0.22362745,-0.2168907,-0.20929664,-0.19802797,-0.18761677,-0.18060446,-0.17524576,-0.16878468,-0.16287476,-0.1488195,-0.1330496,-0.116728425,-0.10181588,-0.087485075,-0.07594079,-0.06329423,-0.04724872,-0.028967798,-0.009860039,0.0047769547,0.0118198395,0.014330745,0.014330745,0.014912486,0.01742351,0.018832088,0.012095451,-0.001408577,-0.01968944,-0.04332918,-0.066111386,-0.08834249,-0.10940993,-0.13360077,-0.15779161,-0.18369722,-0.20843923,-0.2292617,-0.24386811,-0.25513673,-0.2649662,-0.27482623,-0.28242028,-0.2900144,-0.29537314,-0.29675108,-0.2984659,-0.29733288,-0.29537314,-0.2976085,-0.30070126,-0.3015586,-0.3009768,-0.2959243,-0.29142296,-0.28973883,-0.28915703,-0.28973883,-0.29396456,-0.2959243,-0.2956487,-0.2908718,-0.2832777,-0.27736783,-0.27764338,-0.2812873,-0.2812873,-0.27847016,-0.27314204,-0.26723218,-0.26750773,-0.27004933,-0.27369326,-0.26977372,-0.263282,-0.26077104,-0.2585051,-0.26077104,-0.26441497,-0.2658236,-0.26077104,-0.25795388,-0.25737208,-0.25400376,-0.25372815,-0.25513673,-0.25427938,-0.25400376,-0.25345254,-0.253177,-0.250911,-0.2483694,-0.24558288,-0.2404998,-0.23431426,-0.22953731,-0.22558719,-0.21771747,-0.21407354,-0.21012342,-0.20620394,-0.20056957,-0.19269985,-0.18256426,-0.17469454,-0.17579693,-0.1814313,-0.19438404,-0.20703065,-0.21630895,-0.22589338,-0.23544723,-0.24472547,-0.25513673,-0.2621796,-0.2649662,-0.26609915,-0.26527238,-0.25963807,-0.25231957,-0.24304128,-0.23936677,-0.24527669,-0.25963807,-0.27847016,-0.2838289,-0.25654536,-0.18565696,-0.06470287,0.09648776,0.26891625,0.4326179,0.56456506,0.62841046,0.58312166,0.41237712,0.13951075,-0.16710049,-0.43488383,-0.6073124,-0.6784763,-0.6706066,-0.6092721,-0.5184187,-0.4250238,-0.3490829,-0.29705733,-0.27087605,-0.2590869,-0.2525952,-0.24640965,-0.2404998,-0.23318124,-0.22589338,-0.2188505,-0.21266502,-0.20647949,-0.19857919,-0.1918425,-0.18620819,-0.18029827,-0.17579693,-0.16991764,-0.16201735,-0.15469885,-0.14600241,-0.13672417,-0.12772149,-0.11617726,-0.1032244,-0.08834249,-0.071439445,-0.05542451,-0.039379,-0.023057818,-0.006767273,0.009002686,0.02333343,0.034326553,0.040236354,0.04360473,0.04501331,0.04332912,0.038246036,0.02924335,0.01573944,-0.0030927658,-0.023915172,-0.04501331,-0.066111386,-0.089169264,-0.113084495,-0.13923514,-0.16315031,-0.18479955,-0.2042135,-0.2208103,-0.23318124,-0.2435925,-0.25035983,-0.25767833,-0.26750773,-0.27369326,-0.27455068,-0.27314204,-0.27145785,-0.27256024,-0.277919,-0.28214473,-0.28156292,-0.27877635,-0.274275,-0.26919192,-0.26750773,-0.2680589,-0.26836514,-0.26977372,-0.26946753,-0.26668096,-0.26469058,-0.26441497,-0.2641394,-0.26469058,-0.2649662,-0.26527238,-0.26441497,-0.263282,-0.2635576,-0.263282,-0.26018924,-0.25654536,-0.25345254,-0.250911,-0.250911,-0.25427938,-0.25458556,-0.25231957,-0.25035983,-0.24754262,-0.24754262,-0.24726707,-0.24809384,-0.25118655,-0.25400376,-0.25513673,-0.25287074,-0.25118655,-0.2483694,-0.2483694,-0.24754262,-0.24386811,-0.2404998,-0.23517168,-0.2286799,-0.22589338,-0.22280061,-0.22335184,-0.22417855,-0.21967727,-0.21490031,-0.20620394,-0.19916093,-0.19493526,-0.18874973,-0.18115562,-0.17552131,-0.17129558,-0.17102003,-0.17524576,-0.18201303,-0.19043392,-0.19971216,-0.20984781,-0.22053462,-0.23008853,-0.23768258,-0.24304128,-0.24527669,-0.24558288,-0.24867564,-0.25118655,-0.2506354,-0.24809384,-0.24585849,-0.24472547,-0.24781823,-0.2559635,-0.2615978,-0.25427938,-0.21829933,-0.1426034,-0.014055133,0.15246344,0.33080196,0.49732065,0.6196834,0.65851116,0.58002865,0.3744067,0.07594085,-0.23458982,-0.48749125,-0.63937294,-0.69142914,-0.6686469,-0.59662557,-0.49958664,-0.40309888,-0.32853603,-0.28692162,-0.26864076,-0.26273084,-0.25991362,-0.25486118,-0.24558288,-0.23599845,-0.22616899,-0.21829933,-0.21462476,-0.21294057,-0.2067551,-0.1994366,-0.18648374,-0.17102003,-0.1617418,-0.15610743,-0.15469885,-0.15610743,-0.15500504,-0.14741099,-0.13418257,-0.1187188,-0.10013169,-0.08185071,-0.064151585,-0.045564592,-0.028416514,-0.00955379,0.009278297,0.025323868,0.03515327,0.04501331,0.049790263,0.05542457,0.059344172,0.05738437,0.048106074,0.036010623,0.021098137,0.003950119,-0.01604563,-0.039379,-0.062161207,-0.08466792,-0.10689896,-0.12995684,-0.15583181,-0.17919588,-0.19998777,-0.21716636,-0.23235452,-0.24585849,-0.2562697,-0.26132226,-0.26245522,-0.25936252,-0.2582295,-0.26132226,-0.26750773,-0.27200907,-0.27369326,-0.2728665,-0.27087605,-0.274275,-0.27877635,-0.2798788,-0.27678597,-0.26864076,-0.2590869,-0.25486118,-0.25486118,-0.25767833,-0.26104665,-0.26046485,-0.25737208,-0.25458556,-0.25287074,-0.24950242,-0.24558288,-0.24331695,-0.24135715,-0.24190831,-0.24190831,-0.24163276,-0.2404998,-0.23740697,-0.23544723,-0.2365802,-0.23853993,-0.24077535,-0.24249011,-0.2435925,-0.2404998,-0.23826438,-0.23740697,-0.23599845,-0.23713142,-0.24022412,-0.24500108,-0.24754262,-0.2461341,-0.24276572,-0.23685586,-0.23348749,-0.23431426,-0.23798883,-0.24218392,-0.24276572,-0.2388156,-0.23348749,-0.23039472,-0.2312215,-0.23572284,-0.24022412,-0.24163276,-0.23967296,-0.236274,-0.23458982,-0.23235452,-0.23376304,-0.23713142,-0.23967296,-0.24022412,-0.2388156,-0.23826438,-0.23572284,-0.23235452,-0.23207885,-0.23039472,-0.23067033,-0.23039472,-0.22898614,-0.22139204,-0.21379799,-0.21098083,-0.21238935,-0.2168907,-0.21998346,-0.21967727,-0.21829933,-0.21771747,-0.21940166,-0.22194326,-0.22194326,-0.21829933,-0.21407354,-0.21180755,-0.21067458,-0.20929664,-0.20788807,-0.20507091,-0.2047953,-0.2095722,-0.21238935,-0.21294057,-0.20647949,-0.19579268,-0.18648374,-0.1797471,-0.17665428,-0.17411274,-0.17328602,-0.17160183,-0.1704688,-0.16792727,-0.16146612,-0.1507793,-0.13755095,-0.12658852,-0.12181157,-0.1229139,-0.12968123,-0.13699973,-0.14373642,-0.14823776,-0.15273911,-0.15978199,-0.16906023,-0.17833847,-0.18847418,-0.19493526,-0.19998777,-0.2047953,-0.20562208,-0.20703065,-0.20647949,-0.20929664,-0.21294057,-0.21630895,-0.22194326,-0.22558719,-0.2168907,-0.17806292,-0.09676331,0.037970424,0.20785737,0.38791072,0.56456506,0.7099856,0.77297366,0.71421134,0.5099672,0.196895,-0.1426034,-0.42361516,-0.5918486,-0.65541846,-0.6362802,-0.5648406,-0.47031265,-0.37581533,-0.3015586,-0.25654536,-0.23826438,-0.23318124,-0.23235452,-0.22898614,-0.22307622,-0.21575773,-0.20871484,-0.20170254,-0.19380224,-0.18424845,-0.17552131,-0.16991764,-0.16651869,-0.16428334,-0.15978199,-0.15218788,-0.14431822,-0.13614231,-0.12940568,-0.11926997,-0.10689896,-0.09480357,-0.083259344,-0.07312369,-0.059925973,-0.046697557,-0.02924335,-0.010962486,0.004225731,0.018556476,0.028692126,0.036286235,0.041614413,0.047524333,0.05511844,0.06075263,0.06329417,0.05821109,0.04669738,0.032060504,0.019138336,0.0016840696,-0.017454147,-0.042471766,-0.071439445,-0.10181588,-0.12772149,-0.14682919,-0.16287476,-0.17469454,-0.18397284,-0.1974768,-0.21180755,-0.2264446,-0.23826438,-0.2461341,-0.24699146,-0.24527669,-0.24444991,-0.24386811,-0.24781823,-0.25204396,-0.25400376,-0.2556879,-0.253177,-0.24977803,-0.24640965,-0.24304128,-0.24135715,-0.2404998,-0.23909116,-0.23798883,-0.23826438,-0.23853993,-0.23936677,-0.23544723,-0.2312215,-0.22672015,-0.2269957,-0.22898614,-0.23067033,-0.23149711,-0.22757757,-0.22362745,-0.22335184,-0.22335184,-0.22362745,-0.2244848,-0.22616899,-0.22981292,-0.23235452,-0.23403865,-0.23235452,-0.2269957,-0.22307622,-0.21998346,-0.22025907,-0.21998346,-0.22108585,-0.22194326,-0.22166765,-0.22335184,-0.22362745,-0.2264446,-0.2269957,-0.22589338,-0.223903,-0.22531158,-0.2264446,-0.22840434,-0.22840434,-0.2269957,-0.2244848,-0.22307622,-0.22166765,-0.21548218,-0.21125638,-0.211532,-0.2165845,-0.22362745,-0.22589338,-0.223903,-0.2188505,-0.21575773,-0.21434915,-0.21238935,-0.2095722,-0.20816368,-0.21039903,-0.211532,-0.21407354,-0.21434915,-0.21294057,-0.21490031,-0.21630895,-0.21548218,-0.21125638,-0.2067551,-0.20170254,-0.19802797,-0.19521081,-0.18874973,-0.18283981,-0.18002266,-0.17610317,-0.17665428,-0.17610317,-0.17497021,-0.17637873,-0.17552131,-0.1701932,-0.15641367,-0.1384083,-0.12432253,-0.12012738,-0.120954156,-0.12686408,-0.13191658,-0.13727528,-0.14401203,-0.15500504,-0.16710049,-0.17301035,-0.17919588,-0.18565696,-0.19297552,-0.20448905,-0.21462476,-0.2168907,-0.21548218,-0.2095722,-0.20620394,-0.2073062,-0.21238935,-0.2188505,-0.22558719,-0.22108585,-0.18706554,-0.11391127,0.00786972,0.16710055,0.33613014,0.4964633,0.62277603,0.67483234,0.6188259,0.43347514,0.14878893,-0.16400772,-0.4284227,-0.58875585,-0.6517439,-0.6368619,-0.57102615,-0.47903973,-0.38313383,-0.29901707,-0.24754262,-0.22672015,-0.22249442,-0.22417855,-0.22280061,-0.21349174,-0.20225376,-0.19297552,-0.18311542,-0.17806292,-0.17356157,-0.16820288,-0.16091496,-0.15387207,-0.14964634,-0.14431822,-0.1378265,-0.12968123,-0.1187188,-0.10999173,-0.1032244,-0.097038925,-0.08662772,-0.07116389,-0.057659924,-0.041920543,-0.028692245,-0.016872346,-0.0022659302,0.0104112625,0.025874972,0.041614413,0.056251407,0.065529585,0.069755316,0.06947982,0.06497848,0.059344172,0.050341487,0.040236354,0.029518962,0.016872406,0.0011329651,-0.018556476,-0.046697557,-0.07594079,-0.10830754,-0.13672417,-0.15892458,-0.17692995,-0.1898827,-0.19971216,-0.21098083,-0.22476041,-0.23713142,-0.24922681,-0.25513673,-0.25345254,-0.25176835,-0.24922681,-0.253177,-0.2585051,-0.26187342,-0.2621796,-0.25936252,-0.2559635,-0.25400376,-0.25372815,-0.25204396,-0.2483694,-0.24500108,-0.24276572,-0.24500108,-0.24867564,-0.25008422,-0.25008422,-0.24558288,-0.23826438,-0.23177272,-0.22812873,-0.2292617,-0.23177272,-0.23685586,-0.23768258,-0.2365802,-0.2365802,-0.23826438,-0.23713142,-0.23348749,-0.2269957,-0.22025907,-0.21799308,-0.2191261,-0.2244848,-0.22953731,-0.23318124,-0.23403865,-0.23039472,-0.2269957,-0.22503597,-0.22558719,-0.22757757,-0.22785318,-0.22672015,-0.22672015,-0.22785318,-0.22981292,-0.23177272,-0.23263007,-0.23290569,-0.23572284,-0.23826438,-0.23853993,-0.23290569,-0.22589338,-0.21462476,-0.20871484,-0.211532,-0.21799308,-0.22476041,-0.2286799,-0.2269957,-0.22417855,-0.22221881,-0.22194326,-0.22108585,-0.21940166,-0.2165845,-0.211532,-0.20562208,-0.19998777,-0.196895,-0.19606823,-0.19269985,-0.18902534,-0.1851058,-0.18060446,-0.17383718,-0.16651869,-0.15442324,-0.1426034,-0.13531554,-0.13390702,-0.1403681,-0.15133053,-0.16033316,-0.1654163,-0.16624308,-0.16624308,-0.1772055,-0.19548643,-0.21490031,-0.22785318,-0.23263007,-0.22616899,-0.21517593,-0.20929664,-0.20816368,-0.21266502,-0.22249442,-0.22785318,-0.22757757,-0.22558719,-0.22139204,-0.20816368,-0.16878468,-0.08693385,0.039379,0.1943841,0.3516245,0.49309492,0.5898582,0.6092721,0.51927614,0.30602932,0.018005371,-0.27396888,-0.5009953,-0.6213676,-0.6503353,-0.6118137,-0.52938116,-0.42728972,-0.33557892,-0.27200907,-0.24304128,-0.23826438,-0.23994857,-0.23685586,-0.22785318,-0.21829933,-0.20984781,-0.20139635,-0.19352669,-0.18789238,-0.18228865,-0.17692995,-0.17129558,-0.16201735,-0.15133053,-0.14122546,-0.13191658,-0.12573105,-0.120954156,-0.114768624,-0.11054289,-0.10212207,-0.092813194,-0.08016664,-0.065529585,-0.048106074,-0.029549599,-0.013503969,0.00055110455,0.014330745,0.024190784,0.03515327,0.044431448,0.053434134,0.059344172,0.063845515,0.065529585,0.06243682,0.05879283,0.051750064,0.03542888,0.015188098,-0.0118198395,-0.039654553,-0.066387,-0.09002668,-0.11222708,-0.13531554,-0.15696478,-0.17524576,-0.19098508,-0.2042135,-0.21630895,-0.23008853,-0.2441743,-0.25231957,-0.25486118,-0.25204396,-0.24726707,-0.24500108,-0.24585849,-0.24809384,-0.24922681,-0.25118655,-0.25287074,-0.2562697,-0.25654536,-0.25400376,-0.2506354,-0.2489512,-0.24809384,-0.24867564,-0.25008422,-0.2489512,-0.24726707,-0.2461341,-0.24331695,-0.24249011,-0.23826438,-0.236274,-0.23376304,-0.23403865,-0.23348749,-0.23431426,-0.236274,-0.23713142,-0.23826438,-0.24249011,-0.24331695,-0.23826438,-0.22953731,-0.21967727,-0.21294057,-0.21517593,-0.22362745,-0.23094589,-0.23207885,-0.22898614,-0.22503597,-0.22335184,-0.22503597,-0.223903,-0.22108585,-0.21799308,-0.21744192,-0.22025907,-0.22335184,-0.22335184,-0.22108585,-0.21548218,-0.20788807,-0.20703065,-0.2047953,-0.2011208,-0.1994366,-0.19775242,-0.19438404,-0.19380224,-0.19297552,-0.18761677,-0.18088007,-0.172153,-0.16428334,-0.15191233,-0.14091927,-0.13222283,-0.12940568,-0.13586676,-0.14909518,-0.1648345,-0.17637873,-0.18339103,-0.18960714,-0.19720119,-0.20562208,-0.21462476,-0.21967727,-0.21940166,-0.2168907,-0.21829933,-0.2208103,-0.22280061,-0.22221881,-0.2191261,-0.21462476,-0.2165845,-0.22194326,-0.21771747,-0.18734115,-0.11449307,0.00786972,0.17297971,0.3538599,0.52714586,0.6607466,0.70857704,0.63404477,0.4270141,0.12517989,-0.19606823,-0.46216738,-0.62672627,-0.68634593,-0.66778946,-0.5938084,-0.49085957,-0.3890437,-0.30716234,-0.2559635,-0.23177272,-0.223903,-0.21940166,-0.2165845,-0.21180755,-0.20562208,-0.20139635,-0.19156688,-0.18115562,-0.172153,-0.1654163,-0.16091496,-0.15724045,-0.15218788,-0.14431822,-0.13531554,-0.12854826,-0.122638345,-0.11253333,-0.09817195,-0.085525334,-0.07312369,-0.059925973,-0.044431508,-0.026456833,-0.005634308,0.014055133,0.030927539,0.04528892,0.061885715,0.07790065,0.089169264,0.097620726,0.10239768,0.10463297,0.10380626,0.10239768,0.09648776,0.085800886,0.06862235,0.048381686,0.024742007,-0.00027555227,-0.025323868,-0.050647616,-0.07707387,-0.10380626,-0.130508,-0.15469885,-0.17438835,-0.19211811,-0.20788807,-0.2208103,-0.23039472,-0.23348749,-0.23517168,-0.23713142,-0.24108154,-0.24640965,-0.24781823,-0.24500108,-0.24135715,-0.24108154,-0.24249011,-0.24585849,-0.24754262,-0.2466852,-0.24276572,-0.23740697,-0.2286799,-0.22166765,-0.22139204,-0.22503597,-0.23177272,-0.23740697,-0.23348749,-0.22531158,-0.21829933,-0.21321619,-0.21490031,-0.22025907,-0.22280061,-0.22139204,-0.2165845,-0.21098083,-0.20788807,-0.2095722,-0.21180755,-0.21180755,-0.20871484,-0.2047953,-0.20197815,-0.20139635,-0.20225376,-0.20225376,-0.20197815,-0.19971216,-0.19325107,-0.18620819,-0.17833847,-0.17328602,-0.17160183,-0.17301035,-0.17242861,-0.16765165,-0.15641367,-0.14459383,-0.13222283,-0.120954156,-0.11391127,-0.11222708,-0.118137,-0.13108987,-0.14768654,-0.15779161,-0.16624308,-0.17610317,-0.19043392,-0.20929664,-0.21998346,-0.22335184,-0.21940166,-0.21321619,-0.21266502,-0.21517593,-0.21857488,-0.22166765,-0.22503597,-0.22840434,-0.23008853,-0.234896,-0.23853993,-0.2286799,-0.1898827,-0.10689896,0.028416514,0.20589769,0.4011085,0.5949414,0.7516,0.81321,0.73500323,0.501822,0.16119051,-0.19297552,-0.47903973,-0.64304745,-0.69789016,-0.67033106,-0.58985823,-0.4880424,-0.38732892,-0.30716234,-0.25795388,-0.23348749,-0.22531158,-0.22417855,-0.22221881,-0.21771747,-0.2095722,-0.19998777,-0.19352669,-0.18706554,-0.17833847,-0.16820288,-0.15610743,-0.14627796,-0.14318526,-0.14177662,-0.14122546,-0.13672417,-0.12827265,-0.12012738,-0.10940993,-0.09593654,-0.079615414,-0.058241725,-0.03769487,-0.020240724,-0.005634308,0.010686755,0.025874972,0.042471766,0.05821109,0.07061279,0.07903361,0.089169264,0.09480357,0.09480357,0.0939461,0.09085345,0.08381045,0.07284808,0.055700064,0.03319347,0.00786972,-0.022231102,-0.052056253,-0.08298373,-0.10803199,-0.12799704,-0.14682919,-0.16765165,-0.19070953,-0.21208322,-0.2264446,-0.23235452,-0.2365802,-0.24077535,-0.24472547,-0.2489512,-0.25513673,-0.2590869,-0.26077104,-0.2585051,-0.25486118,-0.2525952,-0.25008422,-0.25176835,-0.25204396,-0.2489512,-0.2461341,-0.24527669,-0.2441743,-0.2461341,-0.25146222,-0.25345254,-0.2506354,-0.24585849,-0.23740697,-0.23177272,-0.23177272,-0.23290569,-0.23376304,-0.23263007,-0.22981292,-0.22812873,-0.2269957,-0.22589338,-0.22280061,-0.21829933,-0.21238935,-0.2067551,-0.20170254,-0.19579268,-0.19156688,-0.18874973,-0.18593258,-0.18256426,-0.17497021,-0.16342592,-0.15641367,-0.15019757,-0.14627796,-0.14401203,-0.14064366,-0.13951069,-0.14569622,-0.15528065,-0.16651869,-0.17665428,-0.18678999,-0.19916093,-0.211532,-0.223903,-0.23290569,-0.2388156,-0.2404998,-0.2404998,-0.23853993,-0.23458982,-0.23177272,-0.23067033,-0.2286799,-0.22898614,-0.234896,-0.24781823,-0.26132226,-0.2559635,-0.21012342,-0.11449307,0.030651927,0.20899034,0.39969993,0.58171296,0.7173041,0.7504976,0.6461402,0.39774013,0.067795515,-0.2615978,-0.5158771,-0.65878683,-0.6984414,-0.6649723,-0.5825704,-0.4795909,-0.38368493,-0.3099795,-0.2689163,-0.25345254,-0.25008422,-0.24781823,-0.23936677,-0.22476041,-0.21098083,-0.19971216,-0.19352669,-0.1898827,-0.184524,-0.17692995,-0.1696114,-0.16259915,-0.15864897,-0.15301466,-0.145145,-0.13531554,-0.12208718,-0.10940993,-0.09817195,-0.09030223,-0.08185071,-0.0689286,-0.04755491,-0.025048256,-0.0028172135,0.01742351,0.03150928,0.045564413,0.06133449,0.07511401,0.08439231,0.08972037,0.08944476,0.085800886,0.079615355,0.071439505,0.06243682,0.0506171,0.03150928,0.012646556,-0.009860039,-0.03319353,-0.05652696,-0.08270818,-0.11026734,-0.1384083,-0.16511005,-0.18593258,-0.2011208,-0.21294057,-0.22280061,-0.2312215,-0.23853993,-0.24163276,-0.24249011,-0.24135715,-0.24249011,-0.2441743,-0.24276572,-0.24077535,-0.2404998,-0.24108154,-0.24218392,-0.24304128,-0.24276572,-0.24135715,-0.24163276,-0.24077535,-0.23798883,-0.236274,-0.234896,-0.2312215,-0.22812873,-0.22531158,-0.2244848,-0.22589338,-0.2264446,-0.22558719,-0.22307622,-0.22166765,-0.22108585,-0.21940166,-0.21603334,-0.21067458,-0.20562208,-0.20197815,-0.19916093,-0.19661945,-0.19579268,-0.19548643,-0.19269985,-0.18565696,-0.17438835,-0.16259915,-0.15301466,-0.1488195,-0.14741099,-0.14627796,-0.14569622,-0.14937073,-0.15359652,-0.1600576,-0.17102003,-0.18479955,-0.20029396,-0.2165845,-0.22898614,-0.236274,-0.23826438,-0.23826438,-0.2388156,-0.24022412,-0.2404998,-0.23994857,-0.23909116,-0.23798883,-0.24163276,-0.24977803,-0.25936252,-0.26695657,-0.25709647,-0.21180755,-0.12462872,0.010135651,0.17524576,0.34739876,0.5057721,0.6182747,0.63937294,0.5355667,0.30238545,-0.0064611435,-0.3130722,-0.54597795,-0.6686469,-0.69421566,-0.6483756,-0.56089044,-0.45935023,-0.3673638,-0.30070126,-0.2649662,-0.25118655,-0.2466852,-0.24699146,-0.24249011,-0.23318124,-0.22307622,-0.21575773,-0.20929664,-0.20366234,-0.19661945,-0.18397284,-0.17129558,-0.16596746,-0.16400772,-0.16119057,-0.15387207,-0.14318526,-0.1302324,-0.12208718,-0.11617726,-0.10803199,-0.09789628,-0.08298373,-0.06693816,-0.049790204,-0.02982521,-0.008727074,0.008451462,0.024466395,0.03910339,0.04951465,0.056833148,0.057659864,0.05315852,0.051750064,0.0506171,0.050065756,0.044155955,0.025874972,0.0022354126,-0.01968944,-0.04332918,-0.06724435,-0.09394616,-0.122638345,-0.1488195,-0.16991764,-0.18874973,-0.2073062,-0.22221881,-0.23348749,-0.24135715,-0.24754262,-0.25427938,-0.26132226,-0.26469058,-0.2635576,-0.26018924,-0.25372815,-0.250911,-0.25146222,-0.25204396,-0.25709647,-0.26104665,-0.2635576,-0.26469058,-0.2615978,-0.2582295,-0.25372815,-0.25176835,-0.250911,-0.2466852,-0.24249011,-0.24135715,-0.24249011,-0.24585849,-0.24754262,-0.24500108,-0.23853993,-0.23458982,-0.23290569,-0.23067033,-0.22981292,-0.2264446,-0.22249442,-0.21771747,-0.21180755,-0.20647949,-0.2047953,-0.2042135,-0.20589769,-0.20280492,-0.19521081,-0.18424845,-0.17579693,-0.17356157,-0.1701932,-0.16820288,-0.16428334,-0.1622929,-0.16737604,-0.17861408,-0.18706554,-0.19465965,-0.20308053,-0.21434915,-0.2269957,-0.2388156,-0.2441743,-0.24585849,-0.2483694,-0.24977803,-0.25008422,-0.2483694,-0.24218392,-0.23798883,-0.2404998,-0.24500108,-0.2556879,-0.26668096,-0.26441497,-0.23431426,-0.16511005,-0.046146274,0.11222708,0.28719723,0.45089877,0.57748723,0.6292372,0.574119,0.3935144,0.11954558,-0.18311542,-0.44471323,-0.6081698,-0.67115784,-0.6590624,-0.5943596,-0.50491476,-0.41461253,-0.34063143,-0.29169858,-0.26668096,-0.25427938,-0.24699146,-0.23936677,-0.23008853,-0.22558719,-0.22280061,-0.2188505,-0.21379799,-0.20589769,-0.19661945,-0.19070953,-0.1851058,-0.1772055,-0.1704688,-0.16428334,-0.1580978,-0.15500504,-0.14741099,-0.13500935,-0.120954156,-0.103530645,-0.08270818,-0.066111386,-0.05652696,-0.04697311,-0.034877658,-0.019965112,-0.00027555227,0.01742351,0.02982521,0.039379,0.04893279,0.053709745,0.052331805,0.043880343,0.034602046,0.024190784,0.014055133,0.0019596815,-0.018005311,-0.04332918,-0.07061273,-0.0990293,-0.12150538,-0.14150107,-0.16146612,-0.1777873,-0.19606823,-0.21407354,-0.23039472,-0.24218392,-0.25176835,-0.25287074,-0.25458556,-0.25991362,-0.265548,-0.27145785,-0.27482623,-0.27341765,-0.27200907,-0.27200907,-0.2706005,-0.265548,-0.2615978,-0.25991362,-0.26245522,-0.26668096,-0.265548,-0.25991362,-0.2525952,-0.24585849,-0.24163276,-0.23853993,-0.23994857,-0.24331695,-0.24922681,-0.25486118,-0.25458556,-0.24950242,-0.24444991,-0.24190831,-0.24022412,-0.23853993,-0.23572284,-0.23318124,-0.22785318,-0.22139204,-0.2168907,-0.21266502,-0.211532,-0.21238935,-0.20929664,-0.20197815,-0.19548643,-0.18902534,-0.18538141,-0.1797471,-0.16906023,-0.16119057,-0.15610743,-0.1580978,-0.16906023,-0.18170685,-0.19211811,-0.19971216,-0.20620394,-0.21548218,-0.23067033,-0.2466852,-0.25427938,-0.25513673,-0.25146222,-0.24781823,-0.24977803,-0.25513673,-0.25737208,-0.25767833,-0.25682092,-0.25541234,-0.25541234,-0.25963807,-0.26527238,-0.24977803,-0.19830358,-0.09593654,0.05738437,0.23290563,0.408427,0.5583489,0.6506109,0.6402303,0.4995867,0.23572278,-0.08635211,-0.38481796,-0.591573,-0.6860704,-0.69253147,-0.6348716,-0.54006803,-0.43966073,-0.3524512,-0.29396456,-0.26864076,-0.26245522,-0.26018924,-0.25486118,-0.2461341,-0.23599845,-0.22616899,-0.21829933,-0.21180755,-0.2089904,-0.20562208,-0.20280492,-0.19857919,-0.18960714,-0.17861408,-0.16792727,-0.16119057,-0.15610743,-0.1507793,-0.1403681,-0.12517989,-0.10772574,-0.08972043,-0.07652259,-0.066111386,-0.052331865,-0.03769487,-0.01968944,-0.0022659302,0.013228416,0.027834773,0.039930105,0.0506171,0.05879283,0.06075263,0.05738437,0.048106074,0.039654613,0.026732445,0.012922168,-0.0011329651,-0.01968944,-0.043880343,-0.06947976,-0.097038925,-0.12377131,-0.14431822,-0.16315031,-0.18170685,-0.20029396,-0.21744192,-0.23263007,-0.24331695,-0.25035983,-0.2556879,-0.2585051,-0.25963807,-0.26187342,-0.26273084,-0.2641394,-0.26723218,-0.26864076,-0.27145785,-0.2728665,-0.2706005,-0.265548,-0.26018924,-0.25709647,-0.25513673,-0.25345254,-0.25146222,-0.24922681,-0.24754262,-0.24781823,-0.25035983,-0.25204396,-0.25035983,-0.24950242,-0.2483694,-0.24640965,-0.24500108,-0.24500108,-0.2441743,-0.2435925,-0.24276572,-0.24163276,-0.23909116,-0.23740697,-0.236274,-0.2365802,-0.23768258,-0.23853993,-0.23740697,-0.23149711,-0.22307622,-0.21490031,-0.20871484,-0.20589769,-0.20507091,-0.2047953,-0.20507091,-0.2095722,-0.21039903,-0.20562208,-0.19579268,-0.18339103,-0.16878468,-0.15892458,-0.15133053,-0.14823776,-0.15019757,-0.16119057,-0.17356157,-0.18761677,-0.20170254,-0.21238935,-0.22362745,-0.23544723,-0.24386811,-0.24922681,-0.2506354,-0.24809384,-0.24331695,-0.23994857,-0.24135715,-0.24640965,-0.25345254,-0.25991362,-0.26441497,-0.26778334,-0.26668096,-0.25458556,-0.21349174,-0.12827265,0.009002686,0.18874979,0.38536918,0.576936,0.7192638,0.7603271,0.66411495,0.41856265,0.08016658,-0.26300645,-0.53023857,-0.6784763,-0.71702856,-0.6798849,-0.595217,-0.49367672,-0.396056,-0.32348347,-0.28214473,-0.26469058,-0.26018924,-0.2582295,-0.2556879,-0.2483694,-0.24218392,-0.23685586,-0.2286799,-0.22249442,-0.21462476,-0.20620394,-0.19971216,-0.19410849,-0.18847418,-0.18256426,-0.17497021,-0.16651869,-0.16060877,-0.1505037,-0.13755095,-0.123220146,-0.10631722,-0.08972043,-0.07511407,-0.05906856,-0.044737697,-0.028416514,-0.011544287,0.0059099197,0.020822525,0.034602046,0.041920543,0.045840144,0.050341487,0.054015994,0.056833148,0.055975795,0.04528892,0.028140903,0.0073184967,-0.013779581,-0.03545946,-0.059344113,-0.08834249,-0.120954156,-0.14964634,-0.17160183,-0.18874973,-0.20225376,-0.2188505,-0.236274,-0.25118655,-0.2621796,-0.27087605,-0.27482623,-0.2759592,-0.27706158,-0.27706158,-0.27847016,-0.28015435,-0.27932757,-0.27877635,-0.27678597,-0.27678597,-0.275653,-0.27537745,-0.27369326,-0.27173352,-0.27173352,-0.2703249,-0.26668096,-0.2621796,-0.26018924,-0.26046485,-0.2635576,-0.26668096,-0.26750773,-0.2649662,-0.26245522,-0.26018924,-0.2556879,-0.25204396,-0.24726707,-0.24331695,-0.2441743,-0.24640965,-0.250911,-0.24977803,-0.24781823,-0.24726707,-0.24527669,-0.24699146,-0.24809384,-0.2466852,-0.2441743,-0.24500108,-0.24386811,-0.2404998,-0.23994857,-0.23936677,-0.24218392,-0.24640965,-0.24867564,-0.2461341,-0.24163276,-0.23853993,-0.23713142,-0.23740697,-0.23740697,-0.23403865,-0.22981292,-0.2208103,-0.21434915,-0.21379799,-0.21462476,-0.2165845,-0.21548218,-0.20984781,-0.20225376,-0.19380224,-0.18228865,-0.16878468,-0.15610743,-0.14741099,-0.14431822,-0.1499219,-0.15892458,-0.17187738,-0.184524,-0.19521081,-0.20280492,-0.21180755,-0.22025907,-0.2292617,-0.23544723,-0.23713142,-0.23517168,-0.23263007,-0.23149711,-0.23290569,-0.23207885,-0.23544723,-0.23798883,-0.24190831,-0.250911,-0.25541234,-0.23599845,-0.1772055,-0.062161207,0.10772574,0.30406952,0.50408804,0.67902744,0.78369117,0.7746885,0.6219493,0.33557892,-0.009860039,-0.33248615,-0.5597881,-0.6686469,-0.6849374,-0.6315032,-0.5378326,-0.43488383,-0.34599012,-0.2855131,-0.25936252,-0.25008422,-0.24726707,-0.24276572,-0.23235452,-0.22108585,-0.20984781,-0.1994366,-0.19297552,-0.18706554,-0.18565696,-0.1814313,-0.17497021,-0.16624308,-0.15583181,-0.14486939,-0.13755095,-0.1330496,-0.12854826,-0.120954156,-0.10971618,-0.09563035,-0.07989097,-0.065529585,-0.049790204,-0.031784892,-0.012095451,0.005328059,0.018556476,0.029518962,0.0413388,0.051750064,0.06412101,0.06920409,0.068071246,0.06412101,0.058517337,0.056251407,0.051474452,0.041614413,0.026426196,0.0019596815,-0.025875032,-0.052331865,-0.075665236,-0.0984475,-0.11954558,-0.1426034,-0.16596746,-0.18538141,-0.20252931,-0.21799308,-0.23094589,-0.2365802,-0.24022412,-0.24218392,-0.24386811,-0.24781823,-0.2506354,-0.25287074,-0.253177,-0.25513673,-0.2582295,-0.25682092,-0.25231957,-0.2483694,-0.24585849,-0.2461341,-0.24867564,-0.24977803,-0.24950242,-0.25008422,-0.250911,-0.25204396,-0.25035983,-0.24585849,-0.23853993,-0.22953731,-0.22589338,-0.22589338,-0.22757757,-0.22757757,-0.22812873,-0.23008853,-0.23094589,-0.23403865,-0.23572284,-0.23403865,-0.23094589,-0.23177272,-0.23348749,-0.23458982,-0.23544723,-0.23431426,-0.22812873,-0.22280061,-0.2188505,-0.22108585,-0.22531158,-0.23207885,-0.23403865,-0.234896,-0.23263007,-0.22589338,-0.2191261,-0.2168907,-0.2191261,-0.22616899,-0.23177272,-0.23039472,-0.22503597,-0.22025907,-0.21603334,-0.21266502,-0.20984781,-0.20929664,-0.21266502,-0.21630895,-0.21490031,-0.20843923,-0.19916093,-0.1918425,-0.18960714,-0.18789238,-0.18201303,-0.17637873,-0.16651869,-0.15610743,-0.14682919,-0.14232785,-0.14122546,-0.14682919,-0.15414768,-0.1617418,-0.16820288,-0.17469454,-0.18706554,-0.19971216,-0.211532,-0.21771747,-0.2191261,-0.22166765,-0.22558719,-0.22757757,-0.22840434,-0.22503597,-0.22139204,-0.2244848,-0.23235452,-0.23967296,-0.24472547,-0.23740697,-0.20197815,-0.123220146,0.0075941086,0.18029821,0.36708832,0.54597783,0.6801605,0.72321403,0.64583397,0.4252993,0.110818505,-0.21462476,-0.47398728,-0.6194078,-0.66273695,-0.6348716,-0.5625746,-0.47144562,-0.38282758,-0.31252104,-0.27004933,-0.2483694,-0.2365802,-0.22589338,-0.21548218,-0.20929664,-0.20534647,-0.20197815,-0.19802797,-0.19410849,-0.18734115,-0.17833847,-0.16792727,-0.15892458,-0.15442324,-0.15332085,-0.15160608,-0.14486939,-0.13222283,-0.11617726,-0.10549039,-0.09452802,-0.087485075,-0.077931285,-0.06329423,-0.04528886,-0.02559942,-0.00786972,0.0075941086,0.020546913,0.032060504,0.04274738,0.05511844,0.06271243,0.06920409,0.07061279,0.07116389,0.06834686,0.060477138,0.04501331,0.027559161,0.008145213,-0.00955379,-0.029549599,-0.05288297,-0.08071774,-0.109134376,-0.13614231,-0.15641367,-0.17328602,-0.1898827,-0.19998777,-0.21098083,-0.2188505,-0.22194326,-0.22589338,-0.23177272,-0.2388156,-0.24500108,-0.24699146,-0.2435925,-0.2365802,-0.23290569,-0.23149711,-0.23177272,-0.23207885,-0.23149711,-0.23177272,-0.23235452,-0.23235452,-0.23235452,-0.23039472,-0.2292617,-0.23008853,-0.22785318,-0.22589338,-0.22335184,-0.22139204,-0.22108585,-0.22249442,-0.22025907,-0.21575773,-0.21125638,-0.20703065,-0.20871484,-0.21266502,-0.21434915,-0.2168907,-0.21716636,-0.21517593,-0.21238935,-0.20647949,-0.20393795,-0.20562208,-0.2095722,-0.21434915,-0.21799308,-0.21799308,-0.21829933,-0.21771747,-0.2165845,-0.21125638,-0.20816368,-0.2047953,-0.20280492,-0.20562208,-0.20929664,-0.21266502,-0.21603334,-0.21603334,-0.211532,-0.20871484,-0.2073062,-0.20620394,-0.20534647,-0.2067551,-0.20788807,-0.20620394,-0.20084512,-0.19548643,-0.19129133,-0.19297552,-0.19606823,-0.19548643,-0.1898827,-0.1794715,-0.17411274,-0.17383718,-0.17692995,-0.18115562,-0.18115562,-0.17328602,-0.1600576,-0.1488195,-0.14150107,-0.1384083,-0.13473374,-0.12940568,-0.12150538,-0.1206786,-0.12631291,-0.13727528,-0.14682919,-0.15779161,-0.16765165,-0.17888969,-0.19070953,-0.19998777,-0.20280492,-0.2011208,-0.1994366,-0.1974768,-0.19493526,-0.19493526,-0.19380224,-0.19380224,-0.19916093,-0.20758188,-0.21266502,-0.19916093,-0.14600241,-0.046146274,0.10408187,0.27819455,0.4534403,0.6030866,0.6964816,0.6888876,0.5541538,0.2959243,-0.018280923,-0.3099795,-0.5125088,-0.6056282,-0.6140491,-0.5665248,-0.4860826,-0.39323884,-0.30774415,-0.2441743,-0.211532,-0.19857919,-0.1974768,-0.20084512,-0.20139635,-0.19579268,-0.1851058,-0.16933584,-0.15779161,-0.14964634,-0.14796215,-0.1499219,-0.14486939,-0.13500935,-0.12462872,-0.11253333,-0.1032244,-0.09789628,-0.092813194,-0.0860765,-0.07848245,-0.0689286,-0.05710876,-0.044155896,-0.030651927,-0.015188098,-0.00055116415,0.01573944,0.032060504,0.05119872,0.069755316,0.0860765,0.09621215,0.10071349,0.10013175,0.099304914,0.09789634,0.09311938,0.084943414,0.071715,0.052607417,0.031784892,0.0067367554,-0.016596794,-0.039654553,-0.06470287,-0.08861804,-0.11562604,-0.14177662,-0.16287476,-0.17861408,-0.1898827,-0.19634378,-0.20029396,-0.20788807,-0.21462476,-0.2208103,-0.22558719,-0.22672015,-0.22757757,-0.22981292,-0.2312215,-0.23094589,-0.22727138,-0.2188505,-0.21180755,-0.21180755,-0.21630895,-0.2286799,-0.24022412,-0.24444991,-0.23994857,-0.2286799,-0.2188505,-0.211532,-0.20758188,-0.20843923,-0.20929664,-0.21012342,-0.21294057,-0.21125638,-0.20703065,-0.20366234,-0.20139635,-0.20029396,-0.20029396,-0.1974768,-0.19410849,-0.19380224,-0.19493526,-0.19775242,-0.20197815,-0.20308053,-0.20448905,-0.20507091,-0.20393795,-0.20366234,-0.20139635,-0.19888538,-0.19579268,-0.19410849,-0.19325107,-0.19380224,-0.19634378,-0.19916093,-0.20029396,-0.1974768,-0.19465965,-0.19239366,-0.19129133,-0.19606823,-0.20252931,-0.20507091,-0.20280492,-0.19521081,-0.18789238,-0.18734115,-0.1893009,-0.19548643,-0.19857919,-0.19606823,-0.19098508,-0.18734115,-0.18678999,-0.19015831,-0.19269985,-0.19098508,-0.18565696,-0.1797471,-0.1794715,-0.18424845,-0.19239366,-0.19579268,-0.19465965,-0.1918425,-0.18648374,-0.18339103,-0.1814313,-0.18002266,-0.18088007,-0.18256426,-0.1797471,-0.17692995,-0.17438835,-0.17552131,-0.17861408,-0.1814313,-0.18256426,-0.17919588,-0.1777873,-0.18170685,-0.18424845,-0.1851058,-0.18620819,-0.18283981,-0.1794715,-0.17833847,-0.17751169,-0.17861408,-0.1794715,-0.18201303,-0.18170685,-0.17919588,-0.17579693,-0.17129558,-0.16624308,-0.16119057,-0.15837342,-0.15528065,-0.1524635,-0.14964634,-0.1488195,-0.14710474,-0.14710474,-0.14290965,-0.13586676,-0.1229139,-0.11026734,-0.09789628,-0.09002668,-0.09253758,-0.10181588,-0.11421752,-0.12631291,-0.13390702,-0.13727528,-0.14122546,-0.14909518,-0.15920019,-0.16765165,-0.17328602,-0.1797471,-0.1851058,-0.19015831,-0.19493526,-0.19661945,-0.1918425,-0.18620819,-0.18874973,-0.19521081,-0.20197815,-0.18734115,-0.12968123,-0.018280923,0.1403681,0.32434094,0.51195765,0.67734325,0.7788836,0.7690542,0.617448,0.33894718,0.00055110455,-0.3108369,-0.525186,-0.62672627,-0.6326362,-0.56848454,-0.474814,-0.3763665,-0.29705733,-0.24699146,-0.22616899,-0.21998346,-0.21744192,-0.21321619,-0.20647949,-0.19438404,-0.18029827,-0.16906023,-0.15950638,-0.15696478,-0.15920019,-0.15920019,-0.15779161,-0.15273911,-0.1426034,-0.13164103,-0.12150538,-0.11222708,-0.10408181,-0.09648776,-0.085219085,-0.071439445,-0.056833148,-0.041920543,-0.029549599,-0.015739381,-0.001408577,0.012922168,0.027007937,0.040236354,0.055975795,0.07061279,0.08381045,0.0959059,0.098998666,0.09958053,0.097620726,0.093394995,0.09030235,0.085525274,0.07257259,0.05315852,0.030100822,0.004225731,-0.019413888,-0.041920543,-0.066387,-0.095079124,-0.12040299,-0.14318526,-0.16033316,-0.17328602,-0.18902534,-0.20589769,-0.21998346,-0.22898614,-0.23263007,-0.22981292,-0.23177272,-0.23263007,-0.23263007,-0.23376304,-0.23067033,-0.23008853,-0.2292617,-0.2292617,-0.23067033,-0.23207885,-0.234896,-0.2365802,-0.23599845,-0.23094589,-0.22417855,-0.21940166,-0.2168907,-0.21940166,-0.2244848,-0.22981292,-0.23067033,-0.22672015,-0.22194326,-0.21967727,-0.21998346,-0.22362745,-0.22503597,-0.2208103,-0.2168907,-0.21548218,-0.21940166,-0.22307622,-0.22476041,-0.22025907,-0.21407354,-0.21012342,-0.21012342,-0.21548218,-0.22025907,-0.22280061,-0.22503597,-0.22335184,-0.2191261,-0.21517593,-0.21098083,-0.20984781,-0.21379799,-0.2188505,-0.22335184,-0.22476041,-0.223903,-0.22335184,-0.22280061,-0.22194326,-0.22053462,-0.21967727,-0.21967727,-0.2188505,-0.2168907,-0.21379799,-0.20929664,-0.20703065,-0.21067458,-0.21857488,-0.22476041,-0.22981292,-0.2269957,-0.2191261,-0.21266502,-0.21208322,-0.21349174,-0.21575773,-0.21434915,-0.21266502,-0.21208322,-0.21490031,-0.21967727,-0.22194326,-0.22307622,-0.2208103,-0.21603334,-0.21180755,-0.2073062,-0.20252931,-0.19720119,-0.19297552,-0.18734115,-0.1851058,-0.184524,-0.1851058,-0.18397284,-0.17637873,-0.16342592,-0.14796215,-0.13332516,-0.12208718,-0.11982119,-0.12377131,-0.13136542,-0.1420523,-0.1524635,-0.16033316,-0.16792727,-0.17383718,-0.1814313,-0.18847418,-0.19380224,-0.2011208,-0.21098083,-0.22166765,-0.22953731,-0.23008853,-0.22362745,-0.21517593,-0.21379799,-0.2208103,-0.2312215,-0.24218392,-0.24190831,-0.21517593,-0.14710474,-0.027559161,0.1384083,0.33052635,0.5313716,0.706311,0.81011724,0.7901522,0.61404896,0.3068868,-0.046697557,-0.3594942,-0.56597364,-0.6579294,-0.66187954,-0.60394406,-0.5119576,-0.41237718,-0.32715803,-0.27200907,-0.24950242,-0.24304128,-0.24304128,-0.24108154,-0.23572284,-0.2269957,-0.21575773,-0.20393795,-0.19465965,-0.18819857,-0.18538141,-0.17833847,-0.17129558,-0.16259915,-0.15442324,-0.14964634,-0.14431822,-0.13614231,-0.12741524,-0.11758584,-0.10971618,-0.10154027,-0.09030223,-0.078758,-0.065529585,-0.051750004,-0.038246036,-0.020822525,-0.00027555227,0.017147899,0.032060504,0.044155955,0.05511844,0.06470275,0.072021246,0.07652259,0.073705435,0.0658052,0.054291487,0.0374192,0.018556476,-0.0019598007,-0.022231102,-0.044737697,-0.07284814,-0.10435742,-0.13164103,-0.15160608,-0.16765165,-0.18256426,-0.20084512,-0.22362745,-0.2435925,-0.25682092,-0.2638638,-0.26836514,-0.27087605,-0.2711823,-0.26864076,-0.2638638,-0.26046485,-0.25991362,-0.263282,-0.26946753,-0.27314204,-0.27455068,-0.27314204,-0.26778334,-0.2638638,-0.26273084,-0.26132226,-0.25737208,-0.25682092,-0.25963807,-0.26441497,-0.26668096,-0.2649662,-0.2559635,-0.24726707,-0.2441743,-0.24585849,-0.24640965,-0.24304128,-0.23909116,-0.23826438,-0.23967296,-0.24276572,-0.24558288,-0.24585849,-0.2466852,-0.24781823,-0.24781823,-0.24386811,-0.23853993,-0.23376304,-0.23403865,-0.23599845,-0.23936677,-0.24190831,-0.2404998,-0.23853993,-0.23713142,-0.23263007,-0.22981292,-0.2312215,-0.236274,-0.24190831,-0.24386811,-0.24022412,-0.23403865,-0.23067033,-0.23067033,-0.23572284,-0.2388156,-0.23798883,-0.23517168,-0.23149711,-0.22812873,-0.22476041,-0.22139204,-0.21857488,-0.211532,-0.2047953,-0.20029396,-0.1974768,-0.19775242,-0.20056957,-0.19998777,-0.196895,-0.19129133,-0.1814313,-0.16878468,-0.15414768,-0.14091927,-0.13390702,-0.13390702,-0.1420523,-0.15696478,-0.17187738,-0.18648374,-0.19830358,-0.20562208,-0.20871484,-0.21180755,-0.21603334,-0.21744192,-0.2208103,-0.22249442,-0.22166765,-0.22053462,-0.22025907,-0.2188505,-0.22194326,-0.2264446,-0.23458982,-0.2404998,-0.22785318,-0.18369722,-0.09648776,0.0374192,0.20026326,0.37241638,0.53529096,0.6480999,0.666381,0.5625746,0.3282603,0.02137363,-0.28046054,-0.51137584,-0.6368619,-0.66582966,-0.62672627,-0.54597795,-0.4461218,-0.35330862,-0.28438014,-0.24585849,-0.23067033,-0.22757757,-0.2269957,-0.22166765,-0.21434915,-0.20393795,-0.19098508,-0.17888969,-0.17129558,-0.16737604,-0.16624308,-0.16315031,-0.15528065,-0.14627796,-0.13727528,-0.12968123,-0.12377131,-0.11703467,-0.10631722,-0.091710865,-0.07594079,-0.061610103,-0.050341487,-0.037970483,-0.025323868,-0.00955379,0.0067367554,0.021098137,0.03542888,0.0545671,0.07480788,0.092813134,0.10408187,0.1083076,0.10604155,0.101264715,0.09621215,0.08889365,0.08016658,0.068071246,0.048106074,0.023915172,-0.004501343,-0.03150934,-0.054567218,-0.077349484,-0.09958047,-0.12236279,-0.14459383,-0.16428334,-0.18170685,-0.196895,-0.21125638,-0.21857488,-0.22025907,-0.21548218,-0.21180755,-0.21548218,-0.22221881,-0.23067033,-0.23544723,-0.23376304,-0.22840434,-0.22194326,-0.21799308,-0.21603334,-0.21407354,-0.21490031,-0.21266502,-0.20929664,-0.20843923,-0.20647949,-0.20562208,-0.20252931,-0.19634378,-0.19410849,-0.19211811,-0.19352669,-0.19465965,-0.1918425,-0.18902534,-0.18706554,-0.18593258,-0.18620819,-0.18648374,-0.18339103,-0.18115562,-0.18088007,-0.17665428,-0.17328602,-0.16878468,-0.16315031,-0.16342592,-0.16651869,-0.17301035,-0.17751169,-0.17438835,-0.16878468,-0.16400772,-0.16091496,-0.16119057,-0.16091496,-0.15892458,-0.1580978,-0.15724045,-0.157516,-0.15724045,-0.15218788,-0.14655358,-0.14064366,-0.13500935,-0.13249838,-0.12995684,-0.12940568,-0.1229139,-0.11280888,-0.102948844,-0.093394995,-0.085219085,-0.07707387,-0.07425666,-0.08071774,-0.09226197,-0.10631722,-0.11758584,-0.12686408,-0.13868392,-0.15301466,-0.16511005,-0.16400772,-0.15724045,-0.1524635,-0.15133053,-0.15387207,-0.15641367,-0.15610743,-0.15610743,-0.15892458,-0.16287476,-0.16400772,-0.16651869,-0.16342592,-0.13895947,-0.07594079,0.037970424,0.19661939,0.37550902,0.548795,0.69029605,0.7606026,0.72180545,0.5454267,0.25795388,-0.062161207,-0.3426218,-0.5223689,-0.5935328,-0.5856631,-0.5220933,-0.4289739,-0.3293934,-0.24500108,-0.18960714,-0.1600576,-0.1507793,-0.14909518,-0.14569622,-0.14091927,-0.13164103,-0.12122977,-0.113084495,-0.10772574,-0.103530645,-0.09731454,-0.08776069,-0.078758,-0.06947976,-0.062161207,-0.057384312,-0.04923904,-0.038552284,-0.030376315,-0.018556476,-0.008451521,0.0033683777,0.016596794,0.032060504,0.04724872,0.06693816,0.08861804,0.11026728,0.12909949,0.14260352,0.15246344,0.16370142,0.17297971,0.18143117,0.18678999,0.18565702,0.18143117,0.17497015,0.16596746,0.15329027,0.13782644,0.11590159,0.08889365,0.059619665,0.029518962,0.002817154,-0.02137369,-0.042196214,-0.06470287,-0.08439231,-0.10043788,-0.11336011,-0.12181157,-0.12913,-0.13895947,-0.14655358,-0.15273911,-0.15332085,-0.15332085,-0.15469885,-0.15218788,-0.14909518,-0.14823776,-0.14909518,-0.15500504,-0.15864897,-0.15724045,-0.14909518,-0.13981688,-0.13727528,-0.1378265,-0.14122546,-0.14373642,-0.14401203,-0.13868392,-0.13249838,-0.12658852,-0.12150538,-0.12377131,-0.12686408,-0.12772149,-0.12882388,-0.12658852,-0.12377131,-0.122638345,-0.12181157,-0.122638345,-0.124904335,-0.12517989,-0.12432253,-0.11786145,-0.108858764,-0.10745019,-0.110818505,-0.11617726,-0.12122977,-0.12208718,-0.118412614,-0.11421752,-0.11617726,-0.117310226,-0.115044236,-0.11590165,-0.11617726,-0.118137,-0.1206786,-0.12012738,-0.11222708,-0.10267329,-0.09593654,-0.09198642,-0.09226197,-0.09480357,-0.09198642,-0.085525334,-0.075665236,-0.06525403,-0.05514896,-0.047830522,-0.043053627,-0.04274738,-0.04755491,-0.060201526,-0.07229686,-0.0835349,-0.091129005,-0.099304914,-0.10971618,-0.122638345,-0.13136542,-0.13445812,-0.13531554,-0.13531554,-0.13981688,-0.14373642,-0.14150107,-0.13559115,-0.13136542,-0.13641793,-0.14937073,-0.16287476,-0.16651869,-0.14009249,-0.07116389,0.045840144,0.2061733,0.39014614,0.5777627,0.7440059,0.8430351,0.831491,0.6742505,0.38310313,0.037970424,-0.28410447,-0.5065989,-0.60954773,-0.61545765,-0.55106103,-0.45062315,-0.34430593,-0.25682092,-0.20084512,-0.172153,-0.16370153,-0.15950638,-0.15359652,-0.14768654,-0.13981688,-0.13136542,-0.12631291,-0.12181157,-0.118412614,-0.115044236,-0.10830754,-0.10043788,-0.09367061,-0.08720952,-0.083841145,-0.08044219,-0.073705494,-0.06301862,-0.050647616,-0.037970483,-0.024466455,-0.009002686,0.007042885,0.02333343,0.0374192,0.05092323,0.067795515,0.09057784,0.11222708,0.12769079,0.13559115,0.13755083,0.14205217,0.14823782,0.15273917,0.1518817,0.14459383,0.132774,0.11786139,0.1009891,0.081575155,0.05906856,0.03319347,0.0067367554,-0.023057818,-0.051474452,-0.07652259,-0.0990293,-0.12122977,-0.14346081,-0.16342592,-0.18170685,-0.19211811,-0.19720119,-0.20029396,-0.20225376,-0.20448905,-0.20507091,-0.20620394,-0.20788807,-0.20703065,-0.20562208,-0.20562208,-0.20029396,-0.1994366,-0.20308053,-0.2089904,-0.21407354,-0.21349174,-0.20788807,-0.20170254,-0.19606823,-0.19438404,-0.19493526,-0.19493526,-0.19493526,-0.19661945,-0.19857919,-0.19720119,-0.196895,-0.19410849,-0.19015831,-0.19098508,-0.1918425,-0.19043392,-0.19070953,-0.18620819,-0.17751169,-0.17610317,-0.17497021,-0.17692995,-0.18115562,-0.1814313,-0.18060446,-0.18029827,-0.18201303,-0.18424845,-0.184524,-0.18283981,-0.17861408,-0.17270416,-0.16850907,-0.16287476,-0.15779161,-0.15359652,-0.15105492,-0.15019757,-0.15273911,-0.15387207,-0.15019757,-0.14150107,-0.12658852,-0.11195153,-0.101264656,-0.09648776,-0.09676331,-0.10154027,-0.11167592,-0.12208718,-0.13727528,-0.15332085,-0.16511005,-0.17187738,-0.17751169,-0.18397284,-0.19156688,-0.2011208,-0.20620394,-0.20589769,-0.20056957,-0.19661945,-0.196895,-0.19802797,-0.20029396,-0.20225376,-0.2067551,-0.21490031,-0.21630895,-0.19579268,-0.132774,-0.012952864,0.15610743,0.35303307,0.55188787,0.719815,0.8089843,0.77860796,0.60026944,0.29901707,-0.050065875,-0.3620357,-0.56934196,-0.66105276,-0.66215515,-0.59999394,-0.50632334,-0.40591604,-0.31702238,-0.2590869,-0.23348749,-0.22727138,-0.22616899,-0.22025907,-0.2089904,-0.19548643,-0.18620819,-0.18088007,-0.17833847,-0.17610317,-0.17074442,-0.16287476,-0.15105492,-0.14177662,-0.13641793,-0.13473374,-0.13360077,-0.12432253,-0.111124694,-0.09621215,-0.08212638,-0.07229686,-0.06243682,-0.05092317,-0.034326494,-0.015739381,0.0022354126,0.01742351,0.032642245,0.04501331,0.059925795,0.07425666,0.0880363,0.09985614,0.10408187,0.1032244,0.09449732,0.08129954,0.06693816,0.0506171,0.0374192,0.020546913,0.0008267164,-0.02137369,-0.050341487,-0.08212638,-0.11449307,-0.14064366,-0.15920019,-0.17270416,-0.18170685,-0.19211811,-0.20534647,-0.2188505,-0.23431426,-0.24527669,-0.24950242,-0.24809384,-0.24472547,-0.24190831,-0.24249011,-0.2461341,-0.25035983,-0.25146222,-0.25146222,-0.24809384,-0.24386811,-0.23994857,-0.236274,-0.23517168,-0.234896,-0.23599845,-0.23768258,-0.23798883,-0.23713142,-0.23572284,-0.23431426,-0.22840434,-0.2244848,-0.21998346,-0.21857488,-0.2208103,-0.22194326,-0.22194326,-0.21998346,-0.2168907,-0.21771747,-0.2191261,-0.21998346,-0.22194326,-0.22280061,-0.22589338,-0.22785318,-0.2264446,-0.22335184,-0.21379799,-0.20338672,-0.19775242,-0.19493526,-0.19606823,-0.19830358,-0.19802797,-0.19521081,-0.19043392,-0.18706554,-0.18397284,-0.18088007,-0.17579693,-0.16850907,-0.16033316,-0.1505037,-0.14064366,-0.13249838,-0.12658852,-0.12713969,-0.13727528,-0.15301466,-0.17129558,-0.18819857,-0.20084512,-0.20758188,-0.21407354,-0.2168907,-0.21490031,-0.21407354,-0.21349174,-0.2165845,-0.22194326,-0.22616899,-0.22757757,-0.22476041,-0.2244848,-0.23039472,-0.2404998,-0.25008422,-0.24304128,-0.19916093,-0.11026734,0.02982521,0.20338666,0.38791072,0.56229913,0.69225585,0.7353095,0.65483665,0.43488383,0.122638345,-0.20056957,-0.45962584,-0.61294675,-0.6655541,-0.64304745,-0.5715773,-0.47340542,-0.3763665,-0.29901707,-0.25458556,-0.23713142,-0.23067033,-0.22476041,-0.21603334,-0.20703065,-0.19802797,-0.18789238,-0.18170685,-0.17637873,-0.17383718,-0.17383718,-0.16906023,-0.16287476,-0.14909518,-0.13360077,-0.118994415,-0.103530645,-0.09198642,-0.08776069,-0.08411676,-0.0793398,-0.071439445,-0.057935476,-0.040787578,-0.022782207,-0.0039501786,0.01772976,0.03769481,0.052607417,0.06470275,0.07848239,0.087485075,0.09648776,0.10239768,0.105214834,0.10576594,0.10154021,0.09253752,0.0767982,0.054015994,0.034877658,0.015188098,-0.0070429444,-0.02982521,-0.056251347,-0.08044219,-0.10181588,-0.11954558,-0.14122546,-0.1654163,-0.18593258,-0.19888538,-0.20589769,-0.2042135,-0.20448905,-0.20843923,-0.21012342,-0.21208322,-0.21180755,-0.20871484,-0.20647949,-0.2089904,-0.21716636,-0.223903,-0.22476041,-0.22053462,-0.21208322,-0.20589769,-0.2067551,-0.20788807,-0.20225376,-0.19661945,-0.19325107,-0.19211811,-0.19352669,-0.19438404,-0.19015831,-0.18648374,-0.18538141,-0.18678999,-0.18789238,-0.18761677,-0.184524,-0.17833847,-0.17356157,-0.17160183,-0.172153,-0.17579693,-0.18002266,-0.1797471,-0.1772055,-0.16878468,-0.16060877,-0.15724045,-0.15528065,-0.15528065,-0.15442324,-0.14768654,-0.1420523,-0.14009249,-0.14150107,-0.14064366,-0.13500935,-0.12208718,-0.10631722,-0.09311938,-0.08693385,-0.085219085,-0.0860765,-0.08776069,-0.091710865,-0.10013169,-0.11167592,-0.1229139,-0.13332516,-0.14177662,-0.1488195,-0.1580978,-0.16400772,-0.16878468,-0.16991764,-0.16820288,-0.16820288,-0.1696114,-0.17242861,-0.17187738,-0.16906023,-0.16624308,-0.16765165,-0.17469454,-0.184524,-0.17552131,-0.13164103,-0.036010623,0.11140025,0.2908411,0.4795909,0.6514683,0.7667881,0.78056777,0.66383934,0.41461253,0.093394995,-0.2188505,-0.45230734,-0.57776284,-0.607588,-0.5665248,-0.48467404,-0.38454235,-0.29056555,-0.22194326,-0.18479955,-0.17411274,-0.17438835,-0.17270416,-0.16315031,-0.1507793,-0.13699973,-0.12799704,-0.12377131,-0.12012738,-0.118412614,-0.115044236,-0.10803199,-0.09958047,-0.08693385,-0.07538962,-0.067795515,-0.061610103,-0.058241725,-0.050341487,-0.037970483,-0.02363962,-0.009278238,0.0030927658,0.0118198395,0.022782207,0.038521647,0.0565269,0.077625036,0.09422171,0.10971618,0.12181163,0.13418257,0.14600241,0.15301466,0.15301466,0.14937079,0.14232779,0.13164103,0.116728306,0.09676337,0.07594085,0.056833148,0.034020305,0.008451462,-0.022506654,-0.057659924,-0.083841145,-0.102948844,-0.1187188,-0.13586676,-0.15442324,-0.17328602,-0.18761677,-0.19297552,-0.19720119,-0.19661945,-0.19438404,-0.19297552,-0.1898827,-0.18819857,-0.18734115,-0.19098508,-0.19410849,-0.196895,-0.19606823,-0.19043392,-0.18424845,-0.1797471,-0.17919588,-0.18479955,-0.19015831,-0.19297552,-0.19070953,-0.18565696,-0.18088007,-0.17552131,-0.17469454,-0.17497021,-0.17438835,-0.17552131,-0.17328602,-0.1704688,-0.16511005,-0.1617418,-0.15978199,-0.15978199,-0.15978199,-0.16033316,-0.16033316,-0.15978199,-0.15779161,-0.15442324,-0.14909518,-0.14401203,-0.14009249,-0.1420523,-0.14431822,-0.14486939,-0.14177662,-0.13136542,-0.11758584,-0.10463303,-0.09422177,-0.08776069,-0.0860765,-0.089444876,-0.099304914,-0.10999173,-0.12040299,-0.12940568,-0.13895947,-0.15359652,-0.17242861,-0.18874973,-0.2011208,-0.2042135,-0.196895,-0.18874973,-0.18115562,-0.18088007,-0.18819857,-0.19606823,-0.20084512,-0.20084512,-0.1994366,-0.20280492,-0.21462476,-0.21716636,-0.19156688,-0.12181157,0.0016840696,0.17157114,0.36427093,0.5597575,0.7263068,0.8092599,0.76341975,0.5653919,0.24922681,-0.0990293,-0.39859754,-0.58875585,-0.6641456,-0.6497841,-0.5800288,-0.48381662,-0.3856448,-0.30575377,-0.253177,-0.2286799,-0.2244848,-0.22757757,-0.2244848,-0.21321619,-0.20170254,-0.19211811,-0.18734115,-0.18228865,-0.17270416,-0.16033316,-0.15160608,-0.14909518,-0.14710474,-0.1403681,-0.1302324,-0.118137,-0.10662341,-0.09731454,-0.08803624,-0.079615414,-0.0683468,-0.057384312,-0.04332918,-0.027007997,-0.010686815,0.0067367554,0.022506595,0.037143588,0.05092323,0.063845515,0.075665236,0.08889365,0.09676337,0.10071349,0.097038865,0.08944476,0.079615355,0.06638694,0.051474452,0.030376315,0.008145213,-0.014055133,-0.03683746,-0.06274307,-0.09085345,-0.12122977,-0.1524635,-0.17806292,-0.19830358,-0.21266502,-0.22335184,-0.23067033,-0.23798883,-0.24444991,-0.25204396,-0.25991362,-0.2663747,-0.2706005,-0.26864076,-0.2658236,-0.26245522,-0.2635576,-0.26668096,-0.26668096,-0.265548,-0.2638638,-0.26245522,-0.2635576,-0.2658236,-0.2689163,-0.2680589,-0.26441497,-0.26018924,-0.25767833,-0.25682092,-0.26046485,-0.2635576,-0.2621796,-0.25963807,-0.2585051,-0.25878066,-0.25654536,-0.25372815,-0.24950242,-0.24699146,-0.24922681,-0.25176835,-0.2525952,-0.25176835,-0.2489512,-0.24922681,-0.25035983,-0.25035983,-0.24867564,-0.24472547,-0.23909116,-0.23431426,-0.23094589,-0.22785318,-0.2286799,-0.2292617,-0.2286799,-0.22335184,-0.211532,-0.19830358,-0.18479955,-0.17270416,-0.16370153,-0.15978199,-0.1622929,-0.17187738,-0.18761677,-0.2011208,-0.2073062,-0.21379799,-0.22249442,-0.23544723,-0.25287074,-0.2658236,-0.2680589,-0.2649662,-0.26046485,-0.2590869,-0.25963807,-0.2641394,-0.26864076,-0.2711823,-0.2689163,-0.26946753,-0.27314204,-0.28269595,-0.29169858,-0.27706158,-0.21575773,-0.09563035,0.07707393,0.27595913,0.47848845,0.65119267,0.745139,0.7189883,0.5451511,0.24331689,-0.102948844,-0.41351014,-0.62250054,-0.7189883,-0.7268579,-0.66919804,-0.57666045,-0.47285426,-0.38227642,-0.3246165,-0.30070126,-0.29451573,-0.29479134,-0.28578866,-0.27510184,-0.2663747,-0.26187342,-0.26187342,-0.25991362,-0.25400376,-0.24444991,-0.23517168,-0.22840434,-0.22221881,-0.21434915,-0.20507091,-0.19325107,-0.18593258,-0.18115562,-0.17665428,-0.16878468,-0.15469885,-0.1384083,-0.12040299,-0.10212207,-0.08662772,-0.07033718,-0.054567218,-0.0399608,-0.026150584,-0.012952864,-0.0016841292,0.0073184967,0.014330745,0.01742351,0.016872406,0.011544347,0.0019596815,-0.010686815,-0.025048256,-0.040511966,-0.05906856,-0.077931285,-0.09958047,-0.12573105,-0.15442324,-0.18565696,-0.21490031,-0.23768258,-0.25231957,-0.2635576,-0.2759592,-0.28833026,-0.2978841,-0.3032428,-0.30238545,-0.30070126,-0.3032428,-0.30857086,-0.313654,-0.31561387,-0.31420523,-0.30915272,-0.3074686,-0.30774415,-0.30547816,-0.3052026,-0.30379397,-0.3043452,-0.30605996,-0.30465138,-0.30125242,-0.29537314,-0.29029,-0.28915703,-0.2900144,-0.28915703,-0.28692162,-0.28747284,-0.28833026,-0.29142296,-0.29647547,-0.2976085,-0.29338276,-0.28888142,-0.28496188,-0.27960312,-0.27678597,-0.27706158,-0.27482623,-0.27396888,-0.27847016,-0.28410447,-0.28637046,-0.28805465,-0.2829715,-0.2759592,-0.27341765,-0.27314204,-0.274275,-0.2722847,-0.26919192,-0.2680589,-0.26750773,-0.26609915,-0.26273084,-0.25654536,-0.24809384,-0.24558288,-0.24922681,-0.253177,-0.25486118,-0.25204396,-0.23967296,-0.22476041,-0.21067458,-0.19606823,-0.18397284,-0.18002266,-0.18201303,-0.19380224,-0.21208322,-0.22727138,-0.23685586,-0.24444991,-0.25035983,-0.25795388,-0.26723218,-0.27482623,-0.27932757,-0.27932757,-0.27905202,-0.27706158,-0.27510184,-0.274275,-0.275653,-0.2781946,-0.28242028,-0.28833026,-0.29987448,-0.30633557,-0.28805465,-0.22840434,-0.11786145,0.042471766,0.22476041,0.4064672,0.56484056,0.66411495,0.65232563,0.5012708,0.22276998,-0.110818505,-0.4132346,-0.6177236,-0.7083014,-0.7150381,-0.66383934,-0.5808556,-0.48749125,-0.40055734,-0.33952904,-0.30774415,-0.29733288,-0.29338276,-0.28946322,-0.28156292,-0.2703249,-0.25991362,-0.25231957,-0.24809384,-0.24472547,-0.24190831,-0.24108154,-0.23094589,-0.21744192,-0.2047953,-0.19352669,-0.18960714,-0.1893009,-0.184524,-0.17524576,-0.16342592,-0.15191233,-0.14091927,-0.12799704,-0.11222708,-0.09621215,-0.078758,-0.06301862,-0.045564592,-0.02728355,-0.013503969,-0.0022659302,0.0036439896,0.009002686,0.012922168,0.015188098,0.01573944,0.012646556,0.0011329651,-0.011544287,-0.028140962,-0.04724872,-0.07174569,-0.09731454,-0.12462872,-0.15133053,-0.17637873,-0.20029396,-0.223903,-0.2441743,-0.26018924,-0.2728665,-0.2812873,-0.28719723,-0.2956487,-0.30238545,-0.3068868,-0.3097039,-0.30884653,-0.30465138,-0.30406958,-0.30575377,-0.3122455,-0.31420523,-0.31196994,-0.30633557,-0.29901707,-0.29451573,-0.2950669,-0.2984659,-0.3015586,-0.30210984,-0.2976085,-0.28915703,-0.28637046,-0.28805465,-0.29451573,-0.30125242,-0.3009768,-0.29396456,-0.28578866,-0.28046054,-0.27764338,-0.2759592,-0.27482623,-0.275653,-0.27736783,-0.27960312,-0.2832777,-0.2855131,-0.28664607,-0.28664607,-0.2860642,-0.28242028,-0.277919,-0.2759592,-0.27510184,-0.27877635,-0.2846557,-0.28946322,-0.29114735,-0.28915703,-0.2829715,-0.27678597,-0.27396888,-0.274275,-0.275653,-0.2781946,-0.27847016,-0.27706158,-0.27482623,-0.26946753,-0.2635576,-0.25878066,-0.25795388,-0.2590869,-0.2582295,-0.25146222,-0.23936677,-0.22589338,-0.2168907,-0.21012342,-0.2067551,-0.20225376,-0.20197815,-0.20703065,-0.2191261,-0.2312215,-0.24108154,-0.25176835,-0.2621796,-0.2728665,-0.28101176,-0.2818691,-0.277919,-0.27764338,-0.2818691,-0.28664607,-0.28888142,-0.28805465,-0.28496188,-0.28269595,-0.28496188,-0.28915703,-0.2959243,-0.29987448,-0.27960312,-0.21829933,-0.10239762,0.061028242,0.24585855,0.4306581,0.587041,0.6782007,0.65851116,0.49900472,0.211532,-0.12827265,-0.43742532,-0.6464158,-0.7420461,-0.7437303,-0.6793337,-0.5803044,-0.4731298,-0.3820008,-0.32770926,-0.30605996,-0.29987448,-0.29929262,-0.29479134,-0.28496188,-0.274275,-0.26245522,-0.25008422,-0.24218392,-0.23798883,-0.234896,-0.23008853,-0.22249442,-0.21379799,-0.20589769,-0.2011208,-0.19465965,-0.18648374,-0.1772055,-0.16792727,-0.15892458,-0.1499219,-0.13810211,-0.12377131,-0.10803199,-0.09085345,-0.07257253,-0.054291546,-0.037143588,-0.020546973,-0.009278238,0.0036439896,0.014055133,0.021924853,0.032060504,0.03573501,0.036286235,0.028692126,0.013779521,-0.005052507,-0.024742067,-0.04360473,-0.0635699,-0.08720952,-0.11421752,-0.14373642,-0.17160183,-0.19579268,-0.21630895,-0.23263007,-0.24867564,-0.26300645,-0.27678597,-0.28805465,-0.29451573,-0.29874152,-0.29987448,-0.3015586,-0.30605996,-0.3082953,-0.30801976,-0.3082953,-0.3082953,-0.31025505,-0.3099795,-0.3099795,-0.30857086,-0.30774415,-0.3082953,-0.30942827,-0.30801976,-0.3015586,-0.2956487,-0.292556,-0.29056555,-0.29056555,-0.29029,-0.2886058,-0.28888142,-0.28664607,-0.28805465,-0.28888142,-0.28692162,-0.2818691,-0.277919,-0.27623487,-0.27706158,-0.2832777,-0.28664607,-0.28637046,-0.2832777,-0.27877635,-0.27764338,-0.27905202,-0.28214473,-0.2812873,-0.27736783,-0.27369326,-0.27145785,-0.27369326,-0.27877635,-0.28496188,-0.28805465,-0.29114735,-0.28888142,-0.28242028,-0.27369326,-0.2689163,-0.27173352,-0.27877635,-0.28637046,-0.28664607,-0.28242028,-0.2759592,-0.27369326,-0.27455068,-0.27706158,-0.2798788,-0.27510184,-0.26836514,-0.26018924,-0.24950242,-0.24585849,-0.2466852,-0.24726707,-0.24922681,-0.24640965,-0.23936677,-0.2312215,-0.22166765,-0.21180755,-0.20280492,-0.19606823,-0.19239366,-0.19015831,-0.18960714,-0.19325107,-0.20170254,-0.2165845,-0.23008853,-0.24135715,-0.25176835,-0.26273084,-0.2759592,-0.28410447,-0.2852375,-0.27905202,-0.27341765,-0.27173352,-0.274275,-0.27905202,-0.28046054,-0.28156292,-0.2832777,-0.28805465,-0.2984659,-0.29537314,-0.25991362,-0.17497021,-0.026732385,0.16174173,0.37158966,0.5721592,0.7271335,0.7825581,0.696206,0.45371592,0.10604155,-0.25372815,-0.5431914,-0.7099856,-0.7617356,-0.72826654,-0.6435987,-0.53838384,-0.435435,-0.35585022,-0.31025505,-0.292556,-0.28833026,-0.28915703,-0.28496188,-0.27537745,-0.2641394,-0.25372815,-0.24640965,-0.24304128,-0.24276572,-0.24276572,-0.23713142,-0.22221881,-0.20647949,-0.19521081,-0.19098508,-0.19297552,-0.19521081,-0.18678999,-0.17074442,-0.15191233,-0.13473374,-0.12181157,-0.111124694,-0.10043788,-0.085800886,-0.067795515,-0.04697311,-0.02924335,-0.014636934,-0.0025416017,0.0075941086,0.016321182,0.026426196,0.030651927,0.027559161,0.024190784,0.018832088,0.011238098,0.00055110455,-0.017454147,-0.04106325,-0.06724435,-0.093394995,-0.120954156,-0.14937073,-0.17637873,-0.19998777,-0.2188505,-0.23768258,-0.25458556,-0.26946753,-0.2838289,-0.292556,-0.2978841,-0.30547816,-0.31138808,-0.31252104,-0.3097039,-0.30661118,-0.3043452,-0.30492693,-0.3108369,-0.31506264,-0.31561387,-0.31506264,-0.31279665,-0.3099795,-0.30465138,-0.30125242,-0.29705733,-0.29479134,-0.29537314,-0.2956487,-0.29338276,-0.28777903,-0.28015435,-0.27537745,-0.27623487,-0.2832777,-0.28915703,-0.29114735,-0.2852375,-0.27764338,-0.27341765,-0.27314204,-0.27482623,-0.27651042,-0.27510184,-0.27200907,-0.2649662,-0.26018924,-0.2585051,-0.2590869,-0.26469058,-0.2703249,-0.27396888,-0.26977372,-0.26300645,-0.25963807,-0.25737208,-0.26018924,-0.2663747,-0.26977372,-0.2706005,-0.27200907,-0.27145785,-0.26695657,-0.26187342,-0.25737208,-0.25654536,-0.25991362,-0.2649662,-0.26864076,-0.26946753,-0.2689163,-0.26750773,-0.2641394,-0.2615978,-0.26132226,-0.25991362,-0.2585051,-0.25372815,-0.24809384,-0.2435925,-0.24022412,-0.23768258,-0.23403865,-0.2292617,-0.22503597,-0.22221881,-0.2165845,-0.20816368,-0.1974768,-0.18706554,-0.17579693,-0.16679424,-0.1617418,-0.16287476,-0.17356157,-0.19015831,-0.2042135,-0.21098083,-0.21490031,-0.22139204,-0.23094589,-0.24108154,-0.2466852,-0.2435925,-0.23826438,-0.23853993,-0.24500108,-0.250911,-0.25287074,-0.2525952,-0.2506354,-0.25541234,-0.265548,-0.274275,-0.26668096,-0.2269957,-0.14177662,-0.0030927658,0.17607248,0.37382495,0.5696176,0.72740924,0.79296935,0.7206725,0.494779,0.16033328,-0.1898827,-0.4731298,-0.63909733,-0.69984996,-0.683835,-0.61518204,-0.51955175,-0.42251283,-0.3403558,-0.2900144,-0.26778334,-0.26187342,-0.26300645,-0.263282,-0.25936252,-0.24809384,-0.23403865,-0.21603334,-0.20562208,-0.20225376,-0.20280492,-0.2047953,-0.2011208,-0.19410849,-0.18256426,-0.17242861,-0.1654163,-0.15864897,-0.14909518,-0.1403681,-0.12882388,-0.11562604,-0.1032244,-0.08972043,-0.07594079,-0.06133449,-0.043880343,-0.026150584,-0.0070429444,0.009829402,0.022231102,0.027834773,0.03319347,0.039654613,0.048106074,0.05710876,0.05906856,0.05288303,0.036286235,0.016872406,-0.0022659302,-0.02137369,-0.040787578,-0.06243682,-0.08972043,-0.118412614,-0.14600241,-0.16850907,-0.18593258,-0.20029396,-0.21434915,-0.22898614,-0.2404998,-0.25035983,-0.2559635,-0.25936252,-0.26441497,-0.26864076,-0.27341765,-0.27455068,-0.2728665,-0.2703249,-0.26778334,-0.26836514,-0.26778334,-0.2680589,-0.26469058,-0.2615978,-0.26104665,-0.2635576,-0.26695657,-0.26609915,-0.263282,-0.26018924,-0.25709647,-0.25737208,-0.2556879,-0.253177,-0.24867564,-0.24500108,-0.24331695,-0.24249011,-0.2388156,-0.23458982,-0.23067033,-0.22812873,-0.2286799,-0.23039472,-0.23403865,-0.236274,-0.236274,-0.23403865,-0.23235452,-0.23318124,-0.23517168,-0.24022412,-0.2404998,-0.23798883,-0.23517168,-0.23318124,-0.23403865,-0.236274,-0.23544723,-0.23263007,-0.22672015,-0.21967727,-0.21490031,-0.2095722,-0.20366234,-0.20139635,-0.20084512,-0.20139635,-0.20338672,-0.19916093,-0.18789238,-0.17438835,-0.16060877,-0.15387207,-0.15218788,-0.15273911,-0.15610743,-0.16370153,-0.17356157,-0.18678999,-0.19998777,-0.21379799,-0.223903,-0.23039472,-0.23376304,-0.23544723,-0.2365802,-0.23826438,-0.24218392,-0.24135715,-0.2388156,-0.23740697,-0.23740697,-0.23909116,-0.24558288,-0.25427938,-0.26750773,-0.27678597,-0.2638638,-0.21039903,-0.10493928,0.05315852,0.23881555,0.4306581,0.60222924,0.71280277,0.71617115,0.58367276,0.3150319,-0.020822525,-0.34176445,-0.5746701,-0.69198036,-0.7108124,-0.661604,-0.57356775,-0.47426283,-0.3862266,-0.32152373,-0.28833026,-0.27706158,-0.2728665,-0.26609915,-0.25541234,-0.24249011,-0.23290569,-0.22503597,-0.21998346,-0.21208322,-0.20534647,-0.20139635,-0.20056957,-0.2011208,-0.19888538,-0.19297552,-0.1851058,-0.17411274,-0.16455895,-0.15442324,-0.14600241,-0.13390702,-0.118412614,-0.0990293,-0.08016664,-0.062161207,-0.04501331,-0.029549599,-0.015463829,-0.00027555227,0.014330745,0.027834773,0.042196155,0.051750064,0.054291487,0.053434134,0.04951465,0.04360473,0.033744693,0.018832088,0.00027561188,-0.019138277,-0.040787578,-0.06243682,-0.08635211,-0.11336011,-0.1420523,-0.16991764,-0.19465965,-0.21829933,-0.23713142,-0.25372815,-0.26864076,-0.27678597,-0.27960312,-0.28438014,-0.28719723,-0.29056555,-0.29365838,-0.29169858,-0.28915703,-0.28946322,-0.29365838,-0.29619992,-0.29647547,-0.29338276,-0.2919742,-0.29056555,-0.29029,-0.28578866,-0.28410447,-0.2852375,-0.2908718,-0.29619992,-0.29619992,-0.29283154,-0.28915703,-0.28719723,-0.28719723,-0.2832777,-0.27847016,-0.27651042,-0.27623487,-0.27651042,-0.27369326,-0.26750773,-0.26104665,-0.25878066,-0.2615978,-0.26723218,-0.27173352,-0.27341765,-0.27256024,-0.2680589,-0.26245522,-0.25963807,-0.26077104,-0.26469058,-0.26864076,-0.2711823,-0.26864076,-0.26441497,-0.2590869,-0.25709647,-0.25737208,-0.2615978,-0.265548,-0.26750773,-0.265548,-0.26077104,-0.2585051,-0.25991362,-0.25936252,-0.2582295,-0.25513673,-0.253177,-0.25400376,-0.2562697,-0.25767833,-0.25427938,-0.25146222,-0.24867564,-0.24500108,-0.24077535,-0.234896,-0.2269957,-0.22139204,-0.2191261,-0.22053462,-0.22280061,-0.22362745,-0.21771747,-0.2042135,-0.19043392,-0.17610317,-0.16679424,-0.1600576,-0.15641367,-0.157516,-0.16679424,-0.18228865,-0.19888538,-0.21125638,-0.21998346,-0.22531158,-0.23067033,-0.23853993,-0.24249011,-0.24444991,-0.2441743,-0.2435925,-0.24585849,-0.2489512,-0.25176835,-0.25372815,-0.25372815,-0.25458556,-0.25486118,-0.25709647,-0.2483694,-0.21266502,-0.13559115,0.0019596815,0.18620813,0.39210582,0.59662557,0.7532841,0.80956614,0.72321403,0.4756714,0.124322414,-0.24190831,-0.52769697,-0.68242645,-0.7260312,-0.6877546,-0.6008513,-0.49649388,-0.39550483,-0.31757355,-0.27764338,-0.2680589,-0.2680589,-0.2663747,-0.25654536,-0.24527669,-0.23458982,-0.223903,-0.21829933,-0.21266502,-0.20703065,-0.2042135,-0.2011208,-0.19297552,-0.18706554,-0.18002266,-0.17328602,-0.16596746,-0.15641367,-0.14542055,-0.132774,-0.12150538,-0.11336011,-0.10380626,-0.09198642,-0.075665236,-0.057384312,-0.040787578,-0.026150584,-0.008727074,0.009278297,0.025874972,0.038246036,0.04669738,0.052331805,0.059344172,0.06470275,0.06329417,0.055975795,0.04528892,0.032335997,0.016596794,-0.0022659302,-0.02559942,-0.052331865,-0.08185071,-0.11363566,-0.1426034,-0.16878468,-0.19015831,-0.20703065,-0.22108585,-0.234896,-0.2483694,-0.26018924,-0.2706005,-0.277919,-0.28156292,-0.2838289,-0.2852375,-0.28664607,-0.28888142,-0.2886058,-0.28578866,-0.28269595,-0.2812873,-0.28269595,-0.2855131,-0.2860642,-0.2860642,-0.2829715,-0.27960312,-0.27847016,-0.27678597,-0.27369326,-0.27173352,-0.27256024,-0.2728665,-0.27341765,-0.2711823,-0.26723218,-0.2635576,-0.25963807,-0.25654536,-0.25682092,-0.26018924,-0.26695657,-0.27200907,-0.27200907,-0.26609915,-0.25709647,-0.253177,-0.25400376,-0.25737208,-0.26300645,-0.2663747,-0.26469058,-0.26018924,-0.25709647,-0.25345254,-0.25204396,-0.25345254,-0.2525952,-0.24809384,-0.24108154,-0.23572284,-0.22953731,-0.2244848,-0.22417855,-0.22280061,-0.22025907,-0.21744192,-0.21012342,-0.19916093,-0.18620819,-0.17356157,-0.16765165,-0.16679424,-0.17552131,-0.19211811,-0.20984781,-0.22589338,-0.23740697,-0.24444991,-0.24977803,-0.25458556,-0.26132226,-0.26946753,-0.2728665,-0.2703249,-0.26300645,-0.25513673,-0.25204396,-0.25345254,-0.25963807,-0.2689163,-0.28073615,-0.29451573,-0.3052026,-0.29114735,-0.23994857,-0.13895947,0.019413829,0.21686018,0.4306581,0.6309215,0.7693298,0.7923875,0.6649723,0.38987052,0.034326553,-0.31334788,-0.57411885,-0.70971,-0.7361362,-0.6869278,-0.5954926,-0.49254376,-0.40113914,-0.33080196,-0.28915703,-0.2711823,-0.2680589,-0.2711823,-0.2706005,-0.2638638,-0.25146222,-0.24108154,-0.23263007,-0.22840434,-0.22531158,-0.2188505,-0.20929664,-0.19802797,-0.18678999,-0.1777873,-0.17524576,-0.17242861,-0.16710049,-0.15779161,-0.145145,-0.13191658,-0.118412614,-0.10181588,-0.083259344,-0.065529585,-0.052607417,-0.040511966,-0.03150934,-0.016872346,0.003950119,0.023639679,0.03769481,0.050065756,0.05484283,0.0565269,0.0545671,0.048657298,0.03910339,0.02501762,0.0075941086,-0.013228416,-0.037143588,-0.06243682,-0.089169264,-0.11562604,-0.14486939,-0.16933584,-0.18734115,-0.2011208,-0.21238935,-0.22812873,-0.24500108,-0.26018924,-0.27087605,-0.27482623,-0.27623487,-0.27678597,-0.27905202,-0.27932757,-0.27847016,-0.277919,-0.2759592,-0.27651042,-0.28101176,-0.2855131,-0.28833026,-0.28692162,-0.28214473,-0.27651042,-0.27396888,-0.27455068,-0.27510184,-0.27482623,-0.27200907,-0.26723218,-0.265548,-0.2641394,-0.2638638,-0.26132226,-0.25795388,-0.25709647,-0.2559635,-0.25767833,-0.2582295,-0.2559635,-0.25345254,-0.25400376,-0.25458556,-0.25654536,-0.25682092,-0.25654536,-0.25709647,-0.25400376,-0.24977803,-0.24304128,-0.23685586,-0.23599845,-0.23599845,-0.2312215,-0.22558719,-0.22166765,-0.21940166,-0.2208103,-0.22194326,-0.21744192,-0.20816368,-0.19802797,-0.18648374,-0.17438835,-0.16737604,-0.16569191,-0.16710049,-0.17552131,-0.18648374,-0.19720119,-0.20843923,-0.2208103,-0.22898614,-0.23936677,-0.24977803,-0.25737208,-0.2638638,-0.26441497,-0.25991362,-0.25541234,-0.25231957,-0.24754262,-0.24726707,-0.250911,-0.25400376,-0.2641394,-0.27905202,-0.28888142,-0.27960312,-0.23572284,-0.13895947,0.0118198395,0.19661939,0.39382064,0.57439446,0.698717,0.7200906,0.60562825,0.3538599,0.028967738,-0.2908718,-0.5338825,-0.6663809,-0.70153415,-0.6646967,-0.58143735,-0.4801727,-0.38536912,-0.313654,-0.27537745,-0.26245522,-0.25878066,-0.2590869,-0.25513673,-0.2461341,-0.23853993,-0.23318124,-0.22757757,-0.22194326,-0.21180755,-0.19998777,-0.18902534,-0.18029827,-0.17579693,-0.16991764,-0.1648345,-0.15950638,-0.1524635,-0.14401203,-0.13249838,-0.1187188,-0.10435742,-0.09198642,-0.07903361,-0.06274307,-0.04332918,-0.022782207,-0.004501343,0.0073184967,0.018005371,0.030651927,0.041920543,0.051750064,0.05738437,0.057935476,0.057659864,0.055700064,0.04923904,0.03683734,0.016321182,-0.006767273,-0.027834833,-0.051474452,-0.07538962,-0.10181588,-0.12968123,-0.15469885,-0.17356157,-0.18847418,-0.20338672,-0.21857488,-0.23403865,-0.2466852,-0.2562697,-0.2635576,-0.2680589,-0.26919192,-0.2689163,-0.26668096,-0.26245522,-0.26441497,-0.26836514,-0.27200907,-0.2722847,-0.26977372,-0.2649662,-0.26077104,-0.2590869,-0.26077104,-0.26046485,-0.25991362,-0.25654536,-0.25231957,-0.24500108,-0.24276572,-0.24472547,-0.24977803,-0.25654536,-0.25767833,-0.253177,-0.24558288,-0.24108154,-0.23909116,-0.2388156,-0.23572284,-0.23431426,-0.23318124,-0.23517168,-0.23826438,-0.23994857,-0.24077535,-0.24022412,-0.23740697,-0.23235452,-0.22531158,-0.22221881,-0.22053462,-0.22025907,-0.21829933,-0.21208322,-0.20562208,-0.20029396,-0.19888538,-0.20225376,-0.20871484,-0.21098083,-0.20507091,-0.19098508,-0.17497021,-0.16091496,-0.15273911,-0.14937073,-0.14627796,-0.14627796,-0.15332085,-0.1648345,-0.17579693,-0.18789238,-0.20139635,-0.21379799,-0.22531158,-0.23263007,-0.23318124,-0.23067033,-0.23094589,-0.23318124,-0.23826438,-0.24304128,-0.24640965,-0.24867564,-0.24867564,-0.24726707,-0.25035983,-0.2582295,-0.26609915,-0.25541234,-0.20562208,-0.10239762,0.0545671,0.23881555,0.42839217,0.60026944,0.7116698,0.7203969,0.5895827,0.3226261,-0.013779581,-0.3344459,-0.5713017,-0.6945219,-0.7206725,-0.67284197,-0.57607865,-0.4658113,-0.36822122,-0.30465138,-0.27369326,-0.26469058,-0.2621796,-0.25795388,-0.25427938,-0.24699146,-0.2388156,-0.23094589,-0.2244848,-0.2168907,-0.21012342,-0.20393795,-0.19775242,-0.19297552,-0.18648374,-0.1772055,-0.16710049,-0.15724045,-0.14964634,-0.14346081,-0.13249838,-0.11590165,-0.09985614,-0.085800886,-0.07453227,-0.06243682,-0.045840144,-0.025323868,-0.004501343,0.012371063,0.025874972,0.03769481,0.048657298,0.057935476,0.06329417,0.06525397,0.06442714,0.058517337,0.048106074,0.034877658,0.020240664,0.0047769547,-0.014055133,-0.03683746,-0.067795515,-0.10043788,-0.13136542,-0.15668923,-0.17806292,-0.19857919,-0.21799308,-0.23290569,-0.24585849,-0.2525952,-0.25541234,-0.2590869,-0.26441497,-0.2680589,-0.27341765,-0.27764338,-0.277919,-0.27651042,-0.27510184,-0.27341765,-0.27200907,-0.2689163,-0.26836514,-0.2680589,-0.26919192,-0.27396888,-0.27706158,-0.27706158,-0.27200907,-0.26300645,-0.25486118,-0.253177,-0.25682092,-0.26046485,-0.25936252,-0.25709647,-0.25146222,-0.24867564,-0.25008422,-0.25204396,-0.25287074,-0.24922681,-0.2441743,-0.23826438,-0.23544723,-0.23798883,-0.24304128,-0.24640965,-0.2483694,-0.2461341,-0.2441743,-0.24304128,-0.24077535,-0.23685586,-0.2312215,-0.22280061,-0.21575773,-0.21266502,-0.21266502,-0.21462476,-0.21603334,-0.21434915,-0.2042135,-0.19015831,-0.17806292,-0.16679424,-0.16201735,-0.16091496,-0.16201735,-0.1654163,-0.17242861,-0.18170685,-0.19098508,-0.20225376,-0.21321619,-0.22672015,-0.24108154,-0.2489512,-0.25146222,-0.25035983,-0.24867564,-0.24922681,-0.25231957,-0.25486118,-0.2525952,-0.24977803,-0.24867564,-0.25118655,-0.25936252,-0.26946753,-0.27256024,-0.2562697,-0.2042135,-0.1032244,0.048657298,0.23599839,0.4404875,0.634596,0.77073824,0.7898766,0.6590624,0.376091,0.016872406,-0.32602507,-0.57580304,-0.7018404,-0.7226323,-0.6700249,-0.570475,-0.46161622,-0.36540407,-0.29647547,-0.26187342,-0.2506354,-0.24950242,-0.24977803,-0.24500108,-0.23936677,-0.22953731,-0.22249442,-0.21771747,-0.21208322,-0.20252931,-0.19129133,-0.18115562,-0.17356157,-0.16765165,-0.16342592,-0.15779161,-0.15387207,-0.14909518,-0.13951069,-0.12377131,-0.10493928,-0.083841145,-0.071439445,-0.06274307,-0.051474452,-0.032336175,-0.00955379,0.009829402,0.021924853,0.030100822,0.038521647,0.051474452,0.06329417,0.071715,0.073705435,0.07312369,0.068071246,0.05879283,0.046421885,0.028416514,0.00955379,-0.010962486,-0.036286235,-0.062161207,-0.09085345,-0.12040299,-0.14627796,-0.16991764,-0.19156688,-0.2095722,-0.22531158,-0.23936677,-0.24950242,-0.25682092,-0.25963807,-0.26187342,-0.26441497,-0.26778334,-0.2722847,-0.27537745,-0.27736783,-0.27905202,-0.27960312,-0.28101176,-0.28073615,-0.27764338,-0.27314204,-0.26864076,-0.2663747,-0.26527238,-0.2658236,-0.26778334,-0.26836514,-0.2641394,-0.2582295,-0.25372815,-0.25118655,-0.2506354,-0.2525952,-0.24977803,-0.2435925,-0.24108154,-0.24304128,-0.24977803,-0.25737208,-0.26104665,-0.2559635,-0.24500108,-0.234896,-0.22785318,-0.22558719,-0.22812873,-0.22898614,-0.22589338,-0.21967727,-0.21208322,-0.20534647,-0.20197815,-0.19916093,-0.19548643,-0.18706554,-0.1794715,-0.17301035,-0.16596746,-0.1600576,-0.15583181,-0.15218788,-0.15696478,-0.16569191,-0.17806292,-0.19129133,-0.2042135,-0.21771747,-0.23039472,-0.24135715,-0.24809384,-0.25204396,-0.25541234,-0.25795388,-0.25991362,-0.25936252,-0.25458556,-0.250911,-0.25008422,-0.25176835,-0.25541234,-0.26245522,-0.26836514,-0.2728665,-0.2585051,-0.20366234,-0.09198642,0.075665236,0.2790519,0.49085963,0.6801605,0.79352045,0.78396666,0.6239091,0.32685184,-0.024466455,-0.34963405,-0.57834464,-0.6905717,-0.7074441,-0.6517439,-0.554705,-0.4461218,-0.3547172,-0.29647547,-0.2706005,-0.265548,-0.2641394,-0.2582295,-0.24809384,-0.23685586,-0.22476041,-0.21716636,-0.21238935,-0.21180755,-0.20871484,-0.20225376,-0.19269985,-0.18424845,-0.18060446,-0.17579693,-0.1696114,-0.16060877,-0.14964634,-0.14290965,-0.13360077,-0.12150538,-0.10549039,-0.08720952,-0.071439445,-0.057384312,-0.045564592,-0.032060444,-0.015739381,0.001408577,0.019413829,0.034020305,0.04302299,0.048381686,0.051474452,0.051474452,0.05092323,0.04528892,0.03573501,0.022506595,0.005634308,-0.01604563,-0.0413388,-0.0689286,-0.09621215,-0.12404692,-0.14909518,-0.172153,-0.19297552,-0.20843923,-0.22307622,-0.23403865,-0.24558288,-0.25486118,-0.263282,-0.26919192,-0.2711823,-0.27004933,-0.26609915,-0.263282,-0.2621796,-0.2615978,-0.2638638,-0.26441497,-0.263282,-0.26245522,-0.2635576,-0.2635576,-0.26300645,-0.26300645,-0.2582295,-0.25427938,-0.25146222,-0.24867564,-0.2466852,-0.24558288,-0.24500108,-0.24500108,-0.24585849,-0.24190831,-0.23909116,-0.23713142,-0.234896,-0.23263007,-0.2286799,-0.22616899,-0.22335184,-0.22417855,-0.22531158,-0.22108585,-0.21434915,-0.20280492,-0.19521081,-0.19380224,-0.196895,-0.20056957,-0.20029396,-0.19380224,-0.18424845,-0.17242861,-0.16201735,-0.1524635,-0.14486939,-0.14232785,-0.1488195,-0.15978199,-0.17438835,-0.18620819,-0.19548643,-0.20507091,-0.21462476,-0.22785318,-0.23853993,-0.2461341,-0.2489512,-0.2483694,-0.2441743,-0.24304128,-0.24022412,-0.24249011,-0.24640965,-0.250911,-0.2562697,-0.2635576,-0.27256024,-0.2838289,-0.27960312,-0.24135715,-0.15332085,-0.009860039,0.17524576,0.37382495,0.55893075,0.6984414,0.7429036,0.655694,0.42560554,0.09985614,-0.23431426,-0.50267935,-0.65878683,-0.7057599,-0.6759348,-0.5954926,-0.49395227,-0.3988732,-0.32743365,-0.28747284,-0.27173352,-0.2663747,-0.2641394,-0.25936252,-0.25146222,-0.24190831,-0.23263007,-0.223903,-0.21490031,-0.20816368,-0.1994366,-0.19156688,-0.18648374,-0.18283981,-0.18060446,-0.17692995,-0.16850907,-0.15273911,-0.13672417,-0.123220146,-0.110818505,-0.09958047,-0.08972043,-0.0767982,-0.06470287,-0.05288297,-0.037970483,-0.018280923,0.0019596815,0.020240664,0.034602046,0.044155955,0.049790263,0.053709745,0.05315852,0.04951465,0.041920543,0.032642245,0.020240664,0.0061854124,-0.012095451,-0.036010623,-0.061028242,-0.08635211,-0.11026734,-0.13108987,-0.15160608,-0.17160183,-0.19098508,-0.20758188,-0.22139204,-0.23517168,-0.2466852,-0.25654536,-0.26273084,-0.26469058,-0.2635576,-0.26187342,-0.26187342,-0.2638638,-0.2649662,-0.265548,-0.2663747,-0.2649662,-0.26609915,-0.265548,-0.263282,-0.25878066,-0.25427938,-0.25035983,-0.24585849,-0.24500108,-0.2461341,-0.24640965,-0.24809384,-0.24950242,-0.24781823,-0.2461341,-0.24022412,-0.23740697,-0.23376304,-0.23376304,-0.23517168,-0.23544723,-0.23403865,-0.23431426,-0.23599845,-0.23798883,-0.23768258,-0.23458982,-0.22785318,-0.21998346,-0.21349174,-0.2073062,-0.20338672,-0.20225376,-0.20393795,-0.20534647,-0.2011208,-0.19380224,-0.18088007,-0.16792727,-0.1600576,-0.15469885,-0.15301466,-0.15442324,-0.15920019,-0.16878468,-0.17833847,-0.18678999,-0.19465965,-0.20507091,-0.22221881,-0.2404998,-0.25372815,-0.25654536,-0.25204396,-0.24726707,-0.2441743,-0.24527669,-0.24527669,-0.24077535,-0.23909116,-0.2388156,-0.24304128,-0.25176835,-0.26300645,-0.27004933,-0.253177,-0.19775242,-0.08834249,0.07284808,0.2585051,0.44725478,0.6115382,0.7099856,0.69929886,0.54992807,0.2731421,-0.056833148,-0.36090273,-0.57188356,-0.6708822,-0.68184465,-0.6306458,-0.5406498,-0.43966073,-0.3516245,-0.29396456,-0.2689163,-0.2638638,-0.26018924,-0.25427938,-0.24472547,-0.23376304,-0.22476041,-0.21744192,-0.21125638,-0.20589769,-0.20225376,-0.19720119,-0.19015831,-0.18339103,-0.1772055,-0.17074442,-0.16315031,-0.15442324,-0.14401203,-0.13390702,-0.123220146,-0.10940993,-0.09621215,-0.0812996,-0.06666255,-0.054291546,-0.039379,-0.023057818,-0.004776895,0.011238098,0.024466395,0.03515327,0.044737697,0.0545671,0.059619665,0.062161207,0.059619665,0.051750064,0.0413388,0.02728355,0.009278297,-0.014636934,-0.038827837,-0.06329423,-0.0860765,-0.10631722,-0.12600672,-0.1488195,-0.17160183,-0.19239366,-0.21067458,-0.22616899,-0.23768258,-0.24585849,-0.25345254,-0.2562697,-0.25795388,-0.2582295,-0.2562697,-0.25513673,-0.2585051,-0.26469058,-0.2689163,-0.2703249,-0.26695657,-0.26245522,-0.25991362,-0.26077104,-0.263282,-0.26441497,-0.26300645,-0.26132226,-0.25795388,-0.25541234,-0.25400376,-0.253177,-0.25400376,-0.25372815,-0.25400376,-0.25427938,-0.2525952,-0.24809384,-0.2441743,-0.24190831,-0.24022412,-0.23909116,-0.23740697,-0.23458982,-0.23177272,-0.23094589,-0.2292617,-0.22672015,-0.22503597,-0.2208103,-0.21716636,-0.21575773,-0.21517593,-0.21349174,-0.211532,-0.2067551,-0.19916093,-0.19043392,-0.18201303,-0.17301035,-0.16315031,-0.157516,-0.1524635,-0.15160608,-0.1580978,-0.16765165,-0.17833847,-0.19015831,-0.20225376,-0.2165845,-0.23094589,-0.24249011,-0.24754262,-0.24754262,-0.2466852,-0.2461341,-0.24726707,-0.24585849,-0.24108154,-0.23994857,-0.24331695,-0.250911,-0.2582295,-0.265548,-0.27173352,-0.27173352,-0.24809384,-0.18029827,-0.054291546,0.12236273,0.32320786,0.52292013,0.688612,0.7732799,0.7333189,0.5395167,0.22362745,-0.13360077,-0.43910956,-0.6326362,-0.70971,-0.69733906,-0.62335795,-0.52151144,-0.41856265,-0.3344459,-0.2838289,-0.26527238,-0.2635576,-0.26104665,-0.25541234,-0.2441743,-0.22812873,-0.21716636,-0.21321619,-0.21125638,-0.20984781,-0.20507091,-0.1918425,-0.1772055,-0.16737604,-0.16146612,-0.1600576,-0.15892458,-0.15332085,-0.14150107,-0.12713969,-0.11280888,-0.09958047,-0.08861804,-0.07820684,-0.0635699,-0.045840144,-0.025875032,-0.0070429444,0.008727074,0.020546913,0.03150928,0.04360473,0.05542457,0.06525397,0.069755316,0.069755316,0.06301868,0.051750064,0.039654613,0.024466395,0.00955379,-0.009278238,-0.03150934,-0.055975795,-0.08102399,-0.10662341,-0.13191658,-0.15359652,-0.17328602,-0.19129133,-0.20620394,-0.22166765,-0.23994857,-0.25400376,-0.2641394,-0.26864076,-0.2663747,-0.2635576,-0.25795388,-0.25513673,-0.25654536,-0.26104665,-0.26609915,-0.26864076,-0.2635576,-0.25737208,-0.25146222,-0.24977803,-0.25118655,-0.25458556,-0.25709647,-0.25682092,-0.25486118,-0.25345254,-0.24781823,-0.24276572,-0.24108154,-0.2435925,-0.24640965,-0.2489512,-0.2461341,-0.2388156,-0.23376304,-0.23008853,-0.2292617,-0.23067033,-0.23008853,-0.22812873,-0.22757757,-0.2269957,-0.22558719,-0.22589338,-0.22503597,-0.22362745,-0.2208103,-0.21998346,-0.2165845,-0.2095722,-0.20366234,-0.19916093,-0.1994366,-0.20338672,-0.20534647,-0.20197815,-0.19098508,-0.17806292,-0.1648345,-0.15160608,-0.1426034,-0.13699973,-0.132774,-0.13418257,-0.13951069,-0.1488195,-0.16370153,-0.17919588,-0.19579268,-0.21039903,-0.22194326,-0.23235452,-0.23798883,-0.23685586,-0.23599845,-0.23235452,-0.23207885,-0.23348749,-0.23572284,-0.23909116,-0.24218392,-0.24500108,-0.2489512,-0.25427938,-0.25991362,-0.2489512,-0.19916093,-0.097620726,0.059925795,0.2525952,0.4568087,0.6497841,0.7881924,0.81743586,0.6964816,0.41801143,0.052025557,-0.3032428,-0.5653918,-0.69648165,-0.7184065,-0.6655541,-0.5707506,-0.4649846,-0.369048,-0.3009768,-0.26750773,-0.2585051,-0.25709647,-0.25146222,-0.23994857,-0.22672015,-0.21548218,-0.21067458,-0.20816368,-0.2067551,-0.20280492,-0.19352669,-0.18002266,-0.16624308,-0.15610743,-0.15218788,-0.1524635,-0.1499219,-0.14122546,-0.12686408,-0.113084495,-0.10071349,-0.089169264,-0.07707387,-0.060201526,-0.0399608,-0.02137369,-0.0022659302,0.010135651,0.021924853,0.034877658,0.049790263,0.06470275,0.07511401,0.08016658,0.08185077,0.08102393,0.07848239,0.07257259,0.06075263,0.042196155,0.020240664,-0.0033683777,-0.028416514,-0.053740382,-0.07903361,-0.10071349,-0.12377131,-0.14569622,-0.16624308,-0.18819857,-0.2073062,-0.22221881,-0.23149711,-0.23403865,-0.23431426,-0.23348749,-0.234896,-0.23994857,-0.24500108,-0.24640965,-0.2466852,-0.24304128,-0.24108154,-0.24077535,-0.24135715,-0.2435925,-0.2441743,-0.2441743,-0.24276572,-0.23798883,-0.23458982,-0.23207885,-0.2312215,-0.23376304,-0.23431426,-0.23207885,-0.2269957,-0.22335184,-0.22194326,-0.22194326,-0.22166765,-0.2188505,-0.21407354,-0.21321619,-0.21603334,-0.21998346,-0.22249442,-0.2208103,-0.2191261,-0.22108585,-0.22280061,-0.22558719,-0.22531158,-0.22249442,-0.22025907,-0.21630895,-0.21349174,-0.21321619,-0.21434915,-0.21744192,-0.21744192,-0.21407354,-0.2095722,-0.20871484,-0.21125638,-0.21039903,-0.20647949,-0.19998777,-0.19380224,-0.19211811,-0.19269985,-0.19239366,-0.18734115,-0.18115562,-0.17129558,-0.15837342,-0.14627796,-0.13586676,-0.1302324,-0.13164103,-0.13981688,-0.1524635,-0.16679424,-0.1794715,-0.1918425,-0.20393795,-0.21548218,-0.22727138,-0.234896,-0.23685586,-0.23458982,-0.23235452,-0.23177272,-0.23207885,-0.23318124,-0.23207885,-0.2312215,-0.23458982,-0.24331695,-0.25709647,-0.27087605,-0.26469058,-0.21940166,-0.11562604,0.045840144,0.2455523,0.45935035,0.65511227,0.7892947,0.81039286,0.6801605,0.40141475,0.046421885,-0.29338276,-0.5434669,-0.67510796,-0.70716846,-0.6686469,-0.58367276,-0.47821295,-0.37749952,-0.30406958,-0.26609915,-0.25767833,-0.2621796,-0.2649662,-0.25936252,-0.24699146,-0.23177272,-0.22166765,-0.21208322,-0.20393795,-0.19830358,-0.19352669,-0.19070953,-0.18734115,-0.17919588,-0.16792727,-0.15610743,-0.1488195,-0.1426034,-0.13614231,-0.130508,-0.11954558,-0.10604155,-0.091129005,-0.07312369,-0.05484283,-0.036561787,-0.018556476,-0.001408577,0.012922168,0.022506595,0.028967738,0.036561847,0.04724872,0.05738437,0.061610103,0.061028242,0.052025557,0.04274738,0.03319347,0.018556476,-0.0025416017,-0.02728355,-0.05288297,-0.0767982,-0.09676331,-0.11703467,-0.13923514,-0.16060877,-0.1794715,-0.19579268,-0.21012342,-0.22280061,-0.23599845,-0.24500108,-0.253177,-0.2585051,-0.26245522,-0.2658236,-0.26723218,-0.26609915,-0.2649662,-0.2621796,-0.25767833,-0.253177,-0.25035983,-0.24922681,-0.2506354,-0.25287074,-0.25541234,-0.25541234,-0.25231957,-0.24781823,-0.2435925,-0.24190831,-0.2441743,-0.2483694,-0.25035983,-0.24754262,-0.24108154,-0.23403865,-0.22953731,-0.22812873,-0.23094589,-0.23235452,-0.23177272,-0.22953731,-0.22616899,-0.223903,-0.22531158,-0.22812873,-0.23008853,-0.23149711,-0.23008853,-0.22898614,-0.22840434,-0.2292617,-0.22981292,-0.23149711,-0.23431426,-0.23685586,-0.23768258,-0.2365802,-0.23376304,-0.23263007,-0.23149711,-0.23149711,-0.23039472,-0.2264446,-0.2244848,-0.21998346,-0.21490031,-0.21125638,-0.2042135,-0.1994366,-0.19720119,-0.19661945,-0.20029396,-0.20029396,-0.19438404,-0.18283981,-0.16906023,-0.15387207,-0.14600241,-0.14401203,-0.14796215,-0.15724045,-0.1701932,-0.18369722,-0.19269985,-0.1994366,-0.2047953,-0.21012342,-0.21716636,-0.22417855,-0.2312215,-0.234896,-0.23431426,-0.22981292,-0.22531158,-0.2269957,-0.23458982,-0.2435925,-0.24809384,-0.24640965,-0.24527669,-0.24950242,-0.2404998,-0.19521081,-0.093394995,0.07030654,0.2675078,0.47144568,0.652877,0.76455283,0.76146007,0.61404896,0.33221054,-0.006185472,-0.32039076,-0.5462841,-0.6613283,-0.6855192,-0.64078146,-0.5518878,-0.4486634,-0.3547172,-0.29169858,-0.2585051,-0.24527669,-0.24249011,-0.23936677,-0.2365802,-0.23177272,-0.2244848,-0.21379799,-0.20338672,-0.19493526,-0.19015831,-0.18874973,-0.18283981,-0.17328602,-0.16342592,-0.15332085,-0.14569622,-0.14290965,-0.13810211,-0.15696478,-0.21998346,-0.25458556,-0.263282,-0.21548218,-0.12600672,-0.04755491,-0.010135651,-0.00027555227,0.003950119,0.016321182,0.032642245,0.05119872,0.06442714,0.07257259,0.07594085,0.07621634,0.07425666,0.068071246,0.06243682,0.053434134,0.0413388,0.024742007,0.0022354126,-0.026732385,-0.05542451,-0.07903361,-0.09958047,-0.11954558,-0.13895947,-0.16315031,-0.18678999,-0.2047953,-0.21575773,-0.2208103,-0.22307622,-0.22503597,-0.2292617,-0.23431426,-0.2365802,-0.23826438,-0.23909116,-0.24135715,-0.24276572,-0.24500108,-0.2441743,-0.24276572,-0.24077535,-0.23967296,-0.23909116,-0.23967296,-0.2404998,-0.24022412,-0.23909116,-0.23740697,-0.23572284,-0.23431426,-0.23235452,-0.22757757,-0.22589338,-0.22335184,-0.21998346,-0.21799308,-0.21603334,-0.21771747,-0.223903,-0.23008853,-0.23348749,-0.2312215,-0.22616899,-0.22194326,-0.22053462,-0.21799308,-0.21603334,-0.21462476,-0.21321619,-0.21462476,-0.2165845,-0.2191261,-0.22108585,-0.22249442,-0.22249442,-0.22249442,-0.22335184,-0.2244848,-0.22503597,-0.22503597,-0.22280061,-0.22249442,-0.22558719,-0.23067033,-0.23599845,-0.23713142,-0.2365802,-0.23290569,-0.22672015,-0.22280061,-0.21716636,-0.21067458,-0.2095722,-0.2089904,-0.20620394,-0.20507091,-0.20338672,-0.20252931,-0.20252931,-0.20393795,-0.19971216,-0.19438404,-0.19098508,-0.1898827,-0.1898827,-0.19156688,-0.19239366,-0.19043392,-0.18847418,-0.18593258,-0.18256426,-0.18201303,-0.18339103,-0.18256426,-0.17833847,-0.17497021,-0.17497021,-0.18002266,-0.18565696,-0.18847418,-0.18648374,-0.18060446,-0.17383718,-0.1696114,-0.16315031,-0.15724045,-0.1524635,-0.14768654,-0.14459383,-0.14290965,-0.13951069,-0.13332516,-0.124904335,-0.11645281,-0.10803199,-0.10013169,-0.091129005,-0.083841145,-0.08185071,-0.08889365,-0.10267329,-0.11926997,-0.1308142,-0.13810211,-0.14401203,-0.14600241,-0.15359652,-0.16119057,-0.16710049,-0.17129558,-0.172153,-0.1704688,-0.1696114,-0.16991764,-0.17160183,-0.17356157,-0.17861408,-0.184524,-0.18678999,-0.17579693,-0.13222283,-0.04697311,0.089169264,0.26132214,0.4534403,0.64751816,0.80083907,0.8599076,0.77860796,0.5426096,0.20562208,-0.14459383,-0.42251283,-0.5822642,-0.6343204,-0.60281104,-0.5164589,-0.41546988,-0.3223505,-0.25682092,-0.22221881,-0.2089904,-0.20393795,-0.19971216,-0.19098508,-0.18115562,-0.17469454,-0.16765165,-0.16428334,-0.15724045,-0.14401203,-0.13222283,-0.12658852,-0.12658852,-0.12600672,-0.12236279,-0.111124694,-0.09621215,-0.08466792,-0.075665236,-0.06693816,-0.05906856,-0.04893285,-0.038552284,-0.027007997,-0.013779581,0.0019596815,0.02137363,0.040511966,0.055700064,0.07061279,0.08240199,0.095354795,0.10940993,0.118688226,0.124322414,0.12404692,0.12040293,0.114768624,0.10772574,0.09958053,0.08999598,0.0782069,0.05906856,0.034326553,0.002541542,-0.028416514,-0.054015994,-0.072021306,-0.08803624,-0.10212207,-0.11982119,-0.14122546,-0.1622929,-0.18029827,-0.19211811,-0.19857919,-0.20029396,-0.20139635,-0.20507091,-0.20788807,-0.21012342,-0.2095722,-0.20871484,-0.20871484,-0.20929664,-0.20984781,-0.20647949,-0.19888538,-0.19239366,-0.18593258,-0.18565696,-0.18847418,-0.1893009,-0.18874973,-0.18620819,-0.18339103,-0.18170685,-0.18339103,-0.18397284,-0.18311542,-0.18256426,-0.17861408,-0.17637873,-0.1772055,-0.1794715,-0.18397284,-0.18761677,-0.18789238,-0.18565696,-0.18256426,-0.17579693,-0.17187738,-0.1704688,-0.1704688,-0.17160183,-0.17356157,-0.17524576,-0.17524576,-0.17411274,-0.17356157,-0.17160183,-0.172153,-0.17383718,-0.17637873,-0.17806292,-0.17751169,-0.17833847,-0.1777873,-0.17579693,-0.17356157,-0.16792727,-0.16878468,-0.17074442,-0.17497021,-0.17833847,-0.1772055,-0.17411274,-0.17160183,-0.16878468,-0.16878468,-0.1696114,-0.17129558,-0.17469454,-0.17692995,-0.17411274,-0.1701932,-0.16765165,-0.16737604,-0.1696114,-0.17074442,-0.1704688,-0.16342592,-0.15528065,-0.14682919,-0.13981688,-0.13586676,-0.13614231,-0.13810211,-0.13586676,-0.1330496,-0.12772149,-0.11786145,-0.10858315,-0.095354795,-0.083841145,-0.07511407,-0.07312369,-0.08185071,-0.09480357,-0.10858315,-0.11926997,-0.12631291,-0.1308142,-0.13810211,-0.14964634,-0.16259915,-0.17242861,-0.17919588,-0.18002266,-0.17637873,-0.17356157,-0.17187738,-0.17328602,-0.1797471,-0.18201303,-0.18283981,-0.18706554,-0.19493526,-0.19998777,-0.18339103,-0.12404692,-0.009278238,0.15809786,0.35272682,0.55752206,0.7434547,0.85709023,0.8469548,0.68297756,0.383685,0.028967738,-0.29142296,-0.5127845,-0.6185504,-0.63009465,-0.57497627,-0.48409224,-0.38536912,-0.2976085,-0.23994857,-0.21208322,-0.20170254,-0.20170254,-0.20029396,-0.19325107,-0.18228865,-0.1704688,-0.16259915,-0.15837342,-0.15610743,-0.15387207,-0.1488195,-0.14009249,-0.12772149,-0.11590165,-0.10631722,-0.10212207,-0.09958047,-0.09817195,-0.09253758,-0.08212638,-0.068071246,-0.05315858,-0.038552284,-0.02363962,-0.008727074,0.00955379,0.024742007,0.038521647,0.05119872,0.062161207,0.07511401,0.08861804,0.097038865,0.10349989,0.105490446,0.104908586,0.10071349,0.08861804,0.07284808,0.057659864,0.040787578,0.024190784,0.00786972,-0.013228416,-0.038552284,-0.06525403,-0.091710865,-0.11562604,-0.13727528,-0.15555626,-0.17160183,-0.18538141,-0.19493526,-0.20084512,-0.2067551,-0.21208322,-0.2165845,-0.22108585,-0.22503597,-0.22812873,-0.2312215,-0.23067033,-0.22757757,-0.22531158,-0.22221881,-0.2208103,-0.21967727,-0.21799308,-0.2168907,-0.21857488,-0.2208103,-0.22053462,-0.21829933,-0.211532,-0.20758188,-0.20703065,-0.2095722,-0.21266502,-0.21238935,-0.20816368,-0.2011208,-0.19720119,-0.19720119,-0.1974768,-0.1974768,-0.196895,-0.19720119,-0.19916093,-0.20338672,-0.20703065,-0.2089904,-0.20534647,-0.20056957,-0.19521081,-0.19043392,-0.18960714,-0.19239366,-0.19830358,-0.2011208,-0.20252931,-0.19998777,-0.19830358,-0.19971216,-0.19998777,-0.20029396,-0.19888538,-0.19634378,-0.19465965,-0.19352669,-0.19043392,-0.18369722,-0.18228865,-0.18424845,-0.18228865,-0.18029827,-0.17356157,-0.1654163,-0.16400772,-0.16596746,-0.16991764,-0.16933584,-0.16146612,-0.14851338,-0.13222283,-0.11449307,-0.10408181,-0.10043788,-0.1032244,-0.11421752,-0.12968123,-0.14431822,-0.15892458,-0.16737604,-0.17469454,-0.1814313,-0.18847418,-0.19579268,-0.19888538,-0.19579268,-0.19325107,-0.19297552,-0.19548643,-0.2011208,-0.20534647,-0.2067551,-0.2089904,-0.21744192,-0.22785318,-0.22139204,-0.18002266,-0.089444876,0.055700064,0.23599839,0.42670786,0.60758793,0.7414949,0.773831,0.67115784,0.42615676,0.09731448,-0.23008853,-0.47989714,-0.6191322,-0.66215515,-0.6331874,-0.55697095,-0.45766604,-0.3600453,-0.28410447,-0.2435925,-0.2286799,-0.22558719,-0.22531158,-0.22108585,-0.21208322,-0.20225376,-0.19465965,-0.18734115,-0.18088007,-0.17637873,-0.16991764,-0.16315031,-0.15555626,-0.14909518,-0.14459383,-0.13951069,-0.1308142,-0.11954558,-0.10745019,-0.09648776,-0.09057784,-0.08494353,-0.07624704,-0.062161207,-0.046146274,-0.028692245,-0.011544287,0.005634308,0.023915172,0.04106307,0.05821109,0.06862235,0.077349424,0.085800886,0.091129065,0.09480357,0.09140456,0.08270824,0.06920409,0.05315852,0.034877658,0.010962367,-0.015188098,-0.040787578,-0.065529585,-0.09057784,-0.11590165,-0.14150107,-0.16596746,-0.18734115,-0.20448905,-0.21716636,-0.22616899,-0.22981292,-0.23348749,-0.23798883,-0.24163276,-0.24558288,-0.24726707,-0.24754262,-0.24500108,-0.24218392,-0.24077535,-0.24108154,-0.24585849,-0.25035983,-0.25176835,-0.2506354,-0.2466852,-0.24386811,-0.2441743,-0.24640965,-0.24809384,-0.24527669,-0.23853993,-0.23318124,-0.23290569,-0.23517168,-0.23853993,-0.23826438,-0.23290569,-0.22812873,-0.22476041,-0.22108585,-0.21744192,-0.21490031,-0.2188505,-0.22335184,-0.22785318,-0.23008853,-0.22840434,-0.22616899,-0.22362745,-0.2191261,-0.21548218,-0.2165845,-0.21967727,-0.22417855,-0.22589338,-0.22249442,-0.2165845,-0.21321619,-0.21012342,-0.20816368,-0.2067551,-0.2047953,-0.20225376,-0.19830358,-0.19493526,-0.19269985,-0.19043392,-0.18565696,-0.17806292,-0.16991764,-0.16146612,-0.15500504,-0.14823776,-0.14122546,-0.13445812,-0.13249838,-0.13810211,-0.14937073,-0.16287476,-0.17861408,-0.1918425,-0.20280492,-0.21180755,-0.21967727,-0.22221881,-0.22280061,-0.22194326,-0.2191261,-0.21998346,-0.22417855,-0.22727138,-0.2264446,-0.22194326,-0.21967727,-0.2208103,-0.2292617,-0.23967296,-0.22476041,-0.1701932,-0.06274307,0.09676337,0.28719723,0.4829898,0.659338,0.77297366,0.77073824,0.62305164,0.337263,-0.0073185563,-0.32770926,-0.5527452,-0.6607466,-0.67452615,-0.6205408,-0.52405304,-0.41773587,-0.32853603,-0.26946753,-0.24249011,-0.23039472,-0.22558719,-0.22307622,-0.22053462,-0.21857488,-0.2095722,-0.19661945,-0.18339103,-0.17469454,-0.1696114,-0.1648345,-0.16146612,-0.15359652,-0.14710474,-0.14232785,-0.13614231,-0.1330496,-0.12772149,-0.118412614,-0.10463303,-0.08834249,-0.07342994,-0.063845456,-0.055700183,-0.044155896,-0.028692245,-0.009860039,0.010686755,0.028140903,0.04332912,0.058517337,0.07030654,0.079309106,0.08690333,0.08944476,0.09030235,0.08439231,0.07453227,0.06075263,0.044155955,0.025874972,0.003950119,-0.021649241,-0.04697311,-0.06920421,-0.087485075,-0.10463303,-0.12686408,-0.14964634,-0.17102003,-0.1893009,-0.20197815,-0.21012342,-0.21744192,-0.22108585,-0.22280061,-0.223903,-0.22558719,-0.22812873,-0.22757757,-0.22531158,-0.22249442,-0.22139204,-0.2244848,-0.23094589,-0.23403865,-0.23517168,-0.23318124,-0.22953731,-0.22616899,-0.22362745,-0.22166765,-0.22249442,-0.22589338,-0.2286799,-0.22812873,-0.22362745,-0.21744192,-0.21266502,-0.21039903,-0.211532,-0.21208322,-0.21294057,-0.21238935,-0.20984781,-0.20816368,-0.20534647,-0.20280492,-0.20225376,-0.20393795,-0.20589769,-0.20984781,-0.21462476,-0.21575773,-0.21716636,-0.21349174,-0.20871484,-0.20448905,-0.20534647,-0.20647949,-0.20647949,-0.2047953,-0.20084512,-0.19661945,-0.19325107,-0.18734115,-0.1814313,-0.1777873,-0.17579693,-0.1772055,-0.17497021,-0.17074442,-0.16342592,-0.15218788,-0.14122546,-0.12913,-0.12236279,-0.12040299,-0.12573105,-0.13586676,-0.14823776,-0.1617418,-0.17751169,-0.19239366,-0.20589769,-0.21490031,-0.21744192,-0.21799308,-0.21857488,-0.22139204,-0.2244848,-0.22531158,-0.223903,-0.22108585,-0.2208103,-0.22307622,-0.22812873,-0.23572284,-0.24386811,-0.24249011,-0.21462476,-0.14373642,-0.022782207,0.14569616,0.33671188,0.5319227,0.69929886,0.7904278,0.7597759,0.5783447,0.2734176,-0.07624704,-0.38650215,-0.5921242,-0.68242645,-0.68043613,-0.61377347,-0.5144992,-0.41069293,-0.32743365,-0.27314204,-0.25035983,-0.24386811,-0.24022412,-0.236274,-0.22672015,-0.21490031,-0.20620394,-0.19971216,-0.19410849,-0.19070953,-0.1814313,-0.172153,-0.16596746,-0.15978199,-0.15414768,-0.1499219,-0.14318526,-0.13559115,-0.12854826,-0.116728425,-0.10435742,-0.09057784,-0.07820684,-0.065529585,-0.050341487,-0.034326494,-0.018862724,-0.0033683777,0.010135651,0.023057818,0.03769481,0.054291487,0.0658052,0.07594085,0.08466792,0.0880363,0.08720946,0.08270824,0.07312369,0.059619665,0.043880343,0.026426196,0.0022354126,-0.026732385,-0.054567218,-0.081575155,-0.107174575,-0.12968123,-0.15105492,-0.17187738,-0.19297552,-0.20984781,-0.22249442,-0.23149711,-0.23544723,-0.23544723,-0.23853993,-0.24190831,-0.24386811,-0.24585849,-0.24754262,-0.2461341,-0.24331695,-0.24331695,-0.24558288,-0.25118655,-0.25878066,-0.2615978,-0.25795388,-0.25008422,-0.24304128,-0.23936677,-0.23909116,-0.23826438,-0.236274,-0.234896,-0.23544723,-0.23826438,-0.23994857,-0.23936677,-0.2365802,-0.2312215,-0.2264446,-0.223903,-0.22166765,-0.22362745,-0.22812873,-0.22898614,-0.22898614,-0.22503597,-0.22166765,-0.22166765,-0.22503597,-0.22840434,-0.2269957,-0.22503597,-0.22194326,-0.21857488,-0.21575773,-0.20984781,-0.20225376,-0.19606823,-0.19269985,-0.19352669,-0.19410849,-0.19548643,-0.19720119,-0.19521081,-0.18593258,-0.172153,-0.16091496,-0.1507793,-0.14569622,-0.14569622,-0.14373642,-0.14542055,-0.14909518,-0.15724045,-0.1701932,-0.184524,-0.19916093,-0.21321619,-0.22249442,-0.22362745,-0.22531158,-0.22558719,-0.22727138,-0.234896,-0.24022412,-0.24190831,-0.2388156,-0.23458982,-0.22981292,-0.23207885,-0.23994857,-0.25146222,-0.2590869,-0.24386811,-0.18874973,-0.08102399,0.079309106,0.27200913,0.4739871,0.65851116,0.7814251,0.78761065,0.6444254,0.36117828,0.012371063,-0.31843102,-0.5538782,-0.67033106,-0.6917047,-0.6424656,-0.55106103,-0.4483878,-0.3594942,-0.29647547,-0.2615978,-0.24585849,-0.23740697,-0.23318124,-0.23067033,-0.22672015,-0.21771747,-0.20929664,-0.20197815,-0.19548643,-0.18960714,-0.18115562,-0.16933584,-0.16287476,-0.15920019,-0.15583181,-0.14851338,-0.13810211,-0.12940568,-0.12349576,-0.11954558,-0.11280888,-0.0990293,-0.08044219,-0.06497842,-0.05092317,-0.036010623,-0.020240724,-0.00364393,0.01573944,0.036010623,0.053709745,0.066111445,0.07284808,0.07116389,0.068071246,0.06666255,0.068071246,0.067213774,0.0545671,0.03346908,0.0064610243,-0.023364067,-0.047830522,-0.06862235,-0.089169264,-0.110818505,-0.13390702,-0.15469885,-0.17579693,-0.19465965,-0.20589769,-0.21490031,-0.22166765,-0.22840434,-0.23798883,-0.24699146,-0.24977803,-0.24781823,-0.24304128,-0.23967296,-0.2388156,-0.23685586,-0.23798883,-0.24218392,-0.24472547,-0.2489512,-0.24977803,-0.24640965,-0.24249011,-0.24077535,-0.23967296,-0.24077535,-0.24077535,-0.23936677,-0.23685586,-0.23431426,-0.23290569,-0.22981292,-0.22672015,-0.22221881,-0.22221881,-0.22417855,-0.22727138,-0.22727138,-0.22417855,-0.21857488,-0.21548218,-0.21407354,-0.21548218,-0.21744192,-0.21744192,-0.21266502,-0.2095722,-0.20929664,-0.20871484,-0.21039903,-0.20984781,-0.20589769,-0.19830358,-0.19098508,-0.1851058,-0.1797471,-0.17692995,-0.172153,-0.1648345,-0.15583181,-0.14741099,-0.14486939,-0.14486939,-0.14627796,-0.14937073,-0.15469885,-0.16511005,-0.17919588,-0.19548643,-0.2095722,-0.2191261,-0.22476041,-0.22727138,-0.22953731,-0.2292617,-0.23039472,-0.22953731,-0.22812873,-0.22785318,-0.23149711,-0.23853993,-0.24249011,-0.24386811,-0.24249011,-0.24218392,-0.23768258,-0.20929664,-0.1378265,-0.012095451,0.15864897,0.3504914,0.537557,0.6855191,0.74850726,0.6815691,0.46694434,0.15273917,-0.18201303,-0.4551245,-0.6157639,-0.6725664,-0.649233,-0.5738433,-0.47708,-0.3797348,-0.30465138,-0.2641394,-0.24809384,-0.24386811,-0.23994857,-0.23039472,-0.21967727,-0.2095722,-0.20393795,-0.1994366,-0.19239366,-0.18706554,-0.17751169,-0.16765165,-0.1617418,-0.15583181,-0.15191233,-0.14600241,-0.13727528,-0.12772149,-0.1229139,-0.11758584,-0.11054289,-0.097620726,-0.077625036,-0.057935476,-0.043880343,-0.030651927,-0.016321182,0.0022354126,0.019965053,0.037143588,0.052025557,0.06412101,0.07511401,0.08298373,0.087485075,0.08662772,0.08212638,0.07257259,0.058517337,0.044155955,0.029518962,0.012922168,-0.008451521,-0.034326494,-0.064151585,-0.09057784,-0.11363566,-0.13445812,-0.1524635,-0.17129558,-0.18678999,-0.19888538,-0.20816368,-0.21434915,-0.21967727,-0.22362745,-0.22727138,-0.2286799,-0.22840434,-0.22981292,-0.22727138,-0.2264446,-0.22417855,-0.22335184,-0.22672015,-0.23039472,-0.23177272,-0.22727138,-0.22221881,-0.2188505,-0.2165845,-0.21630895,-0.21744192,-0.21517593,-0.21208322,-0.20929664,-0.20448905,-0.20225376,-0.20197815,-0.20366234,-0.2042135,-0.20225376,-0.19802797,-0.19521081,-0.19239366,-0.19156688,-0.1898827,-0.18902534,-0.1893009,-0.18789238,-0.18593258,-0.18228865,-0.17861408,-0.17665428,-0.17579693,-0.17579693,-0.17411274,-0.16878468,-0.16060877,-0.15414768,-0.15105492,-0.15359652,-0.15837342,-0.15864897,-0.15191233,-0.1403681,-0.12686408,-0.111400366,-0.09731454,-0.08720952,-0.0835349,-0.087485075,-0.09676331,-0.10631722,-0.111400366,-0.11954558,-0.12968123,-0.14318526,-0.15779161,-0.16679424,-0.17301035,-0.17579693,-0.17579693,-0.17637873,-0.17579693,-0.17438835,-0.17301035,-0.17383718,-0.17552131,-0.17919588,-0.18339103,-0.18789238,-0.19325107,-0.19579268,-0.18029827,-0.12968123,-0.03150934,0.1200968,0.30661118,0.50659883,0.69198024,0.81716025,0.83430815,0.70520866,0.4362924,0.097038865,-0.22672015,-0.4678017,-0.5949414,-0.6247665,-0.5822642,-0.49168634,-0.38592035,-0.29224974,-0.22757757,-0.19521081,-0.184524,-0.18060446,-0.17833847,-0.17356157,-0.16342592,-0.1507793,-0.14346081,-0.13951069,-0.13531554,-0.12968123,-0.11758584,-0.10604155,-0.10154027,-0.099304914,-0.09452802,-0.08635211,-0.07257253,-0.057935476,-0.049790204,-0.043053627,-0.03405094,-0.022506654,-0.008451521,0.010135651,0.026732445,0.041920543,0.056833148,0.07229686,0.08690333,0.10212207,0.118994355,0.13445807,0.14428759,0.1499219,0.15246344,0.14937079,0.14569616,0.13895941,0.1274153,0.113084555,0.09676337,0.077625036,0.055700064,0.030376315,0.0016840696,-0.024742067,-0.047830522,-0.068071246,-0.08494353,-0.103530645,-0.12208718,-0.13360077,-0.14150107,-0.14627796,-0.14964634,-0.15528065,-0.16201735,-0.16342592,-0.16033316,-0.1600576,-0.16146612,-0.16679424,-0.17187738,-0.17102003,-0.16259915,-0.15610743,-0.1524635,-0.15414768,-0.1580978,-0.15950638,-0.15583181,-0.1505037,-0.14401203,-0.1403681,-0.1384083,-0.13981688,-0.1426034,-0.14542055,-0.14655358,-0.14459383,-0.14009249,-0.1330496,-0.12772149,-0.12573105,-0.12517989,-0.12741524,-0.1302324,-0.13164103,-0.13136542,-0.1308142,-0.130508,-0.12741524,-0.12600672,-0.12573105,-0.1254555,-0.12517989,-0.12517989,-0.122638345,-0.118137,-0.11391127,-0.109134376,-0.105766,-0.103530645,-0.102948844,-0.1009891,-0.09872311,-0.09311938,-0.08693385,-0.077625036,-0.06751996,-0.05652696,-0.048106074,-0.04164493,-0.039379,-0.04360473,-0.05119884,-0.060201526,-0.07061273,-0.08071774,-0.09480357,-0.10940993,-0.12349576,-0.132774,-0.13672417,-0.13614231,-0.13559115,-0.13672417,-0.13249838,-0.1308142,-0.13222283,-0.13136542,-0.13500935,-0.1384083,-0.1426034,-0.15273911,-0.1617418,-0.15105492,-0.10380626,-0.00364393,0.15077925,0.34289742,0.5473865,0.7420461,0.88100564,0.90743184,0.78957045,0.5223689,0.17187738,-0.1701932,-0.4281165,-0.56370765,-0.591573,-0.5462841,-0.45711488,-0.35385984,-0.25878066,-0.18902534,-0.15133053,-0.14177662,-0.14459383,-0.14937073,-0.14741099,-0.13868392,-0.12573105,-0.113084495,-0.10380626,-0.09872311,-0.09621215,-0.09226197,-0.08861804,-0.08185071,-0.073705494,-0.062161207,-0.052331865,-0.044431508,-0.038246036,-0.03545946,-0.030958176,-0.019965112,-0.005358696,0.00955379,0.026426196,0.04302299,0.057659864,0.072021246,0.087485075,0.10349989,0.12150538,0.13782644,0.14710486,0.15105486,0.15077925,0.1499219,0.15273917,0.15528059,0.15246344,0.14428759,0.12291396,0.097038865,0.07003093,0.047524333,0.02982521,0.013779521,-0.0073185563,-0.034326494,-0.061028242,-0.08411676,-0.10380626,-0.115044236,-0.12658852,-0.1384083,-0.14851338,-0.15724045,-0.1648345,-0.16765165,-0.1622929,-0.15528065,-0.1505037,-0.15301466,-0.15920019,-0.16737604,-0.17074442,-0.16624308,-0.15950638,-0.15668923,-0.15583181,-0.15892458,-0.1654163,-0.16820288,-0.16679424,-0.16259915,-0.15864897,-0.15528065,-0.1507793,-0.14768654,-0.14318526,-0.14009249,-0.14009249,-0.1420523,-0.14431822,-0.145145,-0.145145,-0.14486939,-0.14401203,-0.14290965,-0.14373642,-0.14431822,-0.14710474,-0.1507793,-0.14937073,-0.14569622,-0.13755095,-0.12968123,-0.12631291,-0.123220146,-0.12432253,-0.1229139,-0.118994415,-0.117310226,-0.116728425,-0.1187188,-0.11786145,-0.111400366,-0.10181588,-0.08834249,-0.07398111,-0.06243682,-0.05484283,-0.055975795,-0.06693816,-0.0835349,-0.09985614,-0.11336011,-0.124904335,-0.13586676,-0.14655358,-0.15332085,-0.15779161,-0.16315031,-0.16737604,-0.16933584,-0.16906023,-0.16511005,-0.1622929,-0.16259915,-0.16428334,-0.16569191,-0.16933584,-0.17665428,-0.18538141,-0.18060446,-0.1420523,-0.05315858,0.093394995,0.27847016,0.4776312,0.66383934,0.7957865,0.82698965,0.7229079,0.47481394,0.14459383,-0.18678999,-0.43993634,-0.5752519,-0.6092721,-0.56876016,-0.4855008,-0.39014608,-0.30379397,-0.23740697,-0.20029396,-0.18311542,-0.17665428,-0.17469454,-0.17074442,-0.16315031,-0.15641367,-0.14710474,-0.13727528,-0.12854826,-0.117310226,-0.10830754,-0.10267329,-0.099304914,-0.09648776,-0.09422177,-0.09085345,-0.08466792,-0.07483852,-0.059925973,-0.046421826,-0.03769487,-0.032060444,-0.028140962,-0.018556476,-0.0016841292,0.01968944,0.038827896,0.055700064,0.07030654,0.08720946,0.10349989,0.114768624,0.12208724,0.1234957,0.12377131,0.12122965,0.114768624,0.10349989,0.08999598,0.07790065,0.06666255,0.0506171,0.027007937,-0.0016841292,-0.03346914,-0.0635699,-0.08889365,-0.10858315,-0.12686408,-0.13810211,-0.14823776,-0.157516,-0.16792727,-0.17861408,-0.18678999,-0.19156688,-0.1918425,-0.19043392,-0.19043392,-0.1898827,-0.19352669,-0.19634378,-0.19888538,-0.19888538,-0.19548643,-0.1918425,-0.19043392,-0.19438404,-0.1974768,-0.1994366,-0.19916093,-0.1974768,-0.19352669,-0.19043392,-0.18648374,-0.18311542,-0.1797471,-0.1777873,-0.1772055,-0.17610317,-0.17888969,-0.18311542,-0.18424845,-0.1794715,-0.17356157,-0.16710049,-0.16370153,-0.16651869,-0.17356157,-0.17692995,-0.17888969,-0.17861408,-0.17610317,-0.17411274,-0.17497021,-0.17579693,-0.17637873,-0.17438835,-0.17129558,-0.16624308,-0.15779161,-0.15301466,-0.15019757,-0.15105492,-0.15301466,-0.15442324,-0.14937073,-0.14064366,-0.12995684,-0.118412614,-0.10940993,-0.10212207,-0.10043788,-0.1032244,-0.11167592,-0.1229139,-0.13332516,-0.14177662,-0.15301466,-0.16259915,-0.17328602,-0.18228865,-0.18593258,-0.18734115,-0.18706554,-0.18819857,-0.1898827,-0.19098508,-0.19211811,-0.19239366,-0.19521081,-0.19888538,-0.2011208,-0.20758188,-0.21379799,-0.21098083,-0.18060446,-0.10463303,0.031233788,0.20926607,0.40450752,0.5876229,0.72263217,0.7662369,0.6835288,0.46158552,0.14823782,-0.17497021,-0.43430203,-0.58339715,-0.6315032,-0.6070368,-0.5341887,-0.44051814,-0.3493585,-0.27736783,-0.23853993,-0.22362745,-0.21771747,-0.21321619,-0.20308053,-0.19239366,-0.18648374,-0.18170685,-0.18060446,-0.1777873,-0.1704688,-0.16146612,-0.15469885,-0.14964634,-0.145145,-0.1403681,-0.13360077,-0.12517989,-0.11786145,-0.111124694,-0.10267329,-0.09030223,-0.07707387,-0.06666255,-0.057659924,-0.04893285,-0.034877658,-0.01604563,0.008451462,0.030100822,0.042196155,0.050065756,0.0545671,0.057659864,0.061610103,0.0658052,0.06892848,0.067795515,0.0658052,0.05738437,0.041920543,0.021924853,0.00027561188,-0.024742067,-0.051750004,-0.0793398,-0.10662341,-0.12772149,-0.14318526,-0.1580978,-0.17328602,-0.19211811,