-0.6939016,-0.6967069,-0.6975039,-0.69871527,-0.69591,-0.68905604,-0.6834135,-0.6817877,-0.68137336,-0.68099076,-0.67895055,-0.6765596,-0.67372245,-0.6700883,-0.6575919,-0.63419294,-0.61079407,-0.5975007,-0.60030603,-0.6152571,-0.6289649,-0.63540435,-0.6349899,-0.6321846,-0.632599,-0.6414613,-0.6580063,-0.679365,-0.6999267,-0.71124357,-0.71124357,-0.70556915,-0.69954413,-0.69871527,-0.7007555,-0.70276386,-0.7031783,-0.7035608,-0.70556915,-0.7088208,-0.7100322,-0.70920336,-0.7088208,-0.71446335,-0.7100322,-0.6640314,-0.5482801,-0.34703046,-0.088526845,0.16436613,0.35187602,0.42972374,0.40151107,0.301476,0.15709782,-0.018362045,-0.23169369,-0.47448117,-0.70276386,-0.8624757,-0.9160955,-0.8781918,-0.7991648,-0.73260224,-0.7015525,-0.7007555,-0.71404886,-0.7249514,-0.7297969,-0.7273742,-0.7209028,-0.71404886,-0.70799196,-0.7035608,-0.7007555,-0.69591,-0.6894386,-0.6834135,-0.6769422,-0.6700883,-0.66444576,-0.6588032,-0.65437216,-0.65194935,-0.6483152,-0.6422583,-0.6349899,-0.62934744,-0.6257132,-0.6208996,-0.61241984,-0.6031432,-0.5926552,-0.5853869,-0.5793618,-0.571679,-0.5628168,-0.5523287,-0.5426376,-0.5313526,-0.51844174,-0.5047339,-0.48818898,-0.47046447,-0.45108223,-0.43173194,-0.41400743,-0.40026778,-0.38777137,-0.37243778,-0.3559246,-0.34100544,-0.329306,-0.3228346,-0.3163951,-0.30912685,-0.3038987,-0.30348432,-0.31075257,-0.32487482,-0.3425994,-0.369218,-0.40351933,-0.44626862,-0.49182314,-0.53619814,-0.5745162,-0.6112085,-0.6466894,-0.678568,-0.7084064,-0.73339915,-0.75357836,-0.7717173,-0.78462815,-0.79189646,-0.797539,-0.8007587,-0.8035959,-0.80276704,-0.8011731,-0.79875034,-0.7971245,-0.7991648,-0.79875034,-0.7951162,-0.78867674,-0.7830023,-0.7818228,-0.7830023,-0.7826198,-0.7797826,-0.7733431,-0.7672862,-0.7644808,-0.76285505,-0.76285505,-0.7620581,-0.7612292,-0.75922084,-0.75759506,-0.75478977,-0.7519525,-0.7511556,-0.7499442,-0.7467245,-0.74350476,-0.7414645,-0.7418789,-0.7438873,-0.7438873,-0.7426759,-0.7406675,-0.7394561,-0.7402531,-0.7402531,-0.7406675,-0.73987055,-0.73987055,-0.7402531,-0.7414645,-0.7443017,-0.7438873,-0.7426759,-0.7390417,-0.73339915,-0.7301794,-0.7301794,-0.73381364,-0.7366508,-0.7378622,-0.7362364,-0.73301667,-0.73097646,-0.73180526,-0.73260224,-0.73260224,-0.7301794,-0.72858554,-0.7261628,-0.7249514,-0.72453696,-0.72374,-0.72374,-0.7241225,-0.7225286,-0.7209028,-0.7196914,-0.7196914,-0.71930885,-0.7156747,-0.71204054,-0.70961773,-0.7116261,-0.71605724,-0.71809745,-0.7164717,-0.71082914,-0.70678055,-0.70556915,-0.706398,-0.7088208,-0.71082914,-0.71283746,-0.71124357,-0.706398,-0.7003411,-0.69549555,-0.6946986,-0.6975039,-0.6999267,-0.7007555,-0.6991297,-0.6979183,-0.6946986,-0.69065,-0.68743026,-0.68743026,-0.6898531,-0.69026744,-0.68905604,-0.68621886,-0.68421054,-0.6858363,-0.68784463,-0.68743026,-0.68500745,-0.68099076,-0.6781536,-0.673308,-0.66728294,-0.66243744,-0.6603972,-0.6603972,-0.66122603,-0.6608116,-0.65838885,-0.65475464,-0.64509547,-0.62855047,-0.60757434,-0.5914438,-0.587427,-0.5958749,-0.60999715,-0.6208996,-0.6253307,-0.6245338,-0.6245338,-0.62934744,-0.64066434,-0.6575919,-0.6761452,-0.6922758,-0.7007555,-0.7003411,-0.6950811,-0.69026744,-0.68905604,-0.69065,-0.6942842,-0.6979183,-0.6999267,-0.701138,-0.7007555,-0.6979183,-0.6962925,-0.7015525,-0.707195,-0.68542194,-0.5987121,-0.42529243,-0.17482221,0.10064089,0.33657432,0.48174953,0.5112053,0.4470656,0.3147694,0.13691866,-0.07803881,-0.3256718,-0.5736874,-0.7753514,-0.88262296,-0.8850457,-0.8213204,-0.74713886,-0.7007555,-0.69065,-0.701138,-0.7168861,-0.72654533,-0.73097646,-0.72858554,-0.7209028,-0.71204054,-0.7051866,-0.701138,-0.6991297,-0.69591,-0.69065,-0.68421054,-0.679365,-0.6753483,-0.67088526,-0.6648602,-0.6575919,-0.650738,-0.64468104,-0.64066434,-0.63661575,-0.633396,-0.63138765,-0.6245338,-0.61241984,-0.5990946,-0.587427,-0.577736,-0.572476,-0.56724787,-0.55997956,-0.55153173,-0.54225504,-0.5313526,-0.51643336,-0.49867702,-0.48174948,-0.4668303,-0.45229363,-0.43578053,-0.4176097,-0.39988518,-0.38334018,-0.36679524,-0.35066468,-0.33574545,-0.32245213,-0.31518376,-0.31033826,-0.30428123,-0.30268735,-0.30549264,-0.3168096,-0.33654243,-0.36077017,-0.3897797,-0.4260894,-0.46804172,-0.5120023,-0.55475146,-0.59428096,-0.6317702,-0.66967386,-0.70435774,-0.73301667,-0.7552042,-0.7717173,-0.7850425,-0.7955306,-0.8023845,-0.8056043,-0.80723006,-0.80844146,-0.808027,-0.80723006,-0.8056043,-0.80397844,-0.80276704,-0.8011731,-0.797539,-0.7939048,-0.79189646,-0.7902706,-0.7878479,-0.78220534,-0.7777742,-0.7753514,-0.7753514,-0.7757659,-0.7733431,-0.7705059,-0.7672862,-0.7664892,-0.7644808,-0.75963527,-0.7539928,-0.75157,-0.75357836,-0.7560011,-0.75437534,-0.7507412,-0.7479359,-0.7479359,-0.75035864,-0.7519525,-0.75157,-0.7499442,-0.7495298,-0.74914724,-0.74914724,-0.7487328,-0.74831843,-0.7487328,-0.7475214,-0.7467245,-0.74713886,-0.74914724,-0.75236696,-0.75478977,-0.7527814,-0.74914724,-0.7438873,-0.7406675,-0.7394561,-0.73865914,-0.7402531,-0.7406675,-0.7430903,-0.7430903,-0.7406675,-0.7382448,-0.73703337,-0.7366508,-0.7362364,-0.73381364,-0.7321878,-0.73180526,-0.734228,-0.73582196,-0.7362364,-0.734228,-0.73260224,-0.73301667,-0.73097646,-0.7301794,-0.7289681,-0.7293825,-0.73180526,-0.73139083,-0.7293825,-0.7273742,-0.7257483,-0.7257483,-0.7241225,-0.71930885,-0.71605724,-0.71404886,-0.7168861,-0.71848,-0.7168861,-0.71446335,-0.71204054,-0.712455,-0.71446335,-0.71446335,-0.712455,-0.7104147,-0.71124357,-0.71325195,-0.71325195,-0.7100322,-0.70477223,-0.6999267,-0.6991297,-0.7007555,-0.70397526,-0.7051866,-0.7051866,-0.7019669,-0.6979183,-0.6939016,-0.6918614,-0.6910644,-0.68784463,-0.68220216,-0.6765596,-0.67372245,-0.6741369,-0.6757308,-0.6753483,-0.6725111,-0.66645414,-0.65316075,-0.632599,-0.60999715,-0.59549236,-0.5958749,-0.61079407,-0.62855047,-0.63945293,-0.6386241,-0.63419294,-0.63298154,-0.6402499,-0.65638053,-0.67773914,-0.6983328,-0.71404886,-0.72052026,-0.71809745,-0.71283746,-0.7088208,-0.70920336,-0.7104147,-0.7100322,-0.7084064,-0.707195,-0.7084064,-0.70961773,-0.7104147,-0.71283746,-0.7201058,-0.7209028,-0.6846249,-0.5741018,-0.37486053,-0.10586876,0.17201698,0.39704812,0.5224904,0.53014123,0.44547176,0.2942077,0.099015,-0.12885326,-0.3837546,-0.6273391,-0.81650674,-0.9080302,-0.8975422,-0.8298001,-0.75880647,-0.72052026,-0.7168861,-0.73097646,-0.7447161,-0.7507412,-0.7499442,-0.7418789,-0.73180526,-0.7241225,-0.7201058,-0.71930885,-0.7188945,-0.7148459,-0.706398,-0.6962925,-0.68864167,-0.68220216,-0.6765596,-0.67171407,-0.66645414,-0.6616086,-0.65437216,-0.6463069,-0.6390385,-0.63298154,-0.6273391,-0.6204852,-0.61079407,-0.60030603,-0.5914438,-0.58417547,-0.5761101,-0.5668335,-0.5575568,-0.54585737,-0.5337754,-0.51885617,-0.49988842,-0.48417228,-0.47126138,-0.46118778,-0.44869137,-0.43052053,-0.40916187,-0.3869744,-0.3680066,-0.35149348,-0.3373713,-0.32608622,-0.31598067,-0.3079154,-0.2978418,-0.29019094,-0.28776813,-0.29541904,-0.31355792,-0.3373713,-0.3639899,-0.3942427,-0.42930913,-0.4716758,-0.516019,-0.559597,-0.60151744,-0.6402499,-0.67773914,-0.7136345,-0.7430903,-0.7672862,-0.7866365,-0.80276704,-0.81408393,-0.81972647,-0.8209379,-0.820109,-0.8188976,-0.81972647,-0.81972647,-0.81771815,-0.8148809,-0.81245816,-0.809621,-0.80723006,-0.80276704,-0.79875034,-0.7951162,-0.7934904,-0.7910995,-0.78867674,-0.7866365,-0.78462815,-0.7826198,-0.78099394,-0.780197,-0.7789856,-0.7785712,-0.7773598,-0.7753514,-0.7717173,-0.7692945,-0.7684976,-0.7664892,-0.76285505,-0.7600179,-0.75880647,-0.7608467,-0.76285505,-0.76164365,-0.7580095,-0.75316393,-0.7511556,-0.7519525,-0.7539928,-0.7580095,-0.7612292,-0.7632695,-0.7632695,-0.7608467,-0.75759506,-0.75759506,-0.7608467,-0.76406646,-0.7652778,-0.7644808,-0.7608467,-0.7572125,-0.75357836,-0.7507412,-0.7511556,-0.7539928,-0.75759506,-0.7580095,-0.75478977,-0.7519525,-0.75035864,-0.75035864,-0.75157,-0.7511556,-0.75035864,-0.7499442,-0.7495298,-0.7447161,-0.7382448,-0.73301667,-0.7301794,-0.73301667,-0.7366508,-0.73865914,-0.7390417,-0.7366508,-0.7354394,-0.73461056,-0.73339915,-0.7321878,-0.73097646,-0.7301794,-0.72858554,-0.72858554,-0.73097646,-0.7354394,-0.7378622,-0.73502505,-0.72858554,-0.7225286,-0.72131723,-0.7253339,-0.73097646,-0.73301667,-0.73381364,-0.73097646,-0.7281711,-0.7241225,-0.71930885,-0.7164717,-0.7164717,-0.71809745,-0.7201058,-0.7188945,-0.7164717,-0.7148459,-0.7148459,-0.71526027,-0.71526027,-0.71446335,-0.71204054,-0.71082914,-0.70678055,-0.70276386,-0.6999267,-0.6962925,-0.6946986,-0.6910644,-0.6858363,-0.6834135,-0.68421054,-0.6805763,-0.66728294,-0.6442666,-0.62290794,-0.61241984,-0.6180624,-0.6317702,-0.6434697,-0.6491122,-0.6483152,-0.6471038,-0.6483152,-0.65596604,-0.6720966,-0.69348717,-0.7136345,-0.7249514,-0.7269597,-0.72332555,-0.72131723,-0.7241225,-0.7281711,-0.7289681,-0.7289681,-0.7261628,-0.7253339,-0.7269597,-0.7269597,-0.7293825,-0.73502505,-0.7447161,-0.74229336,-0.6898531,-0.55997956,-0.33979404,-0.055054307,0.23089671,0.45713937,0.5720936,0.5636138,0.45997655,0.291785,0.079250336,-0.17160255,-0.4438458,-0.6950811,-0.8709235,-0.9342663,-0.898371,-0.81972647,-0.7527814,-0.72332555,-0.7241225,-0.7382448,-0.7499442,-0.7527814,-0.7499442,-0.74229336,-0.73502505,-0.7297969,-0.7249514,-0.7201058,-0.71526027,-0.7100322,-0.70598364,-0.7023494,-0.6979183,-0.6910644,-0.6837961,-0.67773914,-0.673308,-0.66728294,-0.65960026,-0.650738,-0.64267266,-0.6374127,-0.63055885,-0.6200707,-0.6092001,-0.5979152,-0.59102935,-0.5850043,-0.5773215,-0.5668335,-0.55513406,-0.5450604,-0.53498673,-0.5228729,-0.5071567,-0.48901778,-0.47005004,-0.45069975,-0.43093497,-0.41158462,-0.39261693,-0.37568933,-0.35793293,-0.3381682,-0.3196149,-0.3038987,-0.2937932,-0.28897947,-0.28693932,-0.28735375,-0.29019094,-0.30026454,-0.31598067,-0.3385827,-0.3680066,-0.40310496,-0.44543976,-0.48780638,-0.5313526,-0.5741018,-0.6164366,-0.6588032,-0.6971214,-0.7281711,-0.7527814,-0.7745545,-0.792279,-0.8068156,-0.8168893,-0.8221493,-0.8233606,-0.82374316,-0.824572,-0.8229462,-0.8221493,-0.8233606,-0.82374316,-0.8225318,-0.81931204,-0.8144665,-0.81003535,-0.8076126,-0.8060187,-0.8035959,-0.8007587,-0.79795337,-0.79591316,-0.79310787,-0.78826225,-0.78341675,-0.7818228,-0.7826198,-0.7838312,-0.7818228,-0.7773598,-0.7721317,-0.77012336,-0.7680831,-0.76687175,-0.7660748,-0.7664892,-0.7684976,-0.7692945,-0.76687175,-0.76406646,-0.7648634,-0.7684976,-0.7725461,-0.7729287,-0.7684976,-0.7624406,-0.76043224,-0.75922084,-0.75963527,-0.7612292,-0.7624406,-0.76406646,-0.7644808,-0.7608467,-0.7584239,-0.7584239,-0.76164365,-0.7644808,-0.7648634,-0.76285505,-0.76043224,-0.7608467,-0.76164365,-0.75922084,-0.7560011,-0.75357836,-0.7539928,-0.75558674,-0.75558674,-0.75357836,-0.7499442,-0.74713886,-0.74631,-0.74631,-0.7475214,-0.7495298,-0.7511556,-0.7495298,-0.7443017,-0.7394561,-0.7374478,-0.7394561,-0.7438873,-0.74631,-0.7455131,-0.74229336,-0.7394561,-0.7366508,-0.73339915,-0.7321878,-0.73139083,-0.73180526,-0.73139083,-0.7269597,-0.72374,-0.7225286,-0.7249514,-0.7281711,-0.7277567,-0.7261628,-0.72332555,-0.7216997,-0.7216997,-0.7229111,-0.7241225,-0.7249514,-0.72654533,-0.7225286,-0.71605724,-0.70920336,-0.70598364,-0.70678055,-0.7076094,-0.70477223,-0.6999267,-0.6971214,-0.69591,-0.69147885,-0.67773914,-0.6535433,-0.62855047,-0.6132169,-0.6132169,-0.62290794,-0.6370302,-0.6483152,-0.65437216,-0.6555835,-0.6535433,-0.6567949,-0.6688769,-0.69026744,-0.71404886,-0.7297969,-0.73502505,-0.73339915,-0.7305939,-0.7277567,-0.72453696,-0.72332555,-0.7241225,-0.7277567,-0.7321878,-0.73139083,-0.7281711,-0.7257483,-0.7261628,-0.73339915,-0.7418789,-0.7277567,-0.65475464,-0.4974656,-0.24983257,0.044980884,0.31276107,0.49507475,0.55191433,0.49749768,0.3692181,0.18894458,-0.029647112,-0.28371954,-0.54547477,-0.76891196,-0.90442795,-0.93222606,-0.88262296,-0.80723006,-0.74914724,-0.7273742,-0.73301667,-0.74914724,-0.7620581,-0.7644808,-0.75922084,-0.7519525,-0.74509865,-0.73865914,-0.7321878,-0.7253339,-0.71930885,-0.7164717,-0.71446335,-0.7100322,-0.70397526,-0.6962925,-0.68905604,-0.68220216,-0.6741369,-0.66728294,-0.6603972,-0.6551691,-0.6511524,-0.64509547,-0.6374127,-0.62934744,-0.6208996,-0.6132169,-0.6035576,-0.5926552,-0.5813701,-0.5708821,-0.559597,-0.54585737,-0.531767,-0.51805925,-0.5047339,-0.49223757,-0.47811532,-0.45997638,-0.43979722,-0.4196499,-0.39947075,-0.37970603,-0.3611527,-0.34502214,-0.33211136,-0.32002926,-0.30832988,-0.29825622,-0.2921993,-0.29341066,-0.30106157,-0.31355792,-0.33294016,-0.35834742,-0.39261693,-0.43456918,-0.47932673,-0.5261245,-0.5728904,-0.6180624,-0.65960026,-0.6962925,-0.7269597,-0.75236696,-0.7737575,-0.79189646,-0.8060187,-0.8188976,-0.83021456,-0.8398738,-0.8439223,-0.841914,-0.836654,-0.8314259,-0.8314259,-0.8334343,-0.83301985,-0.82900316,-0.8229462,-0.8181007,-0.8160923,-0.8160923,-0.8160923,-0.8144665,-0.81245816,-0.8076126,-0.8015557,-0.79591316,-0.792279,-0.79068506,-0.78947365,-0.78746533,-0.7862539,-0.7850425,-0.7850425,-0.7838312,-0.78140837,-0.7777742,-0.77414006,-0.7717173,-0.7692945,-0.76770055,-0.76770055,-0.76891196,-0.7705059,-0.7692945,-0.76566035,-0.76285505,-0.7624406,-0.7648634,-0.76770055,-0.7684976,-0.76770055,-0.76687175,-0.76687175,-0.7672862,-0.7684976,-0.76891196,-0.769709,-0.7705059,-0.769709,-0.76566035,-0.763652,-0.7632695,-0.76566035,-0.76770055,-0.7672862,-0.7664892,-0.7644808,-0.7632695,-0.76043224,-0.75558674,-0.75357836,-0.75558674,-0.7612292,-0.7652778,-0.76406646,-0.7584239,-0.75236696,-0.75157,-0.7527814,-0.75316393,-0.7527814,-0.7499442,-0.7479359,-0.7467245,-0.7459275,-0.74509865,-0.74350476,-0.7430903,-0.74229336,-0.7402531,-0.7402531,-0.7402531,-0.7443017,-0.74831843,-0.74831843,-0.7443017,-0.7394561,-0.7366508,-0.7362364,-0.7374478,-0.73865914,-0.7382448,-0.73865914,-0.7394561,-0.7374478,-0.73461056,-0.73339915,-0.734228,-0.734228,-0.73097646,-0.72453696,-0.7164717,-0.7104147,-0.70598364,-0.7031783,-0.7023494,-0.7019669,-0.6999267,-0.6894386,-0.6680799,-0.6434697,-0.6257132,-0.62128216,-0.6289649,-0.64187574,-0.6527463,-0.65717745,-0.6580063,-0.6555835,-0.65638053,-0.66728294,-0.68905604,-0.7164717,-0.7390417,-0.7499442,-0.7487328,-0.7414645,-0.7366508,-0.73339915,-0.73339915,-0.73461056,-0.7366508,-0.73987055,-0.7430903,-0.7430903,-0.7418789,-0.7402531,-0.7430903,-0.75035864,-0.7414645,-0.68137336,-0.5377921,-0.30185854,-0.0094679,0.27202022,0.48095262,0.572508,0.5466863,0.43335783,0.25671852,0.035704136,-0.22162002,-0.49265194,-0.7321878,-0.8927285,-0.9463483,-0.910453,-0.83706844,-0.7733431,-0.74350476,-0.7443017,-0.75922084,-0.77414006,-0.7806114,-0.7769773,-0.7684976,-0.75963527,-0.75478977,-0.75157,-0.7475214,-0.74229336,-0.73461056,-0.7257483,-0.7176831,-0.7100322,-0.7035608,-0.69871527,-0.6962925,-0.69269025,-0.68743026,-0.6797794,-0.6705027,-0.66202295,-0.6527463,-0.6442666,-0.6382415,-0.6317702,-0.6265421,-0.6192738,-0.6092001,-0.5975007,-0.5862157,-0.5748988,-0.56240237,-0.5470687,-0.5297268,-0.51359624,-0.49988842,-0.48659503,-0.47005004,-0.4519111,-0.43335772,-0.4156013,-0.39947075,-0.38133186,-0.36316103,-0.34543657,-0.33172876,-0.32203764,-0.31518376,-0.31113517,-0.31033826,-0.31438679,-0.32324904,-0.3381682,-0.36077017,-0.39261693,-0.43214637,-0.476107,-0.5196531,-0.5632312,-0.6067774,-0.650738,-0.6922758,-0.72858554,-0.75922084,-0.78462815,-0.80518985,-0.82052344,-0.8293857,-0.8334343,-0.83544266,-0.8386624,-0.84108514,-0.841914,-0.841914,-0.841914,-0.84312534,-0.84229654,-0.8390768,-0.83423126,-0.8285887,-0.8257834,-0.8241576,-0.8213204,-0.81851506,-0.81529534,-0.81325513,-0.8108323,-0.8076126,-0.8056043,-0.80518985,-0.8068156,-0.80640125,-0.8023845,-0.79674196,-0.79269344,-0.79189646,-0.79189646,-0.7910995,-0.78947365,-0.78826225,-0.7890593,-0.78988814,-0.78826225,-0.7858395,-0.7838312,-0.7842137,-0.7858395,-0.7862539,-0.7850425,-0.7838312,-0.7838312,-0.7842137,-0.7850425,-0.7850425,-0.78341675,-0.78140837,-0.77818865,-0.77414006,-0.7705059,-0.7705059,-0.7729287,-0.77493703,-0.7745545,-0.7721317,-0.76891196,-0.7680831,-0.7680831,-0.7664892,-0.7652778,-0.76285505,-0.7632695,-0.76406646,-0.7632695,-0.7612292,-0.75922084,-0.7580095,-0.75641555,-0.75357836,-0.75157,-0.7507412,-0.75316393,-0.7552042,-0.7552042,-0.75478977,-0.75316393,-0.75357836,-0.75357836,-0.7519525,-0.7495298,-0.7487328,-0.75035864,-0.7507412,-0.74831843,-0.7447161,-0.7414645,-0.7394561,-0.7382448,-0.7354394,-0.73260224,-0.7293825,-0.72858554,-0.7281711,-0.7273742,-0.7269597,-0.7277567,-0.7297969,-0.7301794,-0.7277567,-0.7249514,-0.7225286,-0.7225286,-0.7229111,-0.7209028,-0.7164717,-0.71082914,-0.70598364,-0.70276386,-0.6983328,-0.6939016,-0.69147885,-0.69269025,-0.6942842,-0.69147885,-0.67895055,-0.6551691,-0.62934744,-0.6104115,-0.60515153,-0.61484265,-0.63298154,-0.649941,-0.6575919,-0.65475464,-0.6483152,-0.6471038,-0.6580063,-0.6797794,-0.70556915,-0.7269597,-0.7378622,-0.7406675,-0.7366508,-0.7293825,-0.72374,-0.7216997,-0.7229111,-0.7269597,-0.7301794,-0.73180526,-0.73139083,-0.73301667,-0.73381364,-0.7366508,-0.7430903,-0.73703337,-0.6866333,-0.554337,-0.3256718,-0.028435647,0.2708087,0.5055629,0.6277536,0.6273391,0.52650714,0.34907067,0.11877978,-0.14660966,-0.42567497,-0.6773566,-0.85721576,-0.9342663,-0.91370463,-0.841914,-0.7729287,-0.7382448,-0.73987055,-0.75922084,-0.7757659,-0.78099394,-0.77614844,-0.76891196,-0.76043224,-0.75157,-0.7430903,-0.73582196,-0.73097646,-0.7269597,-0.72131723,-0.71404886,-0.706398,-0.7003411,-0.69549555,-0.69026744,-0.6834135,-0.6761452,-0.6688769,-0.66202295,-0.65437216,-0.6471038,-0.6398355,-0.63419294,-0.6273391,-0.6180624,-0.6083713,-0.59829766,-0.58780956,-0.57652456,-0.56402814,-0.5523287,-0.5414262,-0.53093815,-0.5172304,-0.49867702,-0.47852975,-0.45796806,-0.43900025,-0.4188211,-0.39784497,-0.37648636,-0.3563072,-0.33896518,-0.3228346,-0.30632156,-0.29137045,-0.2809143,-0.2760687,-0.2764513,-0.2809143,-0.2897765,-0.3038987,-0.3268832,-0.35872996,-0.39583665,-0.43979722,-0.48818898,-0.53820646,-0.587427,-0.63298154,-0.6745194,-0.71124357,-0.74509865,-0.7737575,-0.79674196,-0.8144665,-0.8273773,-0.836654,-0.842711,-0.8443049,-0.8439223,-0.84312534,-0.842711,-0.84108514,-0.8378654,-0.8338487,-0.8298001,-0.8281743,-0.826166,-0.8225318,-0.81851506,-0.8144665,-0.81245816,-0.8108323,-0.80844146,-0.8048073,-0.8007587,-0.7991648,-0.79795337,-0.7951162,-0.79310787,-0.7902706,-0.78867674,-0.78746533,-0.78462815,-0.78099394,-0.77818865,-0.7769773,-0.7765628,-0.7753514,-0.7737575,-0.7725461,-0.7733431,-0.7737575,-0.7729287,-0.7717173,-0.7717173,-0.7737575,-0.77493703,-0.7733431,-0.77012336,-0.7672862,-0.76770055,-0.7692945,-0.77012336,-0.769709,-0.7684976,-0.7684976,-0.7680831,-0.76687175,-0.7660748,-0.76566035,-0.7680831,-0.769709,-0.76770055,-0.76406646,-0.7608467,-0.75963527,-0.75963527,-0.75880647,-0.75679815,-0.75437534,-0.75478977,-0.7552042,-0.75437534,-0.75236696,-0.7495298,-0.7479359,-0.74631,-0.7447161,-0.74350476,-0.74229336,-0.7430903,-0.74350476,-0.74229336,-0.74108195,-0.7402531,-0.7414645,-0.7430903,-0.7414645,-0.7390417,-0.73582196,-0.73339915,-0.73097646,-0.7273742,-0.7241225,-0.7225286,-0.72453696,-0.7269597,-0.72654533,-0.7249514,-0.7225286,-0.7229111,-0.72374,-0.7229111,-0.7216997,-0.7196914,-0.7188945,-0.71809745,-0.7164717,-0.7148459,-0.712455,-0.7104147,-0.70678055,-0.7003411,-0.6942842,-0.6894386,-0.68621886,-0.6837961,-0.68220216,-0.68137336,-0.68137336,-0.67773914,-0.66243744,-0.6362014,-0.60878575,-0.5914438,-0.5922407,-0.6071918,-0.62411934,-0.63540435,-0.6382415,-0.6358188,-0.63460743,-0.64066434,-0.6567949,-0.6817877,-0.7076094,-0.7241225,-0.7277567,-0.72374,-0.7188945,-0.7176831,-0.7196914,-0.7225286,-0.72453696,-0.7249514,-0.7253339,-0.7249514,-0.7225286,-0.72131723,-0.7221142,-0.7293825,-0.73703337,-0.7188945,-0.6349899,-0.45554525,-0.18046474,0.14460135,0.44626856,0.66081166,0.74028516,0.69147897,0.54225516,0.32203782,0.05868852,-0.2324906,-0.5196531,-0.75558674,-0.8967452,-0.9265836,-0.8757691,-0.8007587,-0.74713886,-0.7301794,-0.7414645,-0.7608467,-0.77493703,-0.7777742,-0.7725461,-0.7644808,-0.7572125,-0.7519525,-0.74631,-0.73865914,-0.7305939,-0.72332555,-0.7176831,-0.712455,-0.7051866,-0.6979183,-0.69026744,-0.6837961,-0.6769422,-0.6688769,-0.66202295,-0.6555835,-0.65032357,-0.64468104,-0.6349899,-0.6245338,-0.61484265,-0.60757434,-0.5999235,-0.58822405,-0.5745162,-0.560394,-0.5482801,-0.53740954,-0.52408427,-0.5067423,-0.487392,-0.4684242,-0.45028532,-0.4313494,-0.41117024,-0.3897797,-0.36842102,-0.3474449,-0.32646883,-0.30670404,-0.28856516,-0.2744429,-0.26357228,-0.2546782,-0.2514584,-0.25225538,-0.25831234,-0.26959735,-0.28693932,-0.31276095,-0.3494532,-0.39663363,-0.44869137,-0.49950588,-0.54748315,-0.5926552,-0.6370302,-0.679365,-0.7168861,-0.74914724,-0.77493703,-0.7955306,-0.81003535,-0.82052344,-0.82779175,-0.8334343,-0.83827984,-0.8407026,-0.8390768,-0.8350601,-0.83059704,-0.826166,-0.8221493,-0.81851506,-0.8156779,-0.81366956,-0.81408393,-0.8120437,-0.80844146,-0.80397844,-0.8003762,-0.7983359,-0.79674196,-0.7939048,-0.7902706,-0.7866365,-0.7862539,-0.7866365,-0.7862539,-0.7858395,-0.7838312,-0.78140837,-0.77940005,-0.7773598,-0.7769773,-0.7785712,-0.7806114,-0.7806114,-0.7765628,-0.7725461,-0.77012336,-0.77133477,-0.7729287,-0.7733431,-0.7725461,-0.77133477,-0.7721317,-0.7737575,-0.7733431,-0.7725461,-0.7725461,-0.7737575,-0.7737575,-0.7705059,-0.7664892,-0.7632695,-0.76285505,-0.763652,-0.763652,-0.763652,-0.7632695,-0.76406646,-0.7644808,-0.76285505,-0.76043224,-0.7584239,-0.7584239,-0.7584239,-0.75759506,-0.7560011,-0.7552042,-0.7560011,-0.7560011,-0.75478977,-0.75357836,-0.75157,-0.7507412,-0.7499442,-0.74713886,-0.7438873,-0.7414645,-0.7414645,-0.7406675,-0.7390417,-0.7374478,-0.7366508,-0.7382448,-0.7402531,-0.73987055,-0.7374478,-0.73461056,-0.73339915,-0.73301667,-0.73301667,-0.73339915,-0.7321878,-0.73180526,-0.73139083,-0.7289681,-0.7277567,-0.7281711,-0.7301794,-0.7321878,-0.73139083,-0.7297969,-0.72654533,-0.7229111,-0.71809745,-0.70961773,-0.7023494,-0.6967069,-0.6950811,-0.6946986,-0.6930728,-0.6898531,-0.6817877,-0.6648602,-0.6402499,-0.6132169,-0.5958749,-0.59507793,-0.60999715,-0.6297618,-0.6442666,-0.6491122,-0.6466894,-0.6442666,-0.6491122,-0.66444576,-0.68864167,-0.71404886,-0.73180526,-0.7362364,-0.73139083,-0.7249514,-0.7216997,-0.7229111,-0.7249514,-0.72453696,-0.7229111,-0.7221142,-0.7241225,-0.7257483,-0.7261628,-0.7273742,-0.73260224,-0.73987055,-0.7209028,-0.633396,-0.44747996,-0.16069996,0.17765951,0.494246,0.72415435,0.81408405,0.7684976,0.61241996,0.37607205,0.09216106,-0.22082305,-0.5244987,-0.77133477,-0.9160955,-0.9419172,-0.8842488,-0.80276704,-0.7467245,-0.73139083,-0.7438873,-0.763652,-0.7769773,-0.780197,-0.7753514,-0.76687175,-0.7572125,-0.7479359,-0.7406675,-0.734228,-0.72654533,-0.71930885,-0.712455,-0.707195,-0.7019669,-0.6950811,-0.68701583,-0.6797794,-0.6741369,-0.6676655,-0.65960026,-0.6511524,-0.64267266,-0.6362014,-0.6297618,-0.62211096,-0.6132169,-0.6027288,-0.5926552,-0.58095574,-0.5676623,-0.5555485,-0.5442634,-0.5341898,-0.521279,-0.503937,-0.4837578,-0.46157032,-0.44222003,-0.42446363,-0.40632468,-0.38777137,-0.3672096,-0.34581912,-0.32366347,-0.30185854,-0.28292263,-0.26679206,-0.2566865,-0.24983257,-0.24501896,-0.24419016,-0.250247,-0.26558065,-0.2897765,-0.3208263,-0.35872996,-0.40269053,-0.45350504,-0.5071567,-0.55997956,-0.6092001,-0.6551691,-0.6975039,-0.73461056,-0.76566035,-0.79148203,-0.8120437,-0.82900316,-0.84149957,-0.84835345,-0.85240203,-0.853199,-0.8552073,-0.8552073,-0.85358155,-0.8511907,-0.84835345,-0.8463451,-0.8435079,-0.8390768,-0.83544266,-0.83301985,-0.8326373,-0.83101153,-0.8265804,-0.8209379,-0.8156779,-0.81245816,-0.81003535,-0.8060187,-0.8015557,-0.7983359,-0.7963276,-0.7951162,-0.79310787,-0.7902706,-0.7878479,-0.7878479,-0.7890593,-0.78867674,-0.7878479,-0.7854251,-0.78341675,-0.78140837,-0.7785712,-0.7757659,-0.77414006,-0.77493703,-0.77493703,-0.77414006,-0.7729287,-0.7721317,-0.7737575,-0.77493703,-0.7737575,-0.7721317,-0.7705059,-0.7717173,-0.7733431,-0.7729287,-0.7705059,-0.76687175,-0.7652778,-0.76566035,-0.7652778,-0.7648634,-0.7632695,-0.76285505,-0.76285505,-0.7624406,-0.7620581,-0.7600179,-0.75880647,-0.75679815,-0.75437534,-0.7519525,-0.75035864,-0.7507412,-0.7507412,-0.74831843,-0.7459275,-0.74350476,-0.74350476,-0.74509865,-0.74509865,-0.74509865,-0.7447161,-0.7438873,-0.74229336,-0.7394561,-0.7366508,-0.7354394,-0.73703337,-0.73865914,-0.7378622,-0.7362364,-0.73461056,-0.73381364,-0.73381364,-0.73260224,-0.73097646,-0.7297969,-0.7305939,-0.73180526,-0.73139083,-0.7297969,-0.7281711,-0.7269597,-0.7249514,-0.7201058,-0.71325195,-0.70678055,-0.70397526,-0.7015525,-0.6991297,-0.69591,-0.6910644,-0.68421054,-0.6688769,-0.6463069,-0.6208996,-0.6027288,-0.6007204,-0.6116229,-0.6265421,-0.6382415,-0.6422583,-0.6414613,-0.6402499,-0.6442666,-0.6603972,-0.6858363,-0.71404886,-0.73381364,-0.7394561,-0.734228,-0.72654533,-0.7225286,-0.72332555,-0.7261628,-0.7293825,-0.7321878,-0.734228,-0.73461056,-0.73301667,-0.73180526,-0.73139083,-0.7378622,-0.7467245,-0.7366508,-0.6700883,-0.5099939,-0.24339312,0.09659219,0.43820345,0.7068125,0.83869433,0.82256377,0.68784475,0.46361065,0.1804967,-0.13854438,-0.45997638,-0.7297969,-0.8975422,-0.94392556,-0.8975422,-0.81972647,-0.75922084,-0.7362364,-0.7426759,-0.76285505,-0.7806114,-0.78746533,-0.7826198,-0.77092034,-0.7580095,-0.74831843,-0.7414645,-0.73582196,-0.7293825,-0.7225286,-0.7164717,-0.71204054,-0.70598364,-0.69954413,-0.69269025,-0.68542194,-0.6781536,-0.6692914,-0.6608116,-0.65316075,-0.6466894,-0.6398355,-0.63138765,-0.62290794,-0.61404574,-0.60636294,-0.5970863,-0.5850043,-0.571679,-0.55717427,-0.5442634,-0.53014123,-0.51321363,-0.4954573,-0.47731835,-0.45956194,-0.44100863,-0.42044693,-0.39867383,-0.37690073,-0.35672158,-0.33574545,-0.31438679,-0.29341066,-0.27523988,-0.26153207,-0.25104403,-0.24259615,-0.23695362,-0.23532778,-0.24176729,-0.25630397,-0.27849144,-0.30954123,-0.34824187,-0.39503968,-0.4466511,-0.49867702,-0.55153173,-0.60151744,-0.649941,-0.6942842,-0.7301794,-0.7612292,-0.78826225,-0.8120437,-0.83021456,-0.84108514,-0.84672767,-0.8491504,-0.85240203,-0.853996,-0.853199,-0.85077626,-0.847939,-0.8463451,-0.8447193,-0.84108514,-0.836654,-0.8326373,-0.83059704,-0.8273773,-0.8225318,-0.8181007,-0.81366956,-0.8120437,-0.81124675,-0.80844146,-0.8048073,-0.8023845,-0.79996175,-0.79795337,-0.79470176,-0.79189646,-0.78947365,-0.78988814,-0.7902706,-0.78947365,-0.7870509,-0.7838312,-0.7830023,-0.7830023,-0.7830023,-0.7830023,-0.78341675,-0.7838312,-0.78341675,-0.7818228,-0.7806114,-0.7789856,-0.77818865,-0.7769773,-0.7757659,-0.77614844,-0.7785712,-0.78462815,-0.7850425,-0.78220534,-0.7765628,-0.77012336,-0.7684976,-0.76891196,-0.7680831,-0.7684976,-0.7680831,-0.76770055,-0.76770055,-0.7652778,-0.7644808,-0.76406646,-0.76566035,-0.7672862,-0.7680831,-0.7680831,-0.7672862,-0.7652778,-0.7620581,-0.75759506,-0.7552042,-0.75478977,-0.75759506,-0.7600179,-0.75963527,-0.7584239,-0.75679815,-0.75478977,-0.75437534,-0.75236696,-0.7495298,-0.7479359,-0.7487328,-0.74914724,-0.7487328,-0.7475214,-0.7443017,-0.74229336,-0.7402531,-0.73865914,-0.73865914,-0.73865914,-0.74108195,-0.7447161,-0.7447161,-0.7447161,-0.7426759,-0.7402531,-0.7374478,-0.734228,-0.73097646,-0.72858554,-0.7261628,-0.72131723,-0.71446335,-0.70799196,-0.70276386,-0.7023494,-0.701138,-0.6999267,-0.6967069,-0.6858363,-0.66849434,-0.645478,-0.62332237,-0.61241984,-0.61484265,-0.62855047,-0.64187574,-0.6491122,-0.6495266,-0.6463069,-0.6487296,-0.6603972,-0.68137336,-0.7076094,-0.7305939,-0.7455131,-0.7475214,-0.73987055,-0.7305939,-0.7249514,-0.7253339,-0.7289681,-0.73139083,-0.73260224,-0.734228,-0.7362364,-0.7374478,-0.73502505,-0.73301667,-0.73865914,-0.74229336,-0.7104147,-0.5979152,-0.37568933,-0.053045988,0.3055246,0.622908,0.8273773,0.8802322,0.7999618,0.6144283,0.35187602,0.03650093,-0.30511004,-0.62128216,-0.853199,-0.95804775,-0.9431286,-0.8656954,-0.7866365,-0.74350476,-0.7374478,-0.75316393,-0.77012336,-0.7797826,-0.7806114,-0.77493703,-0.7664892,-0.7580095,-0.7519525,-0.74713886,-0.7414645,-0.734228,-0.7241225,-0.71325195,-0.70598364,-0.6991297,-0.69269025,-0.68542194,-0.678568,-0.6725111,-0.66645414,-0.66122603,-0.65437216,-0.6463069,-0.63782716,-0.6273391,-0.61484265,-0.6039401,-0.5934521,-0.5862157,-0.576939,-0.56402814,-0.5478976,-0.5325639,-0.5200676,-0.5079537,-0.49383146,-0.4748956,-0.4531225,-0.43173194,-0.41158462,-0.39261693,-0.37205517,-0.35066468,-0.3296885,-0.30912685,-0.2897765,-0.27402842,-0.26194644,-0.25308418,-0.2462303,-0.2413848,-0.24176729,-0.2506615,-0.26959735,-0.29742736,-0.3341515,-0.38012046,-0.43214637,-0.48780638,-0.5414262,-0.5886384,-0.633396,-0.6741369,-0.7156747,-0.75316393,-0.7842137,-0.80923843,-0.82779175,-0.8394912,-0.847939,-0.8527846,-0.8556218,-0.8584271,-0.85963845,-0.8584271,-0.85358155,-0.84956485,-0.847939,-0.8487679,-0.8471421,-0.84229654,-0.83544266,-0.82900316,-0.8273773,-0.8265804,-0.824572,-0.8213204,-0.8173037,-0.8128726,-0.8076126,-0.80276704,-0.7995473,-0.7971245,-0.79591316,-0.7951162,-0.7910995,-0.78867674,-0.7878479,-0.78826225,-0.78867674,-0.7890593,-0.79068506,-0.79068506,-0.7910995,-0.78867674,-0.7862539,-0.7854251,-0.7850425,-0.7866365,-0.7862539,-0.78341675,-0.78220534,-0.78341675,-0.7866365,-0.78988814,-0.78826225,-0.78341675,-0.780197,-0.7789856,-0.78099394,-0.7838312,-0.7842137,-0.7826198,-0.780197,-0.7785712,-0.7773598,-0.77493703,-0.77414006,-0.7745545,-0.7737575,-0.7729287,-0.7721317,-0.77133477,-0.77133477,-0.7705059,-0.76770055,-0.7644808,-0.7608467,-0.76164365,-0.7632695,-0.76406646,-0.7648634,-0.7644808,-0.7632695,-0.7612292,-0.7572125,-0.75437534,-0.7527814,-0.7527814,-0.7552042,-0.7552042,-0.75437534,-0.75316393,-0.7527814,-0.7519525,-0.7495298,-0.74713886,-0.7430903,-0.7414645,-0.7390417,-0.73461056,-0.7305939,-0.7269597,-0.7253339,-0.72374,-0.72052026,-0.71526027,-0.71124357,-0.70961773,-0.70961773,-0.7035608,-0.68500745,-0.6580063,-0.632599,-0.61885935,-0.6208996,-0.6358188,-0.6527463,-0.6648602,-0.6680799,-0.66565716,-0.6648602,-0.6720966,-0.6918614,-0.7172686,-0.73865914,-0.7519525,-0.75478977,-0.7527814,-0.7499442,-0.74631,-0.7443017,-0.7430903,-0.7447161,-0.7459275,-0.7455131,-0.7443017,-0.74229336,-0.7430903,-0.7455131,-0.75236696,-0.75759506,-0.73339915,-0.64468104,-0.46035892,-0.17443967,0.16516316,0.47852993,0.69026744,0.7547898,0.68583643,0.5224904,0.2942077,0.013102174,-0.30348432,-0.6120055,-0.8527846,-0.971373,-0.9681214,-0.8911027,-0.80397844,-0.74831843,-0.73260224,-0.74509865,-0.7620581,-0.7721317,-0.7733431,-0.7684976,-0.76285505,-0.7584239,-0.75236696,-0.74229336,-0.73301667,-0.7253339,-0.7196914,-0.7136345,-0.70678055,-0.6979183,-0.69065,-0.6837961,-0.6769422,-0.6692914,-0.6600146,-0.6511524,-0.6410469,-0.6321846,-0.6257132,-0.6208996,-0.61726546,-0.61079407,-0.5990946,-0.5862157,-0.5741018,-0.5628168,-0.55274314,-0.5390035,-0.5232873,-0.5087825,-0.49625427,-0.48254645,-0.4631961,-0.44100863,-0.4188211,-0.3982594,-0.38012046,-0.36194968,-0.3422168,-0.32324904,-0.30632156,-0.29019094,-0.2772801,-0.26637757,-0.25993812,-0.25993812,-0.26357228,-0.27364594,-0.29299617,-0.32203764,-0.36194968,-0.40753603,-0.45513082,-0.5059453,-0.55717427,-0.6071918,-0.65233195,-0.69065,-0.7221142,-0.7519525,-0.7797826,-0.8043929,-0.8213204,-0.8314259,-0.836654,-0.84028816,-0.8443049,-0.847939,-0.8491504,-0.8475565,-0.84551626,-0.84108514,-0.836654,-0.83423126,-0.8326373,-0.8326373,-0.83180845,-0.8273773,-0.8213204,-0.8156779,-0.81245816,-0.8076126,-0.80197006,-0.79470176,-0.78826225,-0.7854251,-0.7838312,-0.7818228,-0.7785712,-0.7757659,-0.7777742,-0.780197,-0.78140837,-0.7806114,-0.7769773,-0.7757659,-0.7745545,-0.7745545,-0.7745545,-0.7737575,-0.7745545,-0.7753514,-0.77493703,-0.7729287,-0.77012336,-0.769709,-0.77092034,-0.7721317,-0.7721317,-0.7705059,-0.769709,-0.7680831,-0.7664892,-0.7660748,-0.7660748,-0.76687175,-0.7680831,-0.7660748,-0.76406646,-0.7624406,-0.76566035,-0.7684976,-0.7684976,-0.7660748,-0.76285505,-0.7620581,-0.7608467,-0.7608467,-0.75922084,-0.75679815,-0.7580095,-0.75922084,-0.75759506,-0.75437534,-0.7519525,-0.7519525,-0.7519525,-0.7511556,-0.7495298,-0.7487328,-0.7507412,-0.7527814,-0.75236696,-0.7479359,-0.7430903,-0.7414645,-0.74229336,-0.7430903,-0.7414645,-0.73865914,-0.7374478,-0.7362364,-0.73461056,-0.7297969,-0.7225286,-0.7156747,-0.70920336,-0.70397526,-0.701138,-0.69871527,-0.6979183,-0.6939016,-0.68220216,-0.6632344,-0.6402499,-0.6249163,-0.6208996,-0.6277535,-0.64066434,-0.65233195,-0.65838885,-0.65838885,-0.65638053,-0.65838885,-0.6688769,-0.6882272,-0.7104147,-0.72654533,-0.734228,-0.73339915,-0.73097646,-0.7277567,-0.7249514,-0.7221142,-0.72052026,-0.7209028,-0.7225286,-0.7225286,-0.7225286,-0.7221142,-0.72332555,-0.7257483,-0.7273742,-0.7156747,-0.6603972,-0.5329784,-0.31196398,-0.018362045,0.28371966,0.52048206,0.628168,0.6035577,0.48133504,0.29742754,0.0695591,-0.19822115,-0.48538363,-0.7402531,-0.9064363,-0.9524053,-0.9028021,-0.8173037,-0.74831843,-0.71848,-0.7221142,-0.7394561,-0.75316393,-0.7572125,-0.7552042,-0.7507412,-0.74509865,-0.73582196,-0.72374,-0.71283746,-0.70477223,-0.701138,-0.6991297,-0.6962925,-0.6918614,-0.6866333,-0.6805763,-0.67171407,-0.6608116,-0.650738,-0.64388406,-0.64305526,-0.64388406,-0.6398355,-0.63138765,-0.6196882,-0.6067774,-0.59428096,-0.58296406,-0.57330483,-0.5644107,-0.5575568,-0.54990596,-0.5377921,-0.5220759,-0.50431955,-0.48538363,-0.46721286,-0.44948828,-0.43294334,-0.4156013,-0.397048,-0.37607187,-0.35471326,-0.3373713,-0.32366347,-0.3139724,-0.30348432,-0.29098785,-0.27970284,-0.2720201,-0.2732315,-0.28292263,-0.30026454,-0.32608622,-0.35834742,-0.39784497,-0.4438458,-0.49303448,-0.54104364,-0.58580124,-0.6277535,-0.66607153,-0.7019669,-0.73582196,-0.76406646,-0.7878479,-0.80318147,-0.8120437,-0.8173037,-0.8209379,-0.8257834,-0.83101153,-0.8326373,-0.83180845,-0.8298001,-0.8293857,-0.8314259,-0.8285887,-0.82173485,-0.81408393,-0.808824,-0.808824,-0.81124675,-0.8108323,-0.80518985,-0.797539,-0.792279,-0.7890593,-0.7862539,-0.7818228,-0.77818865,-0.77414006,-0.7717173,-0.7717173,-0.77133477,-0.77092034,-0.77012336,-0.76891196,-0.769709,-0.77092034,-0.7721317,-0.77133477,-0.76770055,-0.7624406,-0.75880647,-0.7580095,-0.7584239,-0.75759506,-0.7572125,-0.7580095,-0.7612292,-0.763652,-0.763652,-0.75963527,-0.75437534,-0.7507412,-0.7511556,-0.7519525,-0.75157,-0.74831843,-0.74631,-0.74631,-0.7467245,-0.74831843,-0.75157,-0.7519525,-0.7511556,-0.74831843,-0.7455131,-0.7438873,-0.74509865,-0.74631,-0.74509865,-0.74350476,-0.73987055,-0.7374478,-0.73461056,-0.7305939,-0.7293825,-0.7321878,-0.7374478,-0.7390417,-0.7366508,-0.7305939,-0.72374,-0.72332555,-0.7261628,-0.7269597,-0.7269597,-0.7257483,-0.7249514,-0.72453696,-0.7221142,-0.7168861,-0.71283746,-0.7100322,-0.70799196,-0.7051866,-0.6999267,-0.6971214,-0.6967069,-0.6898531,-0.6720966,-0.645478,-0.6200707,-0.6092001,-0.61404574,-0.6277535,-0.6410469,-0.6487296,-0.6511524,-0.6511524,-0.6527463,-0.65960026,-0.673308,-0.6918614,-0.70920336,-0.72052026,-0.7253339,-0.72453696,-0.72332555,-0.7209028,-0.7176831,-0.71930885,-0.7221142,-0.7257483,-0.72858554,-0.7273742,-0.7241225,-0.7216997,-0.7229111,-0.73139083,-0.7382448,-0.71605724,-0.62692463,-0.45149666,-0.19015586,0.10666597,0.36963248,0.53740966,0.5757276,0.5063598,0.36319292,0.1703912,-0.059485435,-0.32525736,-0.5918582,-0.808027,-0.9257866,-0.9342663,-0.8721349,-0.79189646,-0.7362364,-0.7188945,-0.7261628,-0.7443017,-0.7552042,-0.75437534,-0.7479359,-0.7414645,-0.73865914,-0.73703337,-0.73260224,-0.72453696,-0.7156747,-0.7088208,-0.7019669,-0.6962925,-0.6946986,-0.6910644,-0.6866333,-0.678568,-0.66645414,-0.6551691,-0.6471038,-0.6434697,-0.6414613,-0.6374127,-0.6309732,-0.62332237,-0.616851,-0.6092001,-0.5999235,-0.58902097,-0.5773215,-0.5680449,-0.55918264,-0.5466862,-0.53014123,-0.51279926,-0.49666864,-0.48053807,-0.4631961,-0.44343138,-0.42245525,-0.40833306,-0.3954541,-0.38133186,-0.3664127,-0.34824187,-0.33211136,-0.3204118,-0.31075257,-0.30590707,-0.30670404,-0.31476933,-0.32889158,-0.35066468,-0.3789091,-0.41438997,-0.45513082,-0.49666864,-0.5369951,-0.5793618,-0.6216966,-0.66364884,-0.70556915,-0.73865914,-0.7652778,-0.7870509,-0.8043929,-0.81650674,-0.824572,-0.82900316,-0.8314259,-0.83423126,-0.8350601,-0.83544266,-0.83423126,-0.83301985,-0.8314259,-0.8298001,-0.8265804,-0.8221493,-0.81771815,-0.8160923,-0.8128726,-0.80723006,-0.80318147,-0.79996175,-0.79996175,-0.8011731,-0.79996175,-0.7963276,-0.7934904,-0.7890593,-0.7842137,-0.7765628,-0.76891196,-0.7652778,-0.7680831,-0.7729287,-0.7745545,-0.7725461,-0.77012336,-0.77133477,-0.77414006,-0.7757659,-0.77493703,-0.7721317,-0.7705059,-0.769709,-0.7684976,-0.7644808,-0.75963527,-0.7572125,-0.7580095,-0.75922084,-0.7620581,-0.7660748,-0.76891196,-0.77012336,-0.7680831,-0.76406646,-0.75922084,-0.7584239,-0.7580095,-0.75641555,-0.7552042,-0.75316393,-0.7511556,-0.75357836,-0.7539928,-0.75357836,-0.75236696,-0.75157,-0.7511556,-0.75236696,-0.7527814,-0.7519525,-0.7511556,-0.7495298,-0.7459275,-0.7418789,-0.7382448,-0.7378622,-0.7394561,-0.7406675,-0.7394561,-0.7362364,-0.73461056,-0.734228,-0.73339915,-0.73381364,-0.73139083,-0.7293825,-0.7293825,-0.7305939,-0.7301794,-0.7269597,-0.7225286,-0.71526027,-0.70961773,-0.707195,-0.70477223,-0.70435774,-0.7035608,-0.7003411,-0.6950811,-0.6805763,-0.6600146,-0.6390385,-0.62692463,-0.6277535,-0.6402499,-0.65638053,-0.66607153,-0.66565716,-0.66122603,-0.6600146,-0.6680799,-0.6846249,-0.70598364,-0.72453696,-0.7362364,-0.74350476,-0.7418789,-0.7354394,-0.7269597,-0.7216997,-0.7216997,-0.7261628,-0.7305939,-0.73260224,-0.73339915,-0.734228,-0.73339915,-0.73301667,-0.7382448,-0.73461056,-0.6983328,-0.5938666,-0.39867383,-0.1308617,0.14982939,0.3740636,0.48822093,0.48337543,0.39182007,0.24339318,0.052217245,-0.17887086,-0.43979722,-0.68784463,-0.8664924,-0.938283,-0.9120788,-0.8378654,-0.769709,-0.73381364,-0.73180526,-0.7438873,-0.75558674,-0.7608467,-0.7600179,-0.75641555,-0.75157,-0.74108195,-0.7301794,-0.7221142,-0.7172686,-0.71526027,-0.712455,-0.70477223,-0.69591,-0.6882272,-0.68500745,-0.68299913,-0.68016195,-0.6761452,-0.6712997,-0.6640314,-0.6555835,-0.6475183,-0.6386241,-0.633396,-0.62934744,-0.62211096,-0.61241984,-0.5999235,-0.58902097,-0.5793618,-0.57129645,-0.56240237,-0.55191433,-0.53983235,-0.5261245,-0.50836813,-0.48818898,-0.46721286,-0.44827694,-0.4313494,-0.41438997,-0.39746243,-0.37970603,-0.36478686,-0.35149348,-0.33979404,-0.33211136,-0.32847714,-0.329306,-0.33211136,-0.3381682,-0.34703046,-0.36277854,-0.3897797,-0.4273008,-0.4696356,-0.51321363,-0.5563454,-0.5975007,-0.6362014,-0.67171407,-0.70397526,-0.7305939,-0.7527814,-0.7705059,-0.78341675,-0.7951162,-0.8056043,-0.81529534,-0.8221493,-0.8257834,-0.82779175,-0.8285887,-0.8285887,-0.8265804,-0.8229462,-0.81931204,-0.81529534,-0.81325513,-0.80844146,-0.8035959,-0.79996175,-0.79996175,-0.80197006,-0.8023845,-0.79996175,-0.7939048,-0.7878479,-0.78341675,-0.7806114,-0.7785712,-0.7777742,-0.77940005,-0.7842137,-0.7862539,-0.7826198,-0.7765628,-0.7664892,-0.76164365,-0.76285505,-0.76566035,-0.769709,-0.7721317,-0.7737575,-0.77012336,-0.7660748,-0.7612292,-0.7584239,-0.76043224,-0.76406646,-0.7664892,-0.76566035,-0.7644808,-0.76566035,-0.763652,-0.75880647,-0.75437534,-0.7511556,-0.75357836,-0.75963527,-0.76285505,-0.7612292,-0.7572125,-0.75357836,-0.7487328,-0.7443017,-0.74350476,-0.7447161,-0.7507412,-0.75316393,-0.75157,-0.74509865,-0.73703337,-0.73502505,-0.73582196,-0.73582196,-0.73381364,-0.7301794,-0.7281711,-0.7273742,-0.72654533,-0.7269597,-0.7269597,-0.7281711,-0.7293825,-0.7281711,-0.7269597,-0.72654533,-0.7281711,-0.72654533,-0.7229111,-0.7164717,-0.7104147,-0.70961773,-0.71283746,-0.7148459,-0.71283746,-0.70477223,-0.6967069,-0.6910644,-0.6882272,-0.68864167,-0.6817877,-0.66607153,-0.64468104,-0.6253307,-0.617648,-0.6257132,-0.6434697,-0.65638053,-0.6616086,-0.6588032,-0.6555835,-0.66122603,-0.6773566,-0.6962925,-0.71204054,-0.72052026,-0.72374,-0.7253339,-0.7273742,-0.72858554,-0.72858554,-0.7293825,-0.7305939,-0.7301794,-0.73097646,-0.7281711,-0.72858554,-0.73097646,-0.73703337,-0.74713886,-0.7539928,-0.74509865,-0.68743026,-0.55797124,-0.3494532,-0.09012079,0.15952063,0.34865642,0.43536627,0.41643035,0.32245207,0.17201698,-0.01673621,-0.24176729,-0.48940033,-0.7172686,-0.8778093,-0.9350633,-0.90117633,-0.825369,-0.75922084,-0.7289681,-0.7293825,-0.7430903,-0.7560011,-0.7608467,-0.75880647,-0.7539928,-0.7459275,-0.73461056,-0.7241225,-0.7164717,-0.71124357,-0.71082914,-0.7116261,-0.70961773,-0.70435774,-0.6946986,-0.6837961,-0.6745194,-0.6688769,-0.6676655,-0.6652428,-0.6600146,-0.650738,-0.6390385,-0.6321846,-0.6297618,-0.6297618,-0.6261277,-0.61484265,-0.5979152,-0.58095574,-0.56724787,-0.55717427,-0.5507029,-0.543849,-0.5345723,-0.5220759,-0.5063598,-0.4861806,-0.46603334,-0.44827694,-0.43214637,-0.41722715,-0.40351933,-0.3909911,-0.3776977,-0.36156714,-0.34824187,-0.33654243,-0.33332264,-0.33695686,-0.34301376,-0.3486563,-0.3599413,-0.38133186,-0.41400743,-0.45471638,-0.49504286,-0.5305556,-0.56523955,-0.6007204,-0.6382415,-0.6761452,-0.71124357,-0.7406675,-0.763652,-0.780197,-0.792279,-0.797539,-0.79996175,-0.8011731,-0.80197006,-0.808824,-0.81529534,-0.82173485,-0.820109,-0.81245816,-0.80397844,-0.79674196,-0.79591316,-0.797539,-0.7963276,-0.79269344,-0.78867674,-0.7866365,-0.7862539,-0.7862539,-0.7866365,-0.78462815,-0.7830023,-0.7773598,-0.76770055,-0.75880647,-0.75236696,-0.75357836,-0.75922084,-0.76406646,-0.7672862,-0.76687175,-0.763652,-0.75880647,-0.75357836,-0.7511556,-0.75236696,-0.7584239,-0.76285505,-0.7620581,-0.7580095,-0.75357836,-0.75357836,-0.7552042,-0.7560011,-0.75478977,-0.7519525,-0.7507412,-0.75236696,-0.7539928,-0.75316393,-0.75357836,-0.75437534,-0.75558674,-0.75679815,-0.75679815,-0.7552042,-0.75558674,-0.75679815,-0.75679815,-0.75641555,-0.7539928,-0.75236696,-0.75035864,-0.7499442,-0.75157,-0.75157,-0.7507412,-0.74631,-0.74108195,-0.7390417,-0.7426759,-0.7455131,-0.74229336,-0.73381364,-0.72654533,-0.72374,-0.72858554,-0.734228,-0.73502505,-0.73139083,-0.7273742,-0.72654533,-0.7269597,-0.7281711,-0.7301794,-0.7301794,-0.73139083,-0.73097646,-0.7297969,-0.7301794,-0.73260224,-0.73502505,-0.73461056,-0.7277567,-0.7196914,-0.71283746,-0.71446335,-0.7196914,-0.7229111,-0.7229111,-0.7196914,-0.7164717,-0.712455,-0.7076094,-0.701138,-0.6946986,-0.69269025,-0.6918614,-0.6918614,-0.6918614,-0.6930728,-0.69549555,-0.69549555,-0.68099076,-0.6555835,-0.6277535,-0.61241984,-0.61363125,-0.6257132,-0.64305526,-0.6535433,-0.6588032,-0.6603972,-0.6603972,-0.66444576,-0.6745194,-0.69147885,-0.7088208,-0.7188945,-0.72131723,-0.7168861,-0.71446335,-0.71404886,-0.7156747,-0.71848,-0.7176831,-0.7164717,-0.71605724,-0.7168861,-0.71848,-0.7188945,-0.7196914,-0.7216997,-0.7241225,-0.7035608,-0.6297618,-0.4777009,-0.250247,0.010679364,0.23896217,0.38455164,0.41681278,0.35755062,0.23896217,0.0784533,-0.11473107,-0.3422168,-0.5781504,-0.7733431,-0.8846632,-0.8971596,-0.8463451,-0.78099394,-0.7382448,-0.7269597,-0.73461056,-0.74713886,-0.7539928,-0.7539928,-0.74914724,-0.7426759,-0.73703337,-0.7301794,-0.7225286,-0.71605724,-0.7116261,-0.70961773,-0.70598364,-0.6983328,-0.6894386,-0.68137336,-0.6765596,-0.6720966,-0.66565716,-0.6580063,-0.65316075,-0.65032357,-0.6487296,-0.6442666,-0.6374127,-0.62855047,-0.6208996,-0.6120055,-0.6027288,-0.5938666,-0.58458984,-0.57572764,-0.5668335,-0.55513406,-0.5430521,-0.5325639,-0.5228729,-0.50916505,-0.4902292,-0.4684242,-0.44626862,-0.42930913,-0.41518694,-0.40189356,-0.38738883,-0.37205517,-0.36035573,-0.35107905,-0.34502214,-0.34138793,-0.340591,-0.3434282,-0.35107905,-0.36478686,-0.3889827,-0.4200325,-0.4583506,-0.4974656,-0.5345723,-0.5696707,-0.60636294,-0.64468104,-0.68016195,-0.71204054,-0.73703337,-0.75558674,-0.7717173,-0.7854251,-0.7951162,-0.8023845,-0.80723006,-0.8108323,-0.809621,-0.80723006,-0.8060187,-0.80640125,-0.808027,-0.80723006,-0.80197006,-0.7963276,-0.79148203,-0.79068506,-0.78867674,-0.78462815,-0.780197,-0.7769773,-0.77493703,-0.7725461,-0.77012336,-0.7664892,-0.763652,-0.7624406,-0.7600179,-0.75558674,-0.75157,-0.7495298,-0.75157,-0.7539928,-0.7552042,-0.75357836,-0.7475214,-0.74350476,-0.7430903,-0.7455131,-0.75035864,-0.7527814,-0.7519525,-0.74831843,-0.7430903,-0.7406675,-0.7426759,-0.7467245,-0.7507412,-0.75035864,-0.7487328,-0.7459275,-0.7438873,-0.7418789,-0.7402531,-0.7390417,-0.7378622,-0.7406675,-0.7418789,-0.7414645,-0.74108195,-0.73865914,-0.7362364,-0.73301667,-0.7293825,-0.7273742,-0.72654533,-0.72858554,-0.7305939,-0.73097646,-0.7305939,-0.7301794,-0.73097646,-0.7305939,-0.7289681,-0.72654533,-0.72453696,-0.7253339,-0.72654533,-0.7269597,-0.7281711,-0.7293825,-0.73097646,-0.7301794,-0.7257483,-0.72052026,-0.71809745,-0.7196914,-0.72131723,-0.7188945,-0.7136345,-0.70961773,-0.71082914,-0.7136345,-0.71605724,-0.71605724,-0.71526027,-0.71526027,-0.71526027,-0.7136345,-0.70920336,-0.70435774,-0.7023494,-0.701138,-0.70276386,-0.70598364,-0.70920336,-0.71404886,-0.71526027,-0.71325195,-0.70920336,-0.706398,-0.70799196,-0.70961773,-0.7104147,-0.7104147,-0.7088208,-0.7084064,-0.70799196,-0.7051866,-0.70276386,-0.7007555,-0.69954413,-0.6991297,-0.6979183,-0.6962925,-0.6971214,-0.6991297,-0.69954413,-0.6962925,-0.69026744,-0.68421054,-0.6825847,-0.68299913,-0.6834135,-0.6837961,-0.6825847,-0.68099076,-0.67372245,-0.65596604,-0.632599,-0.6116229,-0.6027288,-0.60757434,-0.6200707,-0.63460743,-0.64305526,-0.6466894,-0.6463069,-0.6442666,-0.6487296,-0.66122603,-0.68137336,-0.7015525,-0.7136345,-0.71605724,-0.71283746,-0.70961773,-0.70598364,-0.70477223,-0.7051866,-0.70598364,-0.7084064,-0.71082914,-0.71082914,-0.7100322,-0.70961773,-0.712455,-0.71848,-0.71809745,-0.68743026,-0.5922407,-0.4184386,-0.17686248,0.08288443,0.29985023,0.4240812,0.4373746,0.36561584,0.23331964,0.05868852,-0.14903241,-0.38856834,-0.62211096,-0.80318147,-0.89393985,-0.88909435,-0.8281743,-0.7612292,-0.7201058,-0.71124357,-0.7221142,-0.7382448,-0.7467245,-0.74631,-0.7406675,-0.73180526,-0.7257483,-0.7196914,-0.7136345,-0.70920336,-0.70556915,-0.7031783,-0.69871527,-0.6918614,-0.6837961,-0.679365,-0.679365,-0.6773566,-0.6700883,-0.65960026,-0.6487296,-0.6422583,-0.6398355,-0.63782716,-0.632599,-0.6245338,-0.6156396,-0.6059804,-0.5962893,-0.58822405,-0.57974434,-0.5728904,-0.5636138,-0.5503204,-0.53540117,-0.5216615,-0.51158786,-0.5010998,-0.48659503,-0.46804172,-0.44827694,-0.43093497,-0.41639835,-0.40189356,-0.385763,-0.36963242,-0.3563072,-0.34502214,-0.3381682,-0.33533102,-0.33615983,-0.3422168,-0.35066468,-0.36277854,-0.38133186,-0.40916187,-0.4458542,-0.4861806,-0.5257101,-0.5628168,-0.5999235,-0.6386241,-0.6765596,-0.7104147,-0.7378622,-0.7584239,-0.77493703,-0.7878479,-0.7971245,-0.80518985,-0.81245816,-0.81931204,-0.8229462,-0.8241576,-0.8225318,-0.8173037,-0.81325513,-0.80844146,-0.8035959,-0.8007587,-0.8003762,-0.8003762,-0.79674196,-0.7910995,-0.7854251,-0.78220534,-0.7830023,-0.7838312,-0.78220534,-0.7773598,-0.7733431,-0.77133477,-0.7721317,-0.7725461,-0.7729287,-0.7721317,-0.77012336,-0.7664892,-0.7612292,-0.7560011,-0.7539928,-0.75679815,-0.7608467,-0.763652,-0.76406646,-0.7612292,-0.75679815,-0.75316393,-0.7507412,-0.75035864,-0.7519525,-0.7560011,-0.7580095,-0.75679815,-0.7552042,-0.75236696,-0.75035864,-0.74914724,-0.7479359,-0.74713886,-0.74713886,-0.7495298,-0.7499442,-0.7487328,-0.74713886,-0.7459275,-0.7479359,-0.7499442,-0.7511556,-0.7507412,-0.7487328,-0.7479359,-0.74509865,-0.7426759,-0.7402531,-0.7394561,-0.7418789,-0.7426759,-0.7414645,-0.73865914,-0.7362364,-0.7354394,-0.73502505,-0.73461056,-0.7321878,-0.7301794,-0.7289681,-0.7301794,-0.7305939,-0.73097646,-0.73097646,-0.73097646,-0.7293825,-0.7273742,-0.7261628,-0.72654533,-0.7293825,-0.7301794,-0.7281711,-0.7241225,-0.72131723,-0.72131723,-0.7216997,-0.72131723,-0.71930885,-0.7172686,-0.7164717,-0.7164717,-0.7164717,-0.71526027,-0.7136345,-0.71325195,-0.71283746,-0.71283746,-0.71325195,-0.7148459,-0.71809745,-0.71930885,-0.7164717,-0.71082914,-0.70435774,-0.7007555,-0.701138,-0.70276386,-0.7051866,-0.706398,-0.70678055,-0.70598364,-0.7035608,-0.7007555,-0.6983328,-0.6979183,-0.69591,-0.6942842,-0.6942842,-0.6971214,-0.70276386,-0.7076094,-0.707195,-0.7015525,-0.69348717,-0.68701583,-0.6846249,-0.6837961,-0.68421054,-0.6834135,-0.68299913,-0.68099076,-0.678568,-0.6753483,-0.66607153,-0.649941,-0.62813604,-0.60999715,-0.60234624,-0.6083713,-0.6245338,-0.6398355,-0.645478,-0.6442666,-0.63945293,-0.6410469,-0.6515349,-0.6692914,-0.69026744,-0.706398,-0.71605724,-0.7176831,-0.7148459,-0.7100322,-0.7076094,-0.7076094,-0.7076094,-0.7076094,-0.7076094,-0.7076094,-0.7088208,-0.7088208,-0.7088208,-0.7100322,-0.7164717,-0.7216997,-0.69591,-0.60234624,-0.42086136,-0.16433418,0.11351979,0.3522905,0.5019287,0.5345725,0.4704646,0.33131444,0.1425612,-0.08046156,-0.3296885,-0.5745162,-0.7729287,-0.88141155,-0.88788295,-0.8285887,-0.7584239,-0.7176831,-0.7116261,-0.7253339,-0.7402531,-0.7479359,-0.74831843,-0.7430903,-0.7354394,-0.7289681,-0.72332555,-0.72131723,-0.71930885,-0.71283746,-0.70477223,-0.6962925,-0.69147885,-0.6882272,-0.6846249,-0.678568,-0.6712997,-0.6648602,-0.65960026,-0.6539577,-0.6471038,-0.6386241,-0.6301763,-0.62211096,-0.61484265,-0.60878575,-0.60636294,-0.6039401,-0.5979152,-0.5865982,-0.5704676,-0.5535401,-0.54104364,-0.5305556,-0.51885617,-0.5047339,-0.48697758,-0.46883863,-0.44987088,-0.43214637,-0.41518694,-0.39905638,-0.38496602,-0.36883545,-0.35028213,-0.33252567,-0.3179891,-0.30912685,-0.3038987,-0.30026454,-0.2986387,-0.30185854,-0.31317544,-0.3345341,-0.36236405,-0.39784497,-0.4373744,-0.4801237,-0.5224904,-0.5636138,-0.6043546,-0.64388406,-0.68220216,-0.71526027,-0.74108195,-0.76043224,-0.7765628,-0.7910995,-0.80197006,-0.80923843,-0.81366956,-0.8156779,-0.81851506,-0.8188976,-0.81771815,-0.81529534,-0.81245816,-0.8116612,-0.808824,-0.80318147,-0.797539,-0.79310787,-0.79148203,-0.79068506,-0.78826225,-0.7838312,-0.7789856,-0.77614844,-0.7729287,-0.76891196,-0.7648634,-0.76164365,-0.7608467,-0.76043224,-0.75922084,-0.7580095,-0.7572125,-0.7584239,-0.75880647,-0.75759506,-0.7560011,-0.75357836,-0.7539928,-0.75437534,-0.7552042,-0.75478977,-0.75478977,-0.75558674,-0.75558674,-0.75437534,-0.7539928,-0.75437534,-0.7560011,-0.75641555,-0.75478977,-0.7527814,-0.7519525,-0.75316393,-0.75357836,-0.75157,-0.74914724,-0.7475214,-0.74713886,-0.74831843,-0.7475214,-0.7479359,-0.7487328,-0.7495298,-0.7507412,-0.75035864,-0.7487328,-0.74631,-0.74631,-0.74509865,-0.7430903,-0.74108195,-0.7390417,-0.7394561,-0.7394561,-0.7382448,-0.7366508,-0.73502505,-0.73582196,-0.7366508,-0.73582196,-0.73339915,-0.73180526,-0.73097646,-0.7297969,-0.72858554,-0.7277567,-0.7281711,-0.73097646,-0.73139083,-0.7297969,-0.7249514,-0.72052026,-0.71930885,-0.71848,-0.71809745,-0.7172686,-0.7168861,-0.71930885,-0.7216997,-0.72332555,-0.72332555,-0.72131723,-0.7188945,-0.71526027,-0.71124357,-0.70556915,-0.70435774,-0.706398,-0.70799196,-0.70961773,-0.70961773,-0.7088208,-0.7100322,-0.71124357,-0.7104147,-0.707195,-0.7031783,-0.7019669,-0.7023494,-0.7019669,-0.7007555,-0.69871527,-0.6991297,-0.69954413,-0.6983328,-0.6942842,-0.68784463,-0.6825847,-0.678568,-0.6757308,-0.6725111,-0.6680799,-0.66607153,-0.66645414,-0.66565716,-0.66364884,-0.6539577,-0.63540435,-0.6104115,-0.5886384,-0.57894737,-0.58458984,-0.6019318,-0.61885935,-0.6265421,-0.6257132,-0.62211096,-0.6237049,-0.63460743,-0.65316075,-0.67493385,-0.6946986,-0.7088208,-0.7148459,-0.71283746,-0.707195,-0.701138,-0.6999267,-0.7015525,-0.70276386,-0.7051866,-0.706398,-0.707195,-0.7076094,-0.7076094,-0.70920336,-0.71809745,-0.72453696,-0.6950811,-0.5918582,-0.3942427,-0.11836523,0.17686248,0.42851222,0.58902097,0.63055885,0.5708821,0.42771542,0.22241712,-0.024801493,-0.30064702,-0.5648252,-0.7733431,-0.8842488,-0.89068824,-0.8326373,-0.7652778,-0.7269597,-0.7221142,-0.73461056,-0.7475214,-0.75437534,-0.7552042,-0.75157,-0.74631,-0.7394561,-0.7321878,-0.72858554,-0.7249514,-0.7209028,-0.7156747,-0.7088208,-0.70276386,-0.6962925,-0.6898531,-0.68421054,-0.67895055,-0.67493385,-0.6692914,-0.66202295,-0.6539577,-0.6463069,-0.6398355,-0.6317702,-0.62290794,-0.61363125,-0.6043546,-0.5970863,-0.58902097,-0.577736,-0.5648252,-0.5494915,-0.5366126,-0.5237017,-0.51037645,-0.49625427,-0.4797411,-0.46278167,-0.44343138,-0.42124385,-0.39947075,-0.3789091,-0.3611527,-0.3446077,-0.3268832,-0.30954123,-0.29541904,-0.28655678,-0.27928847,-0.27565426,-0.27523988,-0.27970284,-0.29341066,-0.3155982,-0.3446077,-0.38091743,-0.42366666,-0.4696356,-0.51643336,-0.5628168,-0.6083713,-0.65233195,-0.6946986,-0.7297969,-0.75558674,-0.7745545,-0.78867674,-0.79996175,-0.808824,-0.81366956,-0.8173037,-0.81931204,-0.8221493,-0.8233606,-0.8213204,-0.81851506,-0.8148809,-0.81366956,-0.81245816,-0.80923843,-0.80518985,-0.80197006,-0.8011731,-0.8007587,-0.7991648,-0.79591316,-0.79189646,-0.78988814,-0.78867674,-0.7862539,-0.7838312,-0.78220534,-0.78220534,-0.7818228,-0.7789856,-0.7745545,-0.77092034,-0.77133477,-0.7729287,-0.7737575,-0.7729287,-0.77012336,-0.7684976,-0.7672862,-0.7648634,-0.76285505,-0.76164365,-0.76164365,-0.76043224,-0.76164365,-0.7632695,-0.7652778,-0.7692945,-0.7692945,-0.7652778,-0.7612292,-0.7584239,-0.7584239,-0.75963527,-0.75922084,-0.7572125,-0.75478977,-0.75437534,-0.75357836,-0.7511556,-0.74831843,-0.7459275,-0.7455131,-0.7455131,-0.7455131,-0.7443017,-0.74350476,-0.7447161,-0.7443017,-0.74229336,-0.7390417,-0.7366508,-0.7362364,-0.73703337,-0.7366508,-0.7354394,-0.73381364,-0.73339915,-0.73301667,-0.73139083,-0.7297969,-0.72858554,-0.7289681,-0.7281711,-0.7253339,-0.7229111,-0.7221142,-0.7249514,-0.7273742,-0.7269597,-0.7241225,-0.7216997,-0.7221142,-0.72453696,-0.72453696,-0.7221142,-0.71848,-0.71809745,-0.71930885,-0.7196914,-0.7196914,-0.71809745,-0.7168861,-0.71526027,-0.712455,-0.70920336,-0.70678055,-0.70799196,-0.7104147,-0.7116261,-0.71082914,-0.70961773,-0.70961773,-0.70920336,-0.7076094,-0.70598364,-0.7035608,-0.70477223,-0.70598364,-0.7035608,-0.6979183,-0.69026744,-0.6846249,-0.6817877,-0.679365,-0.6773566,-0.6753483,-0.6753483,-0.673308,-0.6652428,-0.6471038,-0.62128216,-0.5987121,-0.58822405,-0.5926552,-0.6083713,-0.6261277,-0.6382415,-0.6398355,-0.6337786,-0.62855047,-0.632599,-0.6511524,-0.67773914,-0.7035608,-0.7209028,-0.7261628,-0.7241225,-0.7188945,-0.7136345,-0.712455,-0.71446335,-0.7188945,-0.72374,-0.7253339,-0.7249514,-0.72374,-0.72453696,-0.7261628,-0.7301794,-0.73301667,-0.707195,-0.6152571,-0.42930913,-0.1526348,0.16474867,0.45312262,0.6535753,0.7281712,0.6870477,0.5495235,0.33858263,0.081673026,-0.20912367,-0.49303448,-0.72654533,-0.86732125,-0.8995824,-0.853996,-0.7842137,-0.73703337,-0.7257483,-0.7402531,-0.75880647,-0.7692945,-0.76891196,-0.7608467,-0.7527814,-0.7447161,-0.7374478,-0.7305939,-0.7241225,-0.7201058,-0.7148459,-0.7076094,-0.69871527,-0.69026744,-0.68421054,-0.67895055,-0.6729255,-0.66565716,-0.6575919,-0.65316075,-0.6495266,-0.64388406,-0.6358188,-0.6245338,-0.61404574,-0.6035576,-0.5946635,-0.5862157,-0.5773215,-0.5676623,-0.5559629,-0.54104364,-0.5249131,-0.5079537,-0.49303448,-0.47690392,-0.4583506,-0.44021165,-0.42086136,-0.40109658,-0.38050306,-0.35793293,-0.33494848,-0.31476933,-0.2990532,-0.28451645,-0.27080876,-0.25872672,-0.24823868,-0.24297863,-0.24176729,-0.24661285,-0.25993812,-0.28330517,-0.3176065,-0.35872996,-0.40310496,-0.44987088,-0.49829447,-0.549109,-0.59829766,-0.6442666,-0.68542194,-0.72052026,-0.7527814,-0.77940005,-0.8007587,-0.8160923,-0.8265804,-0.8346457,-0.8394912,-0.84108514,-0.84108514,-0.8394912,-0.8390768,-0.8378654,-0.8338487,-0.82900316,-0.8241576,-0.8225318,-0.8229462,-0.8225318,-0.8213204,-0.8188976,-0.8173037,-0.8160923,-0.81408393,-0.8108323,-0.808027,-0.80640125,-0.80518985,-0.80276704,-0.8003762,-0.797539,-0.79674196,-0.7951162,-0.7910995,-0.7858395,-0.78140837,-0.7797826,-0.7797826,-0.77818865,-0.7757659,-0.77414006,-0.77614844,-0.7789856,-0.77940005,-0.7769773,-0.7737575,-0.7725461,-0.7721317,-0.77092034,-0.7680831,-0.7648634,-0.763652,-0.76285505,-0.7612292,-0.75963527,-0.7584239,-0.75963527,-0.76043224,-0.7600179,-0.75880647,-0.75759506,-0.7584239,-0.75759506,-0.7552042,-0.7519525,-0.7499442,-0.7511556,-0.7527814,-0.7539928,-0.7539928,-0.75236696,-0.7519525,-0.75035864,-0.74713886,-0.7443017,-0.74229336,-0.7430903,-0.74350476,-0.7426759,-0.74108195,-0.73987055,-0.74108195,-0.74229336,-0.74229336,-0.73987055,-0.7374478,-0.7374478,-0.73703337,-0.7354394,-0.73301667,-0.73097646,-0.7301794,-0.7293825,-0.7277567,-0.7261628,-0.7257483,-0.7273742,-0.7273742,-0.7257483,-0.7229111,-0.72131723,-0.7229111,-0.7241225,-0.72332555,-0.71848,-0.7156747,-0.71605724,-0.71848,-0.7216997,-0.7221142,-0.71930885,-0.7168861,-0.71404886,-0.7104147,-0.7051866,-0.69954413,-0.6950811,-0.6898531,-0.6846249,-0.679365,-0.6765596,-0.6761452,-0.67372245,-0.66243744,-0.6402499,-0.6116229,-0.58981794,-0.5813701,-0.587427,-0.60476905,-0.62332237,-0.6370302,-0.64066434,-0.6370302,-0.6358188,-0.6442666,-0.66645414,-0.6939016,-0.71446335,-0.72374,-0.7225286,-0.71848,-0.7156747,-0.7148459,-0.71605724,-0.71848,-0.7221142,-0.7241225,-0.7241225,-0.7229111,-0.7229111,-0.7257483,-0.73097646,-0.7382448,-0.73339915,-0.68220216,-0.5478976,-0.30912685,0.013102174,0.3539164,0.6402501,0.8084415,0.83384883,0.73907363,0.54869473,0.29219937,-0.0098823905,-0.33010292,-0.6192738,-0.8281743,-0.9205585,-0.9068188,-0.8378654,-0.7672862,-0.73139083,-0.73097646,-0.7495298,-0.7680831,-0.7757659,-0.7721317,-0.763652,-0.7560011,-0.74914724,-0.7418789,-0.734228,-0.7261628,-0.71930885,-0.71124357,-0.7023494,-0.69348717,-0.6858363,-0.68220216,-0.678568,-0.6712997,-0.66243744,-0.65233195,-0.64468104,-0.6390385,-0.63298154,-0.6245338,-0.6152571,-0.6067774,-0.5979152,-0.5886384,-0.57853293,-0.5680449,-0.5575568,-0.5442634,-0.5277184,-0.51037645,-0.49303448,-0.4777009,-0.46198475,-0.44301695,-0.42124385,-0.39784497,-0.37690073,-0.35551018,-0.3341515,-0.31276095,-0.29178482,-0.27485728,-0.2595237,-0.2462303,-0.23612481,-0.23006785,-0.23048228,-0.23574227,-0.2454015,-0.26114953,-0.28693932,-0.3256718,-0.37243778,-0.42366666,-0.4756925,-0.52813286,-0.58095574,-0.6309732,-0.6757308,-0.71404886,-0.74713886,-0.77818865,-0.80276704,-0.81972647,-0.83059704,-0.83827984,-0.84551626,-0.8515732,-0.85479295,-0.85358155,-0.84956485,-0.8463451,-0.84312534,-0.8386624,-0.8350601,-0.8326373,-0.8322229,-0.83101153,-0.8273773,-0.8209379,-0.8144665,-0.8108323,-0.80844146,-0.80518985,-0.79996175,-0.7955306,-0.7934904,-0.79269344,-0.79310787,-0.792279,-0.7902706,-0.7878479,-0.7842137,-0.7797826,-0.7757659,-0.77414006,-0.7753514,-0.77614844,-0.7757659,-0.77414006,-0.7729287,-0.7753514,-0.7777742,-0.7785712,-0.7765628,-0.77414006,-0.77414006,-0.77614844,-0.7777742,-0.7777742,-0.7765628,-0.7765628,-0.7753514,-0.7725461,-0.77012336,-0.7684976,-0.769709,-0.7717173,-0.7725461,-0.7705059,-0.76770055,-0.7664892,-0.7660748,-0.76566035,-0.7644808,-0.7624406,-0.76164365,-0.7600179,-0.75922084,-0.75759506,-0.75558674,-0.75437534,-0.75236696,-0.7499442,-0.7479359,-0.7475214,-0.7495298,-0.7507412,-0.7499442,-0.7467245,-0.74350476,-0.74350476,-0.7455131,-0.74713886,-0.74831843,-0.74631,-0.7443017,-0.7418789,-0.7390417,-0.7374478,-0.7366508,-0.73703337,-0.7366508,-0.73461056,-0.7321878,-0.7297969,-0.73139083,-0.73301667,-0.73381364,-0.73180526,-0.72858554,-0.7273742,-0.7273742,-0.7273742,-0.7269597,-0.72654533,-0.7277567,-0.72858554,-0.7273742,-0.7241225,-0.7201058,-0.7168861,-0.71325195,-0.707195,-0.6999267,-0.6930728,-0.68905604,-0.68743026,-0.6858363,-0.6837961,-0.67493385,-0.6575919,-0.6321846,-0.6083713,-0.5967037,-0.6019318,-0.6204852,-0.6390385,-0.64790076,-0.6458924,-0.64066434,-0.6410469,-0.6527463,-0.6757308,-0.7031783,-0.7273742,-0.7426759,-0.74631,-0.7426759,-0.7374478,-0.73381364,-0.73381364,-0.734228,-0.734228,-0.7354394,-0.7362364,-0.7390417,-0.7402531,-0.7390417,-0.7402531,-0.7479359,-0.7519525,-0.71526027,-0.59428096,-0.3639899,-0.039306343,0.31518376,0.6233225,0.8193121,0.86853266,0.78988814,0.6067774,0.3502822,0.043354988,-0.2897765,-0.59829766,-0.82900316,-0.938283,-0.9298352,-0.85683316,-0.7818228,-0.7438873,-0.7447161,-0.7644808,-0.78462815,-0.79310787,-0.79148203,-0.7826198,-0.77092034,-0.75963527,-0.7511556,-0.74713886,-0.7438873,-0.7390417,-0.73180526,-0.7225286,-0.71526027,-0.7088208,-0.7023494,-0.6946986,-0.6858363,-0.6773566,-0.6688769,-0.6600146,-0.65194935,-0.6442666,-0.6398355,-0.63460743,-0.62692463,-0.61726546,-0.6043546,-0.5918582,-0.57894737,-0.5660365,-0.5523287,-0.53740954,-0.5232873,-0.5067423,-0.48697758,-0.4656189,-0.44422835,-0.42366666,-0.40269053,-0.38012046,-0.3563072,-0.33373708,-0.3139724,-0.29541904,-0.2764513,-0.25789785,-0.2413848,-0.23048228,-0.22483975,-0.22321397,-0.22684807,-0.23733622,-0.25710088,-0.28451645,-0.3196149,-0.36236405,-0.41158462,-0.4668303,-0.5228729,-0.57652456,-0.6249163,-0.6688769,-0.70961773,-0.7443017,-0.7729287,-0.7943192,-0.80923843,-0.8225318,-0.8322229,-0.8398738,-0.8463451,-0.8491504,-0.8515732,-0.85077626,-0.8459307,-0.84028816,-0.83544266,-0.83423126,-0.8346457,-0.8338487,-0.83180845,-0.82900316,-0.82696295,-0.82495457,-0.8209379,-0.8144665,-0.80844146,-0.8060187,-0.8043929,-0.80197006,-0.797539,-0.79269344,-0.7902706,-0.79068506,-0.7910995,-0.7902706,-0.78867674,-0.7878479,-0.7866365,-0.7842137,-0.7806114,-0.7789856,-0.78099394,-0.78341675,-0.78462815,-0.78140837,-0.7773598,-0.7753514,-0.77493703,-0.7753514,-0.7757659,-0.77614844,-0.77818865,-0.7797826,-0.7797826,-0.7769773,-0.7745545,-0.77493703,-0.7769773,-0.7777742,-0.77614844,-0.7729287,-0.76891196,-0.7664892,-0.7664892,-0.76770055,-0.7672862,-0.7680831,-0.76687175,-0.76406646,-0.7624406,-0.7612292,-0.76164365,-0.7620581,-0.75963527,-0.7572125,-0.75478977,-0.75437534,-0.75357836,-0.75236696,-0.7507412,-0.7499442,-0.75316393,-0.7560011,-0.7560011,-0.75157,-0.7459275,-0.7430903,-0.74350476,-0.7459275,-0.74631,-0.74509865,-0.7426759,-0.7394561,-0.73703337,-0.73502505,-0.73381364,-0.73502505,-0.73461056,-0.73180526,-0.7269597,-0.72131723,-0.7156747,-0.71082914,-0.706398,-0.701138,-0.6967069,-0.6946986,-0.6894386,-0.6753483,-0.65316075,-0.62934744,-0.61363125,-0.61079407,-0.6196882,-0.632599,-0.64267266,-0.6483152,-0.6495266,-0.650738,-0.6567949,-0.6741369,-0.69954413,-0.72374,-0.73865914,-0.7418789,-0.7390417,-0.7374478,-0.73703337,-0.73703337,-0.7362364,-0.73582196,-0.7394561,-0.74229336,-0.7418789,-0.7378622,-0.73381364,-0.73339915,-0.7378622,-0.74509865,-0.7366508,-0.6741369,-0.5261245,-0.27163756,0.063916564,0.40795064,0.6817877,0.81650674,0.80560434,0.6789825,0.4676274,0.19500148,-0.12764186,-0.46198475,-0.7475214,-0.9241608,-0.96611303,-0.9112818,-0.8225318,-0.75558674,-0.7305939,-0.73987055,-0.7620581,-0.7785712,-0.780197,-0.7717173,-0.7600179,-0.75316393,-0.7499442,-0.7467245,-0.74229336,-0.73502505,-0.7269597,-0.7188945,-0.7104147,-0.7031783,-0.6962925,-0.6910644,-0.68621886,-0.6805763,-0.6741369,-0.66645414,-0.65838885,-0.6483152,-0.63661575,-0.6237049,-0.61241984,-0.6043546,-0.5975007,-0.59102935,-0.5837929,-0.5736874,-0.56240237,-0.5482801,-0.5305556,-0.5123848,-0.49466032,-0.47811532,-0.45997638,-0.43941468,-0.4160158,-0.3930313,-0.37447798,-0.35672158,-0.3393796,-0.32245213,-0.30268735,-0.284931,-0.26880044,-0.25388116,-0.24380755,-0.24055594,-0.24501896,-0.2566865,-0.27364594,-0.2986387,-0.33294016,-0.37607187,-0.42487806,-0.4748956,-0.5261245,-0.5773215,-0.62813604,-0.6745194,-0.71325195,-0.7443017,-0.77133477,-0.7955306,-0.8160923,-0.8314259,-0.8407026,-0.8435079,-0.8475565,-0.8511907,-0.8544104,-0.85683316,-0.8556218,-0.853199,-0.8499793,-0.8459307,-0.84149957,-0.836654,-0.8326373,-0.8281743,-0.8225318,-0.8156779,-0.81044984,-0.80923843,-0.80923843,-0.80844146,-0.8048073,-0.7983359,-0.79148203,-0.7862539,-0.78341675,-0.7806114,-0.77818865,-0.7769773,-0.7757659,-0.77414006,-0.7745545,-0.7745545,-0.7753514,-0.7737575,-0.77133477,-0.76891196,-0.7680831,-0.76891196,-0.7684976,-0.7664892,-0.76566035,-0.76566035,-0.7684976,-0.77012336,-0.7684976,-0.7664892,-0.7644808,-0.7644808,-0.76406646,-0.76285505,-0.7608467,-0.7608467,-0.7648634,-0.76891196,-0.7684976,-0.7660748,-0.7620581,-0.76164365,-0.76285505,-0.7632695,-0.7620581,-0.76043224,-0.7612292,-0.7624406,-0.7620581,-0.75963527,-0.7572125,-0.7580095,-0.75880647,-0.75679815,-0.7519525,-0.7467245,-0.74509865,-0.7447161,-0.7455131,-0.7459275,-0.74509865,-0.74631,-0.74509865,-0.74108195,-0.73502505,-0.7305939,-0.7301794,-0.73260224,-0.73502505,-0.73582196,-0.73502505,-0.73461056,-0.73339915,-0.7281711,-0.7209028,-0.71283746,-0.7088208,-0.70678055,-0.706398,-0.7076094,-0.7076094,-0.70678055,-0.69871527,-0.6797794,-0.6511524,-0.62332237,-0.6116229,-0.61484265,-0.62934744,-0.645478,-0.65596604,-0.65838885,-0.6567949,-0.6555835,-0.6608116,-0.6761452,-0.7015525,-0.7269597,-0.7426759,-0.7447161,-0.7378622,-0.7301794,-0.7249514,-0.7229111,-0.7253339,-0.72858554,-0.7321878,-0.73502505,-0.7354394,-0.73339915,-0.73180526,-0.73301667,-0.7402531,-0.74713886,-0.7297969,-0.6495266,-0.47690392,-0.20348114,0.126845,0.43778896,0.6531608,0.7237401,0.6668687,0.5184419,0.30711854,0.04861486,-0.25225538,-0.5555485,-0.8023845,-0.93748605,-0.95119387,-0.887086,-0.8056043,-0.7495298,-0.73097646,-0.7394561,-0.75759506,-0.77092034,-0.7733431,-0.7664892,-0.7560011,-0.74713886,-0.7414645,-0.7362364,-0.7305939,-0.72654533,-0.7221142,-0.71605724,-0.70799196,-0.6983328,-0.6898531,-0.68421054,-0.679365,-0.673308,-0.66565716,-0.6580063,-0.6535433,-0.6471038,-0.6386241,-0.6273391,-0.61605406,-0.60757434,-0.5999235,-0.59102935,-0.5781504,-0.5636138,-0.55153173,-0.54021484,-0.53014123,-0.51805925,-0.5015142,-0.48337525,-0.46399313,-0.44301695,-0.42245525,-0.40269053,-0.38534856,-0.36842102,-0.34907073,-0.32809454,-0.30874425,-0.2937932,-0.28371954,-0.27565426,-0.26921475,-0.26478374,-0.2671746,-0.2768656,-0.2942077,-0.32002926,-0.35429877,-0.39867383,-0.4478625,-0.49950588,-0.54990596,-0.5979152,-0.6434697,-0.68299913,-0.71605724,-0.74350476,-0.76687175,-0.79068506,-0.81003535,-0.8233606,-0.83180845,-0.8346457,-0.83585703,-0.837451,-0.83706844,-0.8346457,-0.8322229,-0.8298001,-0.82779175,-0.82495457,-0.8221493,-0.81931204,-0.8188976,-0.81851506,-0.8160923,-0.81245816,-0.8068156,-0.80318147,-0.79996175,-0.7963276,-0.79189646,-0.78867674,-0.7878479,-0.78746533,-0.7850425,-0.780197,-0.7757659,-0.7733431,-0.7721317,-0.7725461,-0.7729287,-0.7733431,-0.77614844,-0.7789856,-0.7777742,-0.7729287,-0.76891196,-0.76770055,-0.769709,-0.7721317,-0.7717173,-0.7680831,-0.7660748,-0.7680831,-0.7733431,-0.7806114,-0.7830023,-0.7818228,-0.7757659,-0.76687175,-0.7600179,-0.7580095,-0.7600179,-0.7624406,-0.763652,-0.76285505,-0.76043224,-0.7608467,-0.7608467,-0.7612292,-0.76043224,-0.75922084,-0.7600179,-0.75880647,-0.7560011,-0.75316393,-0.7511556,-0.75357836,-0.75478977,-0.75357836,-0.7511556,-0.7487328,-0.7467245,-0.7443017,-0.7378622,-0.73180526,-0.73097646,-0.7374478,-0.74631,-0.75157,-0.75035864,-0.7467245,-0.74350476,-0.73987055,-0.7382448,-0.7354394,-0.73339915,-0.73381364,-0.73339915,-0.73180526,-0.72858554,-0.72654533,-0.7293825,-0.7281711,-0.7241225,-0.7164717,-0.707195,-0.7003411,-0.6967069,-0.6962925,-0.69954413,-0.7007555,-0.6967069,-0.679365,-0.6491122,-0.6204852,-0.6059804,-0.6112085,-0.62813604,-0.6434697,-0.6511524,-0.65032357,-0.6483152,-0.64790076,-0.6555835,-0.6720966,-0.69549555,-0.71848,-0.7366508,-0.7430903,-0.7402531,-0.73582196,-0.73260224,-0.73180526,-0.7321878,-0.73339915,-0.734228,-0.73502505,-0.73461056,-0.73180526,-0.7277567,-0.7253339,-0.7305939,-0.7390417,-0.72453696,-0.64468104,-0.47205842,-0.205872,0.11192572,0.4035194,0.6023464,0.66607165,0.60757446,0.46440768,0.26194656,0.013102174,-0.27766263,-0.5741018,-0.8168893,-0.9495999,-0.9564538,-0.8834518,-0.7963276,-0.73865914,-0.72374,-0.7354394,-0.7552042,-0.769709,-0.77493703,-0.77133477,-0.7620581,-0.75157,-0.7426759,-0.7354394,-0.7305939,-0.7253339,-0.71930885,-0.712455,-0.70678055,-0.701138,-0.69591,-0.68905604,-0.68220216,-0.6720966,-0.6608116,-0.6527463,-0.6463069,-0.64305526,-0.6386241,-0.6309732,-0.6204852,-0.6104115,-0.6031432,-0.59507793,-0.5853869,-0.57330483,-0.55918264,-0.5482801,-0.53740954,-0.5261245,-0.51158786,-0.49587166,-0.47932673,-0.4591475,-0.4373744,-0.4156013,-0.3954541,-0.3789091,-0.36277854,-0.34543657,-0.32726574,-0.31196398,-0.30185854,-0.294622,-0.28936207,-0.28572792,-0.28572792,-0.294622,-0.31317544,-0.3385827,-0.37205517,-0.4107558,-0.45554525,-0.50431955,-0.5535401,-0.60030603,-0.64305526,-0.68137336,-0.7164717,-0.7487328,-0.77614844,-0.79875034,-0.81650674,-0.8273773,-0.8326373,-0.8350601,-0.8386624,-0.8435079,-0.8471421,-0.8459307,-0.8398738,-0.8326373,-0.8298001,-0.8281743,-0.8273773,-0.8241576,-0.81771815,-0.8156779,-0.8156779,-0.81650674,-0.8160923,-0.81124675,-0.80518985,-0.7995473,-0.79269344,-0.7878479,-0.7850425,-0.7850425,-0.7862539,-0.7858395,-0.78140837,-0.7765628,-0.7729287,-0.77133477,-0.7733431,-0.7745545,-0.7773598,-0.7785712,-0.7769773,-0.7721317,-0.76687175,-0.7648634,-0.7680831,-0.7737575,-0.7765628,-0.7745545,-0.769709,-0.7660748,-0.7660748,-0.7684976,-0.77092034,-0.77133477,-0.77012336,-0.7664892,-0.7632695,-0.76164365,-0.7624406,-0.76687175,-0.7705059,-0.7717173,-0.7684976,-0.76566035,-0.7644808,-0.7652778,-0.76566035,-0.7644808,-0.7620581,-0.75922084,-0.7572125,-0.7552042,-0.75357836,-0.7539928,-0.7552042,-0.75641555,-0.7560011,-0.75478977,-0.7527814,-0.75357836,-0.7552042,-0.7539928,-0.75157,-0.74914724,-0.7467245,-0.74509865,-0.7455131,-0.74509865,-0.7443017,-0.74509865,-0.7447161,-0.7414645,-0.7382448,-0.7382448,-0.7394561,-0.7402531,-0.7378622,-0.73180526,-0.7273742,-0.7281711,-0.7305939,-0.73139083,-0.7273742,-0.72131723,-0.7168861,-0.71325195,-0.71082914,-0.7076094,-0.70678055,-0.70920336,-0.71124357,-0.7084064,-0.6918614,-0.66686857,-0.64305526,-0.6257132,-0.62290794,-0.6309732,-0.64388406,-0.6567949,-0.66364884,-0.66364884,-0.6608116,-0.66202295,-0.67773914,-0.7003411,-0.72332555,-0.7366508,-0.73703337,-0.73139083,-0.72654533,-0.72332555,-0.7225286,-0.7229111,-0.72374,-0.7257483,-0.7269597,-0.7297969,-0.7321878,-0.7354394,-0.7362364,-0.7366508,-0.7390417,-0.7297969,-0.67773914,-0.54547477,-0.31840342,-0.021167338,0.27686572,0.5063598,0.6156398,0.6015494,0.494246,0.3184036,0.09216106,-0.17686248,-0.4644075,-0.7196914,-0.88909435,-0.9463483,-0.9112818,-0.83544266,-0.7692945,-0.73582196,-0.73180526,-0.7438873,-0.75641555,-0.76285505,-0.7620581,-0.7584239,-0.7519525,-0.7447161,-0.7366508,-0.72858554,-0.72332555,-0.7196914,-0.7168861,-0.71204054,-0.7051866,-0.6967069,-0.68621886,-0.6765596,-0.6688769,-0.6640314,-0.66282,-0.6616086,-0.6567949,-0.6483152,-0.6374127,-0.6265421,-0.6164366,-0.605566,-0.5946635,-0.5850043,-0.5773215,-0.5708821,-0.5620198,-0.5511173,-0.53862095,-0.5252956,-0.50957954,-0.4910261,-0.47005004,-0.44948828,-0.43415475,-0.4200325,-0.40351933,-0.38496602,-0.36558378,-0.34907073,-0.33615983,-0.32446045,-0.31438679,-0.30670404,-0.3038987,-0.30632156,-0.31317544,-0.32646883,-0.34703046,-0.37849468,-0.4176097,-0.4583506,-0.49867702,-0.53740954,-0.5793618,-0.62290794,-0.6680799,-0.7076094,-0.7382448,-0.76285505,-0.77940005,-0.7934904,-0.80640125,-0.81771815,-0.8293857,-0.8378654,-0.8407026,-0.8378654,-0.83301985,-0.83101153,-0.83180845,-0.83301985,-0.8322229,-0.8265804,-0.81851506,-0.81366956,-0.81245816,-0.8144665,-0.8168893,-0.8181007,-0.81245816,-0.8043929,-0.79591316,-0.7890593,-0.78746533,-0.78746533,-0.7878479,-0.7870509,-0.7866365,-0.7866365,-0.7838312,-0.77818865,-0.7729287,-0.7705059,-0.77133477,-0.7733431,-0.7717173,-0.7672862,-0.7644808,-0.7652778,-0.76687175,-0.76770055,-0.7684976,-0.76891196,-0.7721317,-0.7745545,-0.7737575,-0.76891196,-0.763652,-0.76164365,-0.76285505,-0.7644808,-0.7632695,-0.7600179,-0.7584239,-0.7608467,-0.76406646,-0.76566035,-0.7632695,-0.75880647,-0.7539928,-0.75157,-0.7499442,-0.75035864,-0.75316393,-0.7552042,-0.7539928,-0.75035864,-0.7467245,-0.7459275,-0.74713886,-0.7499442,-0.7511556,-0.7511556,-0.75157,-0.7499442,-0.7475214,-0.7438873,-0.74350476,-0.7438873,-0.7467245,-0.7487328,-0.7467245,-0.7443017,-0.7443017,-0.7430903,-0.7430903,-0.7418789,-0.7406675,-0.74108195,-0.7406675,-0.7394561,-0.7382448,-0.73703337,-0.7378622,-0.73865914,-0.7390417,-0.7390417,-0.7394561,-0.74350476,-0.7438873,-0.7382448,-0.7269597,-0.7168861,-0.71325195,-0.712455,-0.7136345,-0.7088208,-0.7019669,-0.6971214,-0.6942842,-0.68743026,-0.67171407,-0.64790076,-0.6265421,-0.61484265,-0.61885935,-0.6317702,-0.645478,-0.6555835,-0.65596604,-0.65233195,-0.649941,-0.6575919,-0.6765596,-0.7007555,-0.72131723,-0.73301667,-0.73381364,-0.73097646,-0.72654533,-0.72332555,-0.7225286,-0.7241225,-0.7293825,-0.73097646,-0.7293825,-0.7253339,-0.7229111,-0.7253339,-0.73139083,-0.7402531,-0.74350476,-0.7156747,-0.62332237,-0.44021165,-0.16917968,0.13612175,0.4047308,0.5712966,0.60435474,0.53014123,0.38416922,0.18652177,-0.05142021,-0.32525736,-0.5979152,-0.81408393,-0.9274124,-0.9310466,-0.8669068,-0.7910995,-0.74229336,-0.7301794,-0.7406675,-0.75478977,-0.7608467,-0.75963527,-0.75558674,-0.75437534,-0.75437534,-0.7507412,-0.7438873,-0.734228,-0.7273742,-0.72374,-0.7209028,-0.7156747,-0.707195,-0.69591,-0.6846249,-0.6765596,-0.67372245,-0.6729255,-0.67088526,-0.66364884,-0.65194935,-0.63782716,-0.62692463,-0.6224935,-0.6180624,-0.6104115,-0.6007204,-0.58902097,-0.57853293,-0.5688737,-0.5583856,-0.5462718,-0.5313526,-0.5148076,-0.49666864,-0.47932673,-0.4631961,-0.45028532,-0.43820328,-0.42044693,-0.39746243,-0.37164074,-0.3486563,-0.3341515,-0.32646883,-0.3208263,-0.31276095,-0.30511004,-0.30227286,-0.30511004,-0.3155982,-0.329306,-0.3494532,-0.3792916,-0.4188211,-0.46520448,-0.516019,-0.5636138,-0.6083713,-0.64790076,-0.6846249,-0.7196914,-0.7499442,-0.7757659,-0.79310787,-0.8023845,-0.8076126,-0.8144665,-0.8233606,-0.83180845,-0.83585703,-0.8338487,-0.8298001,-0.8273773,-0.82696295,-0.8273773,-0.826166,-0.8241576,-0.8221493,-0.8188976,-0.81408393,-0.80518985,-0.79674196,-0.79189646,-0.79068506,-0.7902706,-0.78867674,-0.7838312,-0.78140837,-0.77940005,-0.7789856,-0.7773598,-0.7753514,-0.7745545,-0.7725461,-0.76891196,-0.7648634,-0.7632695,-0.76566035,-0.7705059,-0.7737575,-0.7717173,-0.76687175,-0.763652,-0.7620581,-0.7612292,-0.75963527,-0.75759506,-0.7560011,-0.7580095,-0.76043224,-0.76164365,-0.7612292,-0.7620581,-0.7600179,-0.7584239,-0.7552042,-0.7507412,-0.74914724,-0.7487328,-0.74914724,-0.7495298,-0.7499442,-0.7511556,-0.75035864,-0.7495298,-0.7467245,-0.7438873,-0.7443017,-0.74509865,-0.7459275,-0.7443017,-0.7418789,-0.7414645,-0.74108195,-0.7418789,-0.74108195,-0.7394561,-0.7402531,-0.7406675,-0.7406675,-0.7374478,-0.73301667,-0.7301794,-0.7289681,-0.7289681,-0.7273742,-0.7253339,-0.7261628,-0.7281711,-0.7301794,-0.73097646,-0.72858554,-0.7269597,-0.7261628,-0.7269597,-0.72654533,-0.7249514,-0.72374,-0.7229111,-0.72453696,-0.72453696,-0.7229111,-0.7188945,-0.7116261,-0.70397526,-0.6979183,-0.6950811,-0.6939016,-0.6930728,-0.6922758,-0.6910644,-0.6882272,-0.67895055,-0.6603972,-0.6362014,-0.61605406,-0.60878575,-0.6164366,-0.632599,-0.6466894,-0.65233195,-0.65316075,-0.65437216,-0.65838885,-0.66967386,-0.68621886,-0.70397526,-0.7209028,-0.7301794,-0.7321878,-0.7277567,-0.72374,-0.7225286,-0.7241225,-0.7261628,-0.7261628,-0.7257483,-0.72654533,-0.7281711,-0.7293825,-0.7293825,-0.7301794,-0.7374478,-0.7378622,-0.69871527,-0.58175266,-0.3700468,-0.08288431,0.21677458,0.46077347,0.59549236,0.6015494,0.50878274,0.34381092,0.12968218,-0.12120247,-0.39503968,-0.65233195,-0.8390768,-0.9201441,-0.90117633,-0.8314259,-0.7660748,-0.73339915,-0.73180526,-0.74509865,-0.7560011,-0.75880647,-0.75437534,-0.74713886,-0.7406675,-0.7362364,-0.734228,-0.73097646,-0.7241225,-0.7148459,-0.706398,-0.6991297,-0.6942842,-0.69065,-0.68500745,-0.67895055,-0.673308,-0.66645414,-0.6588032,-0.6511524,-0.64509547,-0.64187574,-0.6370302,-0.6297618,-0.617648,-0.60476905,-0.59507793,-0.5862157,-0.576939,-0.5668335,-0.5559629,-0.5450604,-0.5325639,-0.51844174,-0.5010998,-0.48417228,-0.47046447,-0.4571392,-0.441423,-0.4220727,-0.40026778,-0.38050306,-0.36236405,-0.34581912,-0.33010292,-0.3155982,-0.30469573,-0.29663038,-0.29057348,-0.28776813,-0.29137045,-0.30147594,-0.32324904,-0.35149348,-0.38617742,-0.4265039,-0.47126138,-0.5172304,-0.5608084,-0.6011349,-0.63945293,-0.6773566,-0.712455,-0.74229336,-0.7644808,-0.78220534,-0.7971245,-0.8076126,-0.81408393,-0.8156779,-0.8144665,-0.8156779,-0.8168893,-0.81771815,-0.8168893,-0.8156779,-0.81650674,-0.81650674,-0.81366956,-0.8076126,-0.8007587,-0.7971245,-0.7963276,-0.79591316,-0.7943192,-0.79148203,-0.78947365,-0.7878479,-0.7862539,-0.78099394,-0.77614844,-0.7725461,-0.7692945,-0.7672862,-0.76406646,-0.75963527,-0.75922084,-0.75963527,-0.76043224,-0.76043224,-0.75922084,-0.75963527,-0.76043224,-0.7608467,-0.7600179,-0.75880647,-0.75922084,-0.75880647,-0.7580095,-0.75759506,-0.75759506,-0.7600179,-0.76164365,-0.7608467,-0.7572125,-0.75437534,-0.75437534,-0.75478977,-0.75357836,-0.7495298,-0.7459275,-0.7447161,-0.74631,-0.7487328,-0.74914724,-0.7479359,-0.7475214,-0.74631,-0.7455131,-0.7430903,-0.7414645,-0.73987055,-0.73865914,-0.7382448,-0.7366508,-0.73502505,-0.73502505,-0.734228,-0.7321878,-0.7289681,-0.72654533,-0.72654533,-0.72654533,-0.7269597,-0.7253339,-0.72374,-0.72374,-0.7249514,-0.72374,-0.72052026,-0.7172686,-0.7156747,-0.7168861,-0.71809745,-0.7176831,-0.71526027,-0.71325195,-0.7116261,-0.7104147,-0.70920336,-0.70920336,-0.7104147,-0.71283746,-0.71404886,-0.71204054,-0.71124357,-0.71082914,-0.71124357,-0.7116261,-0.70920336,-0.707195,-0.707195,-0.70799196,-0.70799196,-0.70556915,-0.701138,-0.6975039,-0.6942842,-0.68905604,-0.6834135,-0.679365,-0.6769422,-0.6757308,-0.67493385,-0.673308,-0.6692914,-0.66122603,-0.6442666,-0.6216966,-0.60151744,-0.5938666,-0.60151744,-0.616851,-0.63055885,-0.6362014,-0.63540435,-0.633396,-0.63540435,-0.64509547,-0.6616086,-0.68299913,-0.70276386,-0.71325195,-0.71446335,-0.70920336,-0.7031783,-0.7019669,-0.70276386,-0.7051866,-0.707195,-0.70920336,-0.712455,-0.71526027,-0.7172686,-0.7168861,-0.71809745,-0.7253339,-0.7277567,-0.6922758,-0.57894737,-0.36762404,-0.07803881,0.23048246,0.49102628,0.6507381,0.684625,0.6120374,0.45513093,0.23733628,-0.021581769,-0.30590707,-0.5773215,-0.78462815,-0.88909435,-0.88667154,-0.8213204,-0.7519525,-0.71404886,-0.71204054,-0.7273742,-0.7438873,-0.75316393,-0.75357836,-0.7495298,-0.7426759,-0.73461056,-0.7277567,-0.7201058,-0.71204054,-0.7031783,-0.6950811,-0.6898531,-0.68542194,-0.68099076,-0.6741369,-0.66607153,-0.65960026,-0.65316075,-0.64790076,-0.64066434,-0.632599,-0.6249163,-0.6184768,-0.6112085,-0.6031432,-0.5958749,-0.5886384,-0.58057314,-0.57129645,-0.5587682,-0.54585737,-0.5341898,-0.5216615,-0.5079537,-0.49223757,-0.4756925,-0.46118778,-0.4478625,-0.4325289,-0.41196722,-0.3897797,-0.36842102,-0.34907073,-0.33332264,-0.3188179,-0.30711848,-0.29704487,-0.28856516,-0.28212565,-0.27766263,-0.27928847,-0.2897765,-0.30670404,-0.32847714,-0.35429877,-0.38856834,-0.43214637,-0.4837578,-0.5366126,-0.5850043,-0.6273391,-0.66645414,-0.7019669,-0.7321878,-0.7572125,-0.7773598,-0.79591316,-0.81124675,-0.8225318,-0.8281743,-0.83059704,-0.8314259,-0.83180845,-0.8314259,-0.8281743,-0.8241576,-0.8221493,-0.82052344,-0.8188976,-0.81650674,-0.8120437,-0.81003535,-0.808824,-0.8076126,-0.80518985,-0.80276704,-0.8011731,-0.8003762,-0.79996175,-0.79795337,-0.7955306,-0.7943192,-0.79310787,-0.79068506,-0.7870509,-0.78341675,-0.7826198,-0.78462815,-0.7866365,-0.7866365,-0.7854251,-0.7850425,-0.7854251,-0.7866365,-0.7870509,-0.7866365,-0.7870509,-0.7866365,-0.7850425,-0.78140837,-0.7789856,-0.7797826,-0.7826198,-0.7850425,-0.78462815,-0.78220534,-0.7797826,-0.7785712,-0.7773598,-0.7753514,-0.7725461,-0.77133477,-0.77092034,-0.7717173,-0.769709,-0.76770055,-0.76687175,-0.7660748,-0.7660748,-0.7660748,-0.7644808,-0.76406646,-0.7644808,-0.763652,-0.7624406,-0.7608467,-0.7600179,-0.75880647,-0.7572125,-0.75437534,-0.75157,-0.7507412,-0.7507412,-0.7507412,-0.74831843,-0.7455131,-0.7455131,-0.74631,-0.7475214,-0.74631,-0.7430903,-0.7414645,-0.7418789,-0.7438873,-0.7447161,-0.7447161,-0.74509865,-0.7455131,-0.7455131,-0.7430903,-0.7406675,-0.73987055,-0.73987055,-0.7406675,-0.7394561,-0.7374478,-0.7362364,-0.7362364,-0.7366508,-0.73582196,-0.734228,-0.73301667,-0.7321878,-0.7305939,-0.7277567,-0.7249514,-0.72374,-0.72374,-0.7249514,-0.72374,-0.72131723,-0.7176831,-0.71325195,-0.7084064,-0.7019669,-0.6975039,-0.69549555,-0.69549555,-0.6946986,-0.68784463,-0.6729255,-0.6511524,-0.6265421,-0.60878575,-0.6027288,-0.6092001,-0.6245338,-0.6390385,-0.6458924,-0.64305526,-0.63782716,-0.6374127,-0.6495266,-0.67171407,-0.6975039,-0.7188945,-0.73139083,-0.73301667,-0.72858554,-0.7216997,-0.7172686,-0.7176831,-0.7188945,-0.7196914,-0.7188945,-0.7188945,-0.72052026,-0.72374,-0.72654533,-0.72858554,-0.73502505,-0.73139083,-0.68220216,-0.5486945,-0.31355792,-0.004239857,0.31317544,0.5741019,0.724537,0.7463101,0.65717745,0.47652137,0.23210824,-0.055054307,-0.3575185,-0.6309732,-0.83021456,-0.91972965,-0.90563935,-0.837451,-0.77092034,-0.73987055,-0.7438873,-0.7632695,-0.7789856,-0.7842137,-0.7818228,-0.7753514,-0.7680831,-0.75963527,-0.7519525,-0.74509865,-0.73987055,-0.73461056,-0.7277567,-0.72052026,-0.7148459,-0.7088208,-0.7023494,-0.6942842,-0.6858363,-0.679365,-0.673308,-0.66686857,-0.6592177,-0.65194935,-0.6466894,-0.6410469,-0.633396,-0.62128216,-0.6083713,-0.5975007,-0.5886384,-0.57974434,-0.5680449,-0.55395454,-0.54062927,-0.52692145,-0.5120023,-0.49466032,-0.47530997,-0.45513082,-0.4353661,-0.41438997,-0.39140546,-0.3700468,-0.35149348,-0.33533102,-0.3196149,-0.3030699,-0.2897765,-0.2812968,-0.2772801,-0.2768656,-0.27928847,-0.28693932,-0.30348432,-0.32889158,-0.3611527,-0.39905638,-0.44343138,-0.49265194,-0.5426376,-0.59064674,-0.63419294,-0.67493385,-0.71446335,-0.74831843,-0.77614844,-0.79674196,-0.8120437,-0.8257834,-0.83706844,-0.8439223,-0.8451337,-0.8439223,-0.84312534,-0.84312534,-0.84312534,-0.84108514,-0.8394912,-0.83827984,-0.836654,-0.8334343,-0.82779175,-0.8225318,-0.8209379,-0.8209379,-0.82052344,-0.81771815,-0.81366956,-0.81124675,-0.81003535,-0.809621,-0.8076126,-0.8043929,-0.80197006,-0.7995473,-0.79591316,-0.7910995,-0.7870509,-0.78746533,-0.7902706,-0.79269344,-0.79310787,-0.79068506,-0.78826225,-0.7878479,-0.78746533,-0.7850425,-0.7830023,-0.78220534,-0.7830023,-0.7838312,-0.7830023,-0.78140837,-0.7806114,-0.77940005,-0.7777742,-0.77414006,-0.77012336,-0.7692945,-0.77012336,-0.77133477,-0.77012336,-0.7660748,-0.763652,-0.7612292,-0.7600179,-0.7584239,-0.7580095,-0.75963527,-0.7612292,-0.7620581,-0.75963527,-0.7560011,-0.75316393,-0.7527814,-0.75316393,-0.75316393,-0.7527814,-0.75357836,-0.7539928,-0.7527814,-0.7495298,-0.74631,-0.74509865,-0.74509865,-0.74350476,-0.73987055,-0.73582196,-0.73461056,-0.7354394,-0.7378622,-0.7374478,-0.7354394,-0.73461056,-0.734228,-0.73381364,-0.73139083,-0.7301794,-0.7301794,-0.73097646,-0.7321878,-0.7301794,-0.72654533,-0.7253339,-0.72654533,-0.7281711,-0.72858554,-0.7281711,-0.7277567,-0.7277567,-0.7261628,-0.72052026,-0.71404886,-0.70799196,-0.7035608,-0.7007555,-0.6962925,-0.69147885,-0.68784463,-0.68621886,-0.68542194,-0.68137336,-0.6688769,-0.64790076,-0.6224935,-0.60151744,-0.5926552,-0.59829766,-0.61484265,-0.63138765,-0.64187574,-0.64305526,-0.6402499,-0.64267266,-0.65596604,-0.679365,-0.706398,-0.72858554,-0.7402531,-0.7406675,-0.7354394,-0.7289681,-0.7269597,-0.7293825,-0.73301667,-0.73582196,-0.73461056,-0.73260224,-0.73180526,-0.73180526,-0.73381364,-0.7382448,-0.7475214,-0.7475214,-0.7007555,-0.5644107,-0.3196149,0.008256674,0.35270488,0.64066434,0.81124675,0.8414997,0.74956167,0.55675995,0.2942077,-0.0151103735,-0.340591,-0.633396,-0.842711,-0.93343747,-0.9165099,-0.8435079,-0.77614844,-0.7459275,-0.7507412,-0.77133477,-0.7862539,-0.78867674,-0.78220534,-0.7737575,-0.7660748,-0.7580095,-0.75157,-0.7467245,-0.7418789,-0.7366508,-0.7293825,-0.7209028,-0.7136345,-0.70799196,-0.7023494,-0.6946986,-0.6858363,-0.67773914,-0.6705027,-0.6648602,-0.65717745,-0.6487296,-0.6402499,-0.63055885,-0.6208996,-0.6104115,-0.5999235,-0.59064674,-0.58095574,-0.5696707,-0.55513406,-0.53983235,-0.5244987,-0.51037645,-0.4942459,-0.4748956,-0.45513082,-0.4353661,-0.41518694,-0.39583665,-0.37486053,-0.35429877,-0.33574545,-0.31840342,-0.30106157,-0.28330517,-0.26679206,-0.255507,-0.24945009,-0.24903566,-0.25308418,-0.26478374,-0.28451645,-0.3139724,-0.35107905,-0.39261693,-0.43979722,-0.4910261,-0.54585737,-0.5999235,-0.6491122,-0.6922758,-0.7305939,-0.76285505,-0.7902706,-0.81003535,-0.8241576,-0.8338487,-0.84108514,-0.8463451,-0.84956485,-0.8519876,-0.853996,-0.853996,-0.8511907,-0.8463451,-0.841914,-0.8390768,-0.837451,-0.83423126,-0.8298001,-0.8257834,-0.82374316,-0.82374316,-0.8229462,-0.81931204,-0.8148809,-0.8120437,-0.81044984,-0.808027,-0.8043929,-0.8007587,-0.7983359,-0.7963276,-0.7955306,-0.79189646,-0.78947365,-0.7878479,-0.7878479,-0.78826225,-0.7862539,-0.7842137,-0.7826198,-0.7806114,-0.7789856,-0.7769773,-0.77614844,-0.7769773,-0.77940005,-0.7797826,-0.7777742,-0.7753514,-0.77414006,-0.7737575,-0.7737575,-0.7721317,-0.77133477,-0.7705059,-0.77012336,-0.769709,-0.7664892,-0.7648634,-0.7652778,-0.7644808,-0.7632695,-0.7608467,-0.75880647,-0.75880647,-0.75922084,-0.7580095,-0.7539928,-0.75236696,-0.7519525,-0.75357836,-0.7539928,-0.7527814,-0.7519525,-0.75236696,-0.75316393,-0.7527814,-0.74914724,-0.7467245,-0.74631,-0.74631,-0.7459275,-0.7438873,-0.7414645,-0.74108195,-0.7426759,-0.7443017,-0.7438873,-0.7418789,-0.7394561,-0.7362364,-0.73381364,-0.7321878,-0.73301667,-0.73502505,-0.73703337,-0.73703337,-0.73381364,-0.7301794,-0.7281711,-0.7277567,-0.7293825,-0.7277567,-0.72453696,-0.7209028,-0.71605724,-0.7100322,-0.70276386,-0.6962925,-0.69348717,-0.6946986,-0.6967069,-0.69591,-0.68864167,-0.67171407,-0.6466894,-0.6216966,-0.6027288,-0.59829766,-0.6083713,-0.6253307,-0.64066434,-0.6475183,-0.6466894,-0.6434697,-0.6442666,-0.65638053,-0.678568,-0.7051866,-0.7273742,-0.73703337,-0.734228,-0.7249514,-0.71930885,-0.71930885,-0.72332555,-0.7273742,-0.7273742,-0.72654533,-0.7261628,-0.72654533,-0.7269597,-0.7269597,-0.72858554,-0.73582196,-0.73301667,-0.68137336,-0.53983235,-0.29098785,0.042143464,0.39261687,0.6870477,0.86247575,0.8923141,0.79473364,0.5930697,0.31719232,-0.0074595213,-0.3486563,-0.6511524,-0.8612643,-0.94392556,-0.91571295,-0.836654,-0.7672862,-0.7374478,-0.7426759,-0.76164365,-0.7777742,-0.78341675,-0.780197,-0.7725461,-0.763652,-0.7560011,-0.7507412,-0.7467245,-0.74108195,-0.73097646,-0.7209028,-0.71283746,-0.70799196,-0.70397526,-0.6979183,-0.6894386,-0.68016195,-0.6729255,-0.66645414,-0.6588032,-0.65032357,-0.6410469,-0.632599,-0.6253307,-0.616851,-0.6079888,-0.5962893,-0.58337843,-0.5700851,-0.5563454,-0.54346645,-0.5313526,-0.51844174,-0.50310814,-0.48576617,-0.46804172,-0.4490739,-0.43093497,-0.41037327,-0.3869744,-0.36357546,-0.34180236,-0.32245213,-0.30428123,-0.28693932,-0.2712232,-0.2595237,-0.25187284,-0.24661285,-0.24419016,-0.24702734,-0.25872672,-0.28008544,-0.30912685,-0.3474449,-0.3930313,-0.4450572,-0.5007173,-0.55475146,-0.6031432,-0.6483152,-0.6910644,-0.73097646,-0.7660748,-0.79189646,-0.8116612,-0.82696295,-0.8407026,-0.8511907,-0.85721576,-0.85925597,-0.85884154,-0.8584271,-0.85721576,-0.85358155,-0.84956485,-0.8471421,-0.8451337,-0.8435079,-0.8386624,-0.83301985,-0.8285887,-0.826166,-0.824572,-0.82052344,-0.81529534,-0.8108323,-0.808824,-0.8076126,-0.80518985,-0.80276704,-0.8011731,-0.79996175,-0.79996175,-0.7991648,-0.79875034,-0.7991648,-0.79996175,-0.79875034,-0.79470176,-0.7910995,-0.79068506,-0.79189646,-0.7934904,-0.79189646,-0.79068506,-0.79068506,-0.79269344,-0.7934904,-0.79189646,-0.78988814,-0.78867674,-0.79068506,-0.792279,-0.7902706,-0.7862539,-0.7842137,-0.78462815,-0.7854251,-0.7850425,-0.7830023,-0.78140837,-0.7826198,-0.7838312,-0.78220534,-0.7789856,-0.7753514,-0.7745545,-0.77493703,-0.7725461,-0.7705059,-0.76770055,-0.76770055,-0.76891196,-0.7684976,-0.7680831,-0.7664892,-0.7644808,-0.763652,-0.7632695,-0.7644808,-0.7660748,-0.7660748,-0.76406646,-0.7584239,-0.7539928,-0.75236696,-0.7527814,-0.7527814,-0.75035864,-0.7475214,-0.7455131,-0.7455131,-0.7459275,-0.7438873,-0.74350476,-0.7438873,-0.7459275,-0.7475214,-0.7467245,-0.7455131,-0.7447161,-0.7455131,-0.7459275,-0.7430903,-0.7394561,-0.73339915,-0.72654533,-0.7209028,-0.7136345,-0.7088208,-0.707195,-0.70799196,-0.7088208,-0.7051866,-0.6939016,-0.67171407,-0.64468104,-0.62211096,-0.61241984,-0.6184768,-0.6358188,-0.6535433,-0.66243744,-0.66202295,-0.6575919,-0.65638053,-0.66728294,-0.6882272,-0.71404886,-0.73865914,-0.7539928,-0.7584239,-0.7552042,-0.74713886,-0.7418789,-0.74108195,-0.7443017,-0.74713886,-0.7459275,-0.74350476,-0.7418789,-0.7418789,-0.74350476,-0.7443017,-0.75035864,-0.75357836,-0.72332555,-0.6156396,-0.39905638,-0.081258476,0.2792884,0.6027608,0.8193121,0.88829744,0.8217349,0.6458926,0.38777137,0.07523358,-0.26436925,-0.58175266,-0.82173485,-0.9411202,-0.9407058,-0.870541,-0.7934904,-0.74831843,-0.7430903,-0.7608467,-0.780197,-0.79148203,-0.792279,-0.78746533,-0.780197,-0.77092034,-0.7620581,-0.7539928,-0.7467245,-0.73987055,-0.73097646,-0.7229111,-0.7164717,-0.71204054,-0.7084064,-0.70276386,-0.69549555,-0.68784463,-0.6805763,-0.673308,-0.66444576,-0.65475464,-0.6466894,-0.63782716,-0.6273391,-0.6152571,-0.6031432,-0.5938666,-0.58701265,-0.5793618,-0.56645095,-0.5507029,-0.5337754,-0.5172304,-0.5003028,-0.4801237,-0.4591475,-0.4377889,-0.4184386,-0.39988518,-0.38012046,-0.35793293,-0.33574545,-0.31438679,-0.294622,-0.2772801,-0.26395482,-0.25588953,-0.25187284,-0.2514584,-0.25346678,-0.26114953,-0.2768656,-0.30549264,-0.3434282,-0.38856834,-0.43941468,-0.49265194,-0.5462718,-0.5975007,-0.6442666,-0.6858363,-0.7241225,-0.7572125,-0.7842137,-0.8048073,-0.82052344,-0.83301985,-0.8439223,-0.85077626,-0.85358155,-0.8544104,-0.8544104,-0.85479295,-0.8527846,-0.84835345,-0.8435079,-0.8390768,-0.8362396,-0.8326373,-0.82779175,-0.8241576,-0.82173485,-0.8213204,-0.820109,-0.8148809,-0.81044984,-0.8068156,-0.8060187,-0.80518985,-0.8023845,-0.7995473,-0.79591316,-0.7943192,-0.7934904,-0.7910995,-0.7902706,-0.79068506,-0.79189646,-0.79189646,-0.78988814,-0.78826225,-0.7862539,-0.7858395,-0.7854251,-0.78341675,-0.7818228,-0.7826198,-0.7850425,-0.7866365,-0.7854251,-0.7830023,-0.7797826,-0.7785712,-0.7785712,-0.7769773,-0.7757659,-0.7753514,-0.7757659,-0.7777742,-0.7789856,-0.7797826,-0.7806114,-0.7818228,-0.7806114,-0.77818865,-0.7753514,-0.7745545,-0.7757659,-0.7773598,-0.7757659,-0.7733431,-0.77092034,-0.7692945,-0.76891196,-0.7672862,-0.7652778,-0.763652,-0.7632695,-0.76164365,-0.75922084,-0.7572125,-0.7572125,-0.7600179,-0.76285505,-0.7632695,-0.7612292,-0.7584239,-0.75759506,-0.7572125,-0.75759506,-0.7584239,-0.75880647,-0.7580095,-0.75437534,-0.74713886,-0.7390417,-0.73180526,-0.7273742,-0.72332555,-0.71848,-0.7156747,-0.71526027,-0.71446335,-0.7051866,-0.6834135,-0.6555835,-0.63298154,-0.6265421,-0.6370302,-0.6535433,-0.6676655,-0.6729255,-0.6720966,-0.6700883,-0.6720966,-0.68621886,-0.7104147,-0.7382448,-0.7612292,-0.7705059,-0.76891196,-0.7612292,-0.7560011,-0.75437534,-0.7552042,-0.75759506,-0.7600179,-0.76285505,-0.76406646,-0.76285505,-0.7608467,-0.75963527,-0.7620581,-0.769709,-0.77092034,-0.73502505,-0.6208996,-0.402308,-0.08489269,0.2760688,0.6003381,0.81650674,0.87940335,0.8048074,0.62131417,0.35713613,0.040549636,-0.30185854,-0.61885935,-0.853199,-0.9645191,-0.9576652,-0.88667154,-0.81044984,-0.7648634,-0.75922084,-0.7753514,-0.7955306,-0.8060187,-0.8035959,-0.7943192,-0.7842137,-0.7765628,-0.7721317,-0.76770055,-0.7620581,-0.7552042,-0.7467245,-0.7362364,-0.7261628,-0.7176831,-0.7104147,-0.70556915,-0.6999267,-0.6922758,-0.68500745,-0.6769422,-0.6692914,-0.6600146,-0.6491122,-0.6390385,-0.63055885,-0.6224935,-0.61283433,-0.59950906,-0.5837929,-0.56925625,-0.5575568,-0.54585737,-0.531767,-0.515222,-0.49625427,-0.47690392,-0.45675665,-0.4353661,-0.4148044,-0.39503968,-0.37607187,-0.35672158,-0.33332264,-0.31113517,-0.2921993,-0.27849144,-0.26838595,-0.25789785,-0.24862117,-0.24419016,-0.24862117,-0.2627434,-0.28534538,-0.31719208,-0.3563072,-0.402308,-0.45229363,-0.50231117,-0.55274314,-0.6031432,-0.6527463,-0.6979183,-0.7362364,-0.7692945,-0.7955306,-0.81771815,-0.8338487,-0.84229654,-0.84672767,-0.8491504,-0.8519876,-0.85600436,-0.85763013,-0.85721576,-0.85479295,-0.85077626,-0.8463451,-0.84149957,-0.8386624,-0.83706844,-0.836654,-0.83544266,-0.83180845,-0.8281743,-0.824572,-0.8221493,-0.81931204,-0.8148809,-0.809621,-0.8043929,-0.8011731,-0.7991648,-0.7963276,-0.7934904,-0.792279,-0.79269344,-0.79310787,-0.792279,-0.79068506,-0.7890593,-0.78947365,-0.78947365,-0.78826225,-0.7862539,-0.7842137,-0.78462815,-0.7862539,-0.7870509,-0.78826225,-0.7890593,-0.78947365,-0.7878479,-0.78462815,-0.78099394,-0.77940005,-0.780197,-0.7806114,-0.7785712,-0.7757659,-0.7733431,-0.7737575,-0.7753514,-0.77614844,-0.7765628,-0.7765628,-0.77614844,-0.77414006,-0.7717173,-0.77012336,-0.7692945,-0.7705059,-0.77012336,-0.7680831,-0.7652778,-0.7644808,-0.7648634,-0.7648634,-0.7624406,-0.75963527,-0.75641555,-0.75437534,-0.75357836,-0.75316393,-0.75236696,-0.7519525,-0.7527814,-0.75236696,-0.74914724,-0.7459275,-0.74350476,-0.74229336,-0.7418789,-0.7418789,-0.7414645,-0.7414645,-0.7418789,-0.7406675,-0.7354394,-0.7297969,-0.7249514,-0.7229111,-0.72131723,-0.7176831,-0.71124357,-0.7035608,-0.6991297,-0.6967069,-0.6930728,-0.6817877,-0.66122603,-0.6362014,-0.61484265,-0.6059804,-0.61241984,-0.6277535,-0.6434697,-0.65194935,-0.65194935,-0.6487296,-0.65032357,-0.6652428,-0.69026744,-0.7176831,-0.7394561,-0.7487328,-0.7495298,-0.7455131,-0.7402531,-0.7378622,-0.7366508,-0.7374478,-0.7402531,-0.74229336,-0.7447161,-0.7455131,-0.74631,-0.7459275,-0.7467245,-0.7539928,-0.75759506,-0.7209028,-0.6007204,-0.36762404,-0.037297904,0.32768035,0.64793277,0.85399604,0.9104849,0.83222294,0.64187586,0.36842108,0.040549636,-0.30912685,-0.6261277,-0.85479295,-0.95683634,-0.94150275,-0.8644841,-0.7870509,-0.74631,-0.7447161,-0.76406646,-0.7838312,-0.79310787,-0.7910995,-0.7830023,-0.7733431,-0.76406646,-0.7560011,-0.75035864,-0.7443017,-0.7374478,-0.7293825,-0.7201058,-0.712455,-0.70598364,-0.6999267,-0.69269025,-0.68421054,-0.6757308,-0.6692914,-0.66243744,-0.6539577,-0.64509547,-0.6370302,-0.62934744,-0.6208996,-0.60958266,-0.5970863,-0.58458984,-0.5745162,-0.56402814,-0.5503204,-0.5345723,-0.51885617,-0.50310814,-0.48576617,-0.46482193,-0.4418056,-0.4196499,-0.40109658,-0.38254327,-0.36316103,-0.3422168,-0.3208263,-0.30268735,-0.2861423,-0.2704262,-0.2566865,-0.2462303,-0.24055594,-0.24097031,-0.24581587,-0.25831234,-0.27928847,-0.30992377,-0.34785932,-0.3922025,-0.44263446,-0.49666864,-0.55395454,-0.60878575,-0.65638053,-0.6971214,-0.73339915,-0.76566035,-0.7939048,-0.8156779,-0.8314259,-0.84229654,-0.8491504,-0.853996,-0.853996,-0.8519876,-0.8491504,-0.8475565,-0.8451337,-0.84149957,-0.8378654,-0.8350601,-0.8346457,-0.83423126,-0.83101153,-0.8265804,-0.82173485,-0.81931204,-0.8181007,-0.81529534,-0.8120437,-0.80844146,-0.80640125,-0.8048073,-0.80276704,-0.7991648,-0.79591316,-0.7955306,-0.7951162,-0.792279,-0.78867674,-0.7858395,-0.7842137,-0.7838312,-0.7826198,-0.78099394,-0.7797826,-0.7806114,-0.78099394,-0.77818865,-0.7737575,-0.77012336,-0.769709,-0.7721317,-0.7745545,-0.7745545,-0.7737575,-0.7733431,-0.7737575,-0.7733431,-0.7729287,-0.7725461,-0.7729287,-0.7737575,-0.7733431,-0.7717173,-0.77012336,-0.769709,-0.7692945,-0.7680831,-0.76770055,-0.7664892,-0.7664892,-0.7660748,-0.7632695,-0.7608467,-0.75880647,-0.75922084,-0.7608467,-0.7612292,-0.7608467,-0.75963527,-0.7584239,-0.7552042,-0.7507412,-0.7467245,-0.7438873,-0.7443017,-0.7455131,-0.7447161,-0.74350476,-0.7426759,-0.74350476,-0.7443017,-0.7430903,-0.7406675,-0.7374478,-0.7362364,-0.73582196,-0.73502505,-0.73381364,-0.7301794,-0.72654533,-0.72332555,-0.71848,-0.7148459,-0.7116261,-0.7084064,-0.70397526,-0.6983328,-0.69147885,-0.6866333,-0.6858363,-0.6866333,-0.6837961,-0.6705027,-0.6471038,-0.6200707,-0.5990946,-0.59306955,-0.6031432,-0.6208996,-0.6374127,-0.64468104,-0.64305526,-0.6382415,-0.6414613,-0.65838885,-0.68500745,-0.712455,-0.73301667,-0.7402531,-0.73865914,-0.73260224,-0.72654533,-0.72374,-0.7241225,-0.7277567,-0.7301794,-0.7297969,-0.7289681,-0.7269597,-0.7277567,-0.7305939,-0.73582196,-0.7459275,-0.74509865,-0.69549555,-0.55395454,-0.2986387,0.04577768,0.40957642,0.7136663,0.8923141,0.9225669,0.8229463,0.61646867,0.3297205,-0.0094679,-0.36156714,-0.6676655,-0.87417513,-0.95119387,-0.91972965,-0.84028816,-0.77012336,-0.7374478,-0.7418789,-0.7608467,-0.77493703,-0.7789856,-0.77493703,-0.7684976,-0.76285505,-0.7560011,-0.7479359,-0.7390417,-0.73180526,-0.72453696,-0.71605724,-0.7088208,-0.7015525,-0.69549555,-0.68905604,-0.68016195,-0.67088526,-0.6632344,-0.65717745,-0.650738,-0.6422583,-0.63138765,-0.6204852,-0.6120055,-0.6039401,-0.5946635,-0.58417547,-0.572476,-0.5608084,-0.54748315,-0.531767,-0.51643336,-0.5015142,-0.48901778,-0.47448117,-0.45592785,-0.43415475,-0.41279608,-0.3930313,-0.37447798,-0.35350186,-0.33051735,-0.30832988,-0.28856516,-0.2712232,-0.2550925,-0.24218172,-0.23331946,-0.22927094,-0.23006785,-0.23491347,-0.24581587,-0.26679206,-0.29946762,-0.34100544,-0.38818574,-0.4373744,-0.48818898,-0.54346645,-0.5990946,-0.65032357,-0.69348717,-0.72858554,-0.7584239,-0.7826198,-0.80318147,-0.8188976,-0.8285887,-0.83585703,-0.8390768,-0.8394912,-0.8390768,-0.8390768,-0.84028816,-0.8407026,-0.83706844,-0.83059704,-0.824572,-0.8229462,-0.8233606,-0.8233606,-0.8213204,-0.8173037,-0.81366956,-0.80844146,-0.8035959,-0.79996175,-0.79674196,-0.79674196,-0.7963276,-0.79310787,-0.7878479,-0.7830023,-0.7806114,-0.7789856,-0.77818865,-0.7777742,-0.77818865,-0.78099394,-0.7826198,-0.78099394,-0.7777742,-0.7729287,-0.7733431,-0.7745545,-0.7753514,-0.7765628,-0.7753514,-0.7753514,-0.77493703,-0.7725461,-0.769709,-0.7672862,-0.7684976,-0.7705059,-0.77092034,-0.7692945,-0.76566035,-0.7632695,-0.76164365,-0.7608467,-0.7608467,-0.7620581,-0.76406646,-0.76566035,-0.7648634,-0.76164365,-0.75759506,-0.75558674,-0.75437534,-0.7539928,-0.7539928,-0.7527814,-0.75236696,-0.7511556,-0.7487328,-0.7467245,-0.7459275,-0.7459275,-0.74631,-0.7459275,-0.7443017,-0.7418789,-0.74108195,-0.7390417,-0.7378622,-0.7366508,-0.7362364,-0.7378622,-0.7390417,-0.7382448,-0.7378622,-0.73703337,-0.7378622,-0.7390417,-0.7374478,-0.73381364,-0.7281711,-0.7229111,-0.7168861,-0.70961773,-0.7023494,-0.69549555,-0.69026744,-0.68743026,-0.6858363,-0.68299913,-0.6729255,-0.65475464,-0.6297618,-0.6071918,-0.5979152,-0.60476905,-0.6216966,-0.63782716,-0.6458924,-0.64509547,-0.6422583,-0.6463069,-0.6616086,-0.6858363,-0.71204054,-0.73180526,-0.7414645,-0.74108195,-0.73502505,-0.7293825,-0.7269597,-0.7289681,-0.7321878,-0.7354394,-0.7366508,-0.7354394,-0.73461056,-0.734228,-0.734228,-0.7378622,-0.74713886,-0.7495298,-0.70435774,-0.5708821,-0.32608622,0.01230526,0.3764863,0.6910645,0.88788307,0.9346807,0.84675956,0.6483153,0.3692181,0.03608668,-0.3188179,-0.63782716,-0.8636871,-0.9572508,-0.93222606,-0.8503618,-0.7753514,-0.7406675,-0.74350476,-0.76285505,-0.7785712,-0.78341675,-0.7806114,-0.77414006,-0.7660748,-0.75759506,-0.74914724,-0.7418789,-0.73502505,-0.72858554,-0.7216997,-0.71446335,-0.7084064,-0.701138,-0.69348717,-0.68701583,-0.68099076,-0.6757308,-0.66967386,-0.65960026,-0.6487296,-0.63782716,-0.62934744,-0.6208996,-0.61241984,-0.6031432,-0.5934521,-0.58296406,-0.5720935,-0.55918264,-0.543849,-0.52851534,-0.5148076,-0.49988842,-0.48296088,-0.46482193,-0.4438458,-0.42366666,-0.40310496,-0.38133186,-0.35914433,-0.33775377,-0.31840342,-0.30026454,-0.28413397,-0.26921475,-0.255507,-0.24702734,-0.24218172,-0.24097031,-0.2462303,-0.26032072,-0.28413397,-0.31598067,-0.35471326,-0.40026778,-0.44948828,-0.503937,-0.55918264,-0.60999715,-0.65596604,-0.69549555,-0.7321878,-0.7620581,-0.7866365,-0.80640125,-0.8221493,-0.83585703,-0.8463451,-0.8519876,-0.85240203,-0.8499793,-0.8487679,-0.8471421,-0.8451337,-0.842711,-0.8394912,-0.83706844,-0.8338487,-0.8298001,-0.82696295,-0.824572,-0.82374316,-0.8209379,-0.81529534,-0.80844146,-0.8023845,-0.80197006,-0.80276704,-0.80197006,-0.7991648,-0.7951162,-0.792279,-0.79068506,-0.78988814,-0.7878479,-0.7850425,-0.7842137,-0.7830023,-0.78220534,-0.78220534,-0.78220534,-0.7826198,-0.78341675,-0.78220534,-0.780197,-0.7789856,-0.7806114,-0.78220534,-0.7830023,-0.7842137,-0.7838312,-0.78462815,-0.7826198,-0.780197,-0.7769773,-0.7753514,-0.7769773,-0.7785712,-0.7777742,-0.7753514,-0.7729287,-0.7737575,-0.77493703,-0.7757659,-0.7737575,-0.77092034,-0.77012336,-0.77092034,-0.7721317,-0.7717173,-0.7705059,-0.7680831,-0.7652778,-0.7632695,-0.7612292,-0.75922084,-0.76043224,-0.7600179,-0.75759506,-0.75558674,-0.7539928,-0.7552042,-0.75641555,-0.7560011,-0.75236696,-0.7479359,-0.74631,-0.7467245,-0.7479359,-0.7479359,-0.74631,-0.7447161,-0.7414645,-0.73582196,-0.7289681,-0.7216997,-0.71605724,-0.71124357,-0.707195,-0.70556915,-0.70276386,-0.6975039,-0.68220216,-0.65717745,-0.6289649,-0.60878575,-0.605566,-0.6156396,-0.63138765,-0.64509547,-0.65233195,-0.6539577,-0.6539577,-0.6575919,-0.6700883,-0.6918614,-0.71848,-0.73865914,-0.7475214,-0.7459275,-0.7378622,-0.73301667,-0.73139083,-0.73260224,-0.73461056,-0.73703337,-0.74108195,-0.74350476,-0.74229336,-0.74108195,-0.73987055,-0.74631,-0.75922084,-0.75679815,-0.69871527,-0.5462718,-0.28413397,0.063916564,0.4269184,0.7310084,0.90723324,0.93142927,0.8269948,0.61726546,0.3272977,-0.017947555,-0.38091743,-0.69549555,-0.9007938,-0.9669419,-0.9233638,-0.8390768,-0.769709,-0.7402531,-0.7455131,-0.76406646,-0.78140837,-0.7890593,-0.7854251,-0.7753514,-0.76406646,-0.75558674,-0.75035864,-0.74631,-0.7402531,-0.7305939,-0.7229111,-0.7156747,-0.70961773,-0.7035608,-0.69591,-0.6882272,-0.68137336,-0.67493385,-0.6680799,-0.6608116,-0.65316075,-0.64305526,-0.63298154,-0.6208996,-0.6104115,-0.6027288,-0.59507793,-0.58458984,-0.571679,-0.5555485,-0.53941786,-0.52408427,-0.50916505,-0.49383146,-0.4777009,-0.46077335,-0.44100863,-0.41923553,-0.39663363,-0.3752749,-0.35471326,-0.3345341,-0.31476933,-0.29541904,-0.27887398,-0.26596326,-0.25388116,-0.24218172,-0.23612481,-0.23733622,-0.24983257,-0.2712232,-0.2986387,-0.33252567,-0.37326658,-0.42165828,-0.4736842,-0.5273359,-0.5793618,-0.63055885,-0.68016195,-0.72374,-0.7580095,-0.78341675,-0.8023845,-0.82173485,-0.8386624,-0.853199,-0.8616787,-0.86327267,-0.86206126,-0.8604673,-0.85884154,-0.8564187,-0.85358155,-0.8511907,-0.8471421,-0.8435079,-0.8394912,-0.8362396,-0.83544266,-0.83585703,-0.83423126,-0.8298001,-0.8233606,-0.8168893,-0.8128726,-0.81003535,-0.80518985,-0.79996175,-0.7951162,-0.79189646,-0.79068506,-0.7910995,-0.79068506,-0.78947365,-0.7862539,-0.7818228,-0.77818865,-0.7753514,-0.7777742,-0.78140837,-0.78462815,-0.78462815,-0.78220534,-0.77940005,-0.77818865,-0.7789856,-0.78140837,-0.7826198,-0.78140837,-0.77614844,-0.7705059,-0.76687175,-0.7680831,-0.7733431,-0.7785712,-0.7797826,-0.7789856,-0.7773598,-0.7773598,-0.7777742,-0.7769773,-0.7733431,-0.7692945,-0.76770055,-0.7672862,-0.7692945,-0.77092034,-0.77092034,-0.7717173,-0.769709,-0.7652778,-0.7612292,-0.75679815,-0.75478977,-0.7552042,-0.7560011,-0.75641555,-0.75558674,-0.7552042,-0.7552042,-0.7560011,-0.7552042,-0.75357836,-0.7511556,-0.74713886,-0.7430903,-0.7390417,-0.7366508,-0.7378622,-0.73703337,-0.73381364,-0.72654533,-0.7168861,-0.7104147,-0.7088208,-0.70961773,-0.7084064,-0.6975039,-0.67773914,-0.6539577,-0.6337786,-0.62411934,-0.6277535,-0.6410469,-0.6539577,-0.6600146,-0.6603972,-0.6575919,-0.6632344,-0.6805763,-0.70556915,-0.73139083,-0.7511556,-0.75922084,-0.7572125,-0.74914724,-0.7390417,-0.73260224,-0.73301667,-0.73703337,-0.74229336,-0.74509865,-0.74509865,-0.7467245,-0.74831843,-0.7479359,-0.7479359,-0.75316393,-0.7527814,-0.71930885,-0.6120055,-0.40109658,-0.0913322,0.25993824,0.5753133,0.7789856,0.8362715,0.76164377,0.58580136,0.33373713,0.018362045,-0.33131433,-0.6575919,-0.89311105,-0.99113774,-0.9649017,-0.87860626,-0.79875034,-0.75880647,-0.75478977,-0.76687175,-0.77818865,-0.7826198,-0.7826198,-0.780197,-0.77414006,-0.7660748,-0.75641555,-0.74914724,-0.7426759,-0.73461056,-0.7269597,-0.7201058,-0.7156747,-0.71124357,-0.7051866,-0.6967069,-0.68542194,-0.678568,-0.6729255,-0.6680799,-0.66243744,-0.65475464,-0.6463069,-0.6370302,-0.6273391,-0.61605406,-0.6043546,-0.5946635,-0.58175266,-0.5668335,-0.5511173,-0.53540117,-0.5237017,-0.51359624,-0.5007173,-0.48417228,-0.4631961,-0.441423,-0.4184386,-0.39341384,-0.36963242,-0.3486563,-0.33211136,-0.3179891,-0.3038987,-0.29137045,-0.28212565,-0.28008544,-0.2812968,-0.284931,-0.29341066,-0.30711848,-0.33051735,-0.3611527,-0.40026778,-0.4458542,-0.4954573,-0.5486945,-0.5979152,-0.6422583,-0.6837961,-0.7225286,-0.75679815,-0.7862539,-0.8076126,-0.82173485,-0.8334343,-0.8443049,-0.8515732,-0.8564187,-0.85721576,-0.85804456,-0.86005294,-0.86084986,-0.85884154,-0.85240203,-0.8451337,-0.84149957,-0.8407026,-0.8407026,-0.8378654,-0.8326373,-0.8265804,-0.82173485,-0.81650674,-0.8116612,-0.80923843,-0.80723006,-0.8056043,-0.8011731,-0.79470176,-0.79068506,-0.79148203,-0.7943192,-0.79674196,-0.797539,-0.7955306,-0.7955306,-0.7955306,-0.79148203,-0.7830023,-0.7765628,-0.77493703,-0.7789856,-0.7870509,-0.792279,-0.79269344,-0.792279,-0.7910995,-0.7890593,-0.7850425,-0.78099394,-0.7789856,-0.7785712,-0.7789856,-0.780197,-0.7806114,-0.7838312,-0.7866365,-0.7870509,-0.7842137,-0.7797826,-0.7769773,-0.7757659,-0.77614844,-0.7757659,-0.77614844,-0.7777742,-0.7773598,-0.7769773,-0.77493703,-0.7729287,-0.769709,-0.7652778,-0.76043224,-0.75759506,-0.75922084,-0.76406646,-0.7664892,-0.7660748,-0.7612292,-0.75558674,-0.7519525,-0.7507412,-0.7507412,-0.7511556,-0.7499442,-0.7487328,-0.74631,-0.7438873,-0.7430903,-0.7406675,-0.73703337,-0.73097646,-0.7249514,-0.7196914,-0.71526027,-0.71404886,-0.71605724,-0.7176831,-0.7136345,-0.69954413,-0.6741369,-0.645478,-0.6249163,-0.6204852,-0.6321846,-0.6511524,-0.66607153,-0.67171407,-0.6688769,-0.6652428,-0.6700883,-0.68542194,-0.7084064,-0.73180526,-0.7479359,-0.75437534,-0.7511556,-0.7438873,-0.7374478,-0.73381364,-0.73502505,-0.7366508,-0.73703337,-0.7374478,-0.7390417,-0.7426759,-0.74509865,-0.7475214,-0.7495298,-0.75316393,-0.7479359,-0.69954413,-0.5728904,-0.34664792,-0.040135145,0.28008544,0.54266965,0.6850076,0.69026744,0.5865984,0.40390193,0.16395164,-0.12279636,-0.430138,-0.7088208,-0.9015907,-0.9709586,-0.9330549,-0.8487679,-0.77493703,-0.73987055,-0.7402531,-0.7552042,-0.76770055,-0.7721317,-0.77133477,-0.7672862,-0.7600179,-0.75035864,-0.7418789,-0.73703337,-0.73381364,-0.7301794,-0.72374,-0.7168861,-0.71082914,-0.70276386,-0.6939016,-0.68299913,-0.67372245,-0.6692914,-0.6680799,-0.6648602,-0.6580063,-0.6475183,-0.63661575,-0.6277535,-0.6200707,-0.6120055,-0.6039401,-0.5967037,-0.58780956,-0.5793618,-0.5688737,-0.55717427,-0.54467785,-0.5293442,-0.5111734,-0.49182314,-0.4716758,-0.45270807,-0.43415475,-0.4148044,-0.39503968,-0.3776977,-0.36357546,-0.35028213,-0.3341515,-0.31840342,-0.30992377,-0.30632156,-0.31033826,-0.31719208,-0.32646883,-0.340591,-0.36478686,-0.39784497,-0.4353661,-0.4756925,-0.51885617,-0.5656221,-0.61484265,-0.66282,-0.7051866,-0.7414645,-0.769709,-0.78947365,-0.80276704,-0.81044984,-0.81771815,-0.8273773,-0.83706844,-0.8451337,-0.8471421,-0.8435079,-0.8398738,-0.836654,-0.83423126,-0.83059704,-0.8257834,-0.8229462,-0.8221493,-0.8221493,-0.820109,-0.81771815,-0.8144665,-0.8116612,-0.8076126,-0.8007587,-0.79470176,-0.79068506,-0.78947365,-0.78867674,-0.7862539,-0.7818228,-0.7785712,-0.7773598,-0.7773598,-0.7773598,-0.7769773,-0.7769773,-0.77614844,-0.77414006,-0.7717173,-0.77012336,-0.77012336,-0.7717173,-0.77414006,-0.7729287,-0.77012336,-0.76770055,-0.7652778,-0.7644808,-0.7644808,-0.763652,-0.76285505,-0.76285505,-0.76164365,-0.76164365,-0.7620581,-0.7644808,-0.76687175,-0.76770055,-0.76566035,-0.7612292,-0.7580095,-0.75558674,-0.75437534,-0.7539928,-0.75316393,-0.7539928,-0.75357836,-0.7507412,-0.74631,-0.74350476,-0.7443017,-0.74631,-0.7479359,-0.74631,-0.7438873,-0.7430903,-0.7438873,-0.74509865,-0.74229336,-0.7390417,-0.7374478,-0.7374478,-0.7394561,-0.7390417,-0.7362364,-0.73301667,-0.7289681,-0.7269597,-0.7253339,-0.7249514,-0.7249514,-0.7261628,-0.72374,-0.7188945,-0.71446335,-0.7116261,-0.70961773,-0.7076094,-0.7051866,-0.70276386,-0.7003411,-0.6918614,-0.6741369,-0.6487296,-0.6253307,-0.61605406,-0.6204852,-0.63460743,-0.6495266,-0.65960026,-0.6632344,-0.6600146,-0.6555835,-0.6555835,-0.6676655,-0.6918614,-0.7172686,-0.73582196,-0.7414645,-0.7390417,-0.734228,-0.73097646,-0.7297969,-0.7277567,-0.7261628,-0.7273742,-0.7273742,-0.7277567,-0.72654533,-0.7257483,-0.7289681,-0.7378622,-0.7467245,-0.73180526,-0.6555835,-0.48981476,-0.22767699,0.08811247,0.38576305,0.6031432,0.68743026,0.6499411,0.5208646,0.3232491,0.07561612,-0.21314037,-0.50916505,-0.75759506,-0.9064363,-0.93627465,-0.88262296,-0.80397844,-0.7459275,-0.72453696,-0.73139083,-0.7507412,-0.7660748,-0.7717173,-0.76687175,-0.7560011,-0.7467245,-0.7402531,-0.7362364,-0.7321878,-0.7261628,-0.7201058,-0.7136345,-0.707195,-0.69871527,-0.6898531,-0.68299913,-0.6773566,-0.6729255,-0.66686857,-0.6600146,-0.65316075,-0.645478,-0.63782716,-0.62692463,-0.61726546,-0.60958266,-0.6035576,-0.5975007,-0.58902097,-0.57853293,-0.5676623,-0.554337,-0.54021484,-0.5237017,-0.50757116,-0.49303448,-0.4777009,-0.46035892,-0.4377889,-0.4148044,-0.3954541,-0.37849468,-0.3639899,-0.3494532,-0.33373708,-0.3204118,-0.30912685,-0.30064702,-0.294622,-0.29258186,-0.296216,-0.30670404,-0.32487482,-0.34907073,-0.38212883,-0.4240811,-0.47126138,-0.521279,-0.56925625,-0.61404574,-0.65475464,-0.69026744,-0.72131723,-0.7467245,-0.7684976,-0.7878479,-0.8035959,-0.8148809,-0.81851506,-0.8181007,-0.8173037,-0.8181007,-0.81972647,-0.82052344,-0.82052344,-0.820109,-0.81771815,-0.81529534,-0.8116612,-0.80923843,-0.81044984,-0.81003535,-0.808027,-0.80276704,-0.79591316,-0.79189646,-0.7890593,-0.7878479,-0.7850425,-0.7818228,-0.7797826,-0.7785712,-0.7773598,-0.7745545,-0.7717173,-0.76891196,-0.7652778,-0.76285505,-0.75963527,-0.75922084,-0.7620581,-0.76406646,-0.76406646,-0.7612292,-0.7584239,-0.7580095,-0.76043224,-0.76164365,-0.75922084,-0.75641555,-0.75558674,-0.75641555,-0.75880647,-0.7612292,-0.7624406,-0.7624406,-0.7612292,-0.75880647,-0.75478977,-0.75236696,-0.75316393,-0.7572125,-0.76164365,-0.763652,-0.763652,-0.7620581,-0.7584239,-0.7552042,-0.7511556,-0.7499442,-0.7511556,-0.75236696,-0.7527814,-0.75035864,-0.7475214,-0.7455131,-0.74509865,-0.74509865,-0.7438873,-0.7426759,-0.7426759,-0.74229336,-0.7406675,-0.73865914,-0.7374478,-0.73865914,-0.7402531,-0.74108195,-0.7382448,-0.7354394,-0.734228,-0.7354394,-0.73865914,-0.73987055,-0.7394561,-0.7390417,-0.7382448,-0.7366508,-0.734228,-0.73180526,-0.7305939,-0.7301794,-0.73139083,-0.7305939,-0.72858554,-0.7273742,-0.7257483,-0.72374,-0.7209028,-0.71605724,-0.71204054,-0.70799196,-0.70477223,-0.7003411,-0.6950811,-0.6918614,-0.69026744,-0.68864167,-0.6834135,-0.6705027,-0.65032357,-0.62855047,-0.61363125,-0.60999715,-0.6184768,-0.63419294,-0.6475183,-0.65194935,-0.64790076,-0.64305526,-0.6463069,-0.6616086,-0.68542194,-0.7100322,-0.7269597,-0.73461056,-0.73381364,-0.7297969,-0.72332555,-0.72131723,-0.7225286,-0.7253339,-0.7277567,-0.72858554,-0.72654533,-0.7249514,-0.72453696,-0.7257483,-0.73097646,-0.7402531,-0.7297969,-0.6592177,-0.49666864,-0.23733622,0.079250336,0.38091755,0.6099973,0.71930885,0.7092353,0.5982977,0.4047308,0.1538781,-0.13733304,-0.43294334,-0.68864167,-0.85600436,-0.91166437,-0.87940323,-0.80923843,-0.75316393,-0.73301667,-0.7418789,-0.76043224,-0.7717173,-0.7725461,-0.7660748,-0.7580095,-0.7507412,-0.7443017,-0.7402531,-0.73703337,-0.73381364,-0.72858554,-0.7201058,-0.7104147,-0.7019669,-0.69549555,-0.69026744,-0.6837961,-0.6781536,-0.6745194,-0.6705027,-0.6652428,-0.6555835,-0.645478,-0.6362014,-0.6289649,-0.62290794,-0.6144283,-0.6039401,-0.5934521,-0.58296406,-0.5728904,-0.56119096,-0.5470687,-0.5325639,-0.5172304,-0.5007173,-0.4821639,-0.46361053,-0.4466511,-0.430138,-0.41400743,-0.3954541,-0.37568933,-0.357136,-0.340591,-0.32646883,-0.31234658,-0.30064702,-0.29341066,-0.29019094,-0.2921993,-0.29825622,-0.31075257,-0.33252567,-0.36357546,-0.402308,-0.4458542,-0.49303448,-0.5426376,-0.5914438,-0.6362014,-0.673308,-0.7084064,-0.7402531,-0.76891196,-0.792279,-0.80723006,-0.8156779,-0.8233606,-0.83059704,-0.83585703,-0.837451,-0.8362396,-0.8338487,-0.83021456,-0.82779175,-0.824572,-0.8209379,-0.81650674,-0.81245816,-0.808824,-0.8060187,-0.80518985,-0.8068156,-0.80844146,-0.8076126,-0.8023845,-0.7934904,-0.7862539,-0.7818228,-0.78099394,-0.7806114,-0.780197,-0.77940005,-0.77818865,-0.7777742,-0.7777742,-0.7769773,-0.7773598,-0.7769773,-0.77414006,-0.77012336,-0.76770055,-0.7684976,-0.7692945,-0.7705059,-0.76770055,-0.7652778,-0.7652778,-0.76687175,-0.7692945,-0.769709,-0.7672862,-0.76770055,-0.7672862,-0.7680831,-0.7664892,-0.76406646,-0.76285505,-0.763652,-0.7648634,-0.7648634,-0.76406646,-0.7644808,-0.7652778,-0.76566035,-0.763652,-0.7608467,-0.7580095,-0.7580095,-0.75880647,-0.75922084,-0.7600179,-0.75880647,-0.75641555,-0.7527814,-0.74914724,-0.74631,-0.7467245,-0.7487328,-0.74914724,-0.74713886,-0.74509865,-0.7426759,-0.74108195,-0.7406675,-0.73987055,-0.7402531,-0.74108195,-0.7406675,-0.7382448,-0.73381364,-0.7305939,-0.73139083,-0.73502505,-0.7382448,-0.7378622,-0.7366508,-0.73582196,-0.7366508,-0.7382448,-0.7366508,-0.73339915,-0.73139083,-0.7297969,-0.7297969,-0.7297969,-0.7281711,-0.72858554,-0.7301794,-0.7305939,-0.72858554,-0.7257483,-0.72332555,-0.7229111,-0.7225286,-0.71930885,-0.7136345,-0.70799196,-0.70397526,-0.7019669,-0.69954413,-0.6975039,-0.69549555,-0.6922758,-0.68299913,-0.66364884,-0.63782716,-0.61484265,-0.6031432,-0.6067774,-0.6200707,-0.63540435,-0.6475183,-0.65233195,-0.649941,-0.6458924,-0.6487296,-0.66364884,-0.6882272,-0.71446335,-0.73139083,-0.7382448,-0.7374478,-0.734228,-0.7321878,-0.7289681,-0.72654533,-0.7261628,-0.7277567,-0.7289681,-0.7301794,-0.73097646,-0.73260224,-0.73582196,-0.7443017,-0.75035864,-0.7293825,-0.6386241,-0.4466511,-0.1534636,0.19098473,0.51158786,0.74471617,0.84312534,0.813287,0.6773567,0.45513093,0.17122006,-0.15505749,-0.47690392,-0.73865914,-0.8927285,-0.9245752,-0.8733463,-0.79996175,-0.75157,-0.74229336,-0.7584239,-0.7777742,-0.78746533,-0.7850425,-0.7797826,-0.7757659,-0.7745545,-0.7725461,-0.7660748,-0.75759506,-0.7479359,-0.73865914,-0.7301794,-0.7196914,-0.71204054,-0.706398,-0.701138,-0.69549555,-0.68743026,-0.67773914,-0.66967386,-0.6632344,-0.65838885,-0.6515349,-0.6442666,-0.63540435,-0.62411934,-0.61283433,-0.59950906,-0.5862157,-0.5728904,-0.5587682,-0.5450604,-0.531767,-0.51885617,-0.5063598,-0.4914406,-0.47409862,-0.4531225,-0.43335772,-0.41518694,-0.3954541,-0.37447798,-0.35471326,-0.33695686,-0.32245213,-0.30874425,-0.2921993,-0.2744429,-0.26114953,-0.25710088,-0.26153207,-0.27402842,-0.2942077,-0.32324904,-0.36035573,-0.40390193,-0.44948828,-0.4934489,-0.53862095,-0.5865982,-0.6374127,-0.6858363,-0.72654533,-0.75880647,-0.7830023,-0.80276704,-0.81972647,-0.83180845,-0.84028816,-0.8459307,-0.8499793,-0.8527846,-0.853199,-0.8511907,-0.84835345,-0.8451337,-0.84312534,-0.8390768,-0.83301985,-0.8257834,-0.81851506,-0.8116612,-0.80640125,-0.8076126,-0.8144665,-0.8225318,-0.8281743,-0.8265804,-0.8181007,-0.8076126,-0.8007587,-0.797539,-0.797539,-0.79795337,-0.797539,-0.79795337,-0.797539,-0.7955306,-0.79189646,-0.7854251,-0.78220534,-0.7862539,-0.7955306,-0.80640125,-0.8128726,-0.8108323,-0.8023845,-0.7943192,-0.7878479,-0.7826198,-0.7789856,-0.7765628,-0.77493703,-0.7777742,-0.78140837,-0.78099394,-0.7797826,-0.7806114,-0.78341675,-0.78462815,-0.78220534,-0.7729287,-0.76164365,-0.7580095,-0.7612292,-0.7652778,-0.7644808,-0.7600179,-0.75641555,-0.75963527,-0.7692945,-0.7785712,-0.7789856,-0.7717173,-0.7608467,-0.75236696,-0.7499442,-0.7499442,-0.75236696,-0.75236696,-0.7507412,-0.7507412,-0.7455131,-0.7430903,-0.7430903,-0.7443017,-0.7487328,-0.75357836,-0.75558674,-0.75478977,-0.74831843,-0.73865914,-0.73139083,-0.7301794,-0.734228,-0.7402531,-0.74350476,-0.74108195,-0.73703337,-0.73502505,-0.7354394,-0.7378622,-0.7378622,-0.73301667,-0.7261628,-0.7172686,-0.71204054,-0.706398,-0.7031783,-0.7023494,-0.70276386,-0.70598364,-0.70799196,-0.7076094,-0.70276386,-0.69026744,-0.66565716,-0.63460743,-0.60878575,-0.60030603,-0.6079888,-0.6265421,-0.6442666,-0.65638053,-0.65960026,-0.6551691,-0.6511524,-0.6551691,-0.6720966,-0.7007555,-0.7293825,-0.7414645,-0.7366508,-0.7241225,-0.7136345,-0.71082914,-0.7168861,-0.72654533,-0.73502505,-0.74108195,-0.73987055,-0.73865914,-0.73703337,-0.73301667,-0.7277567,-0.7273742,-0.7321878,-0.72332555,-0.66364884,-0.50514835,-0.23089677,0.117982745,0.45634234,0.69591,0.78261983,0.7346426,0.5979152,0.3998853,0.14460135,-0.16637439,-0.49587166,-0.7757659,-0.9379005,-0.9669419,-0.90563935,-0.8188976,-0.75035864,-0.7172686,-0.7188945,-0.7414645,-0.769709,-0.7866365,-0.78220534,-0.7608467,-0.7378622,-0.7273742,-0.7273742,-0.73097646,-0.7289681,-0.7221142,-0.71605724,-0.7116261,-0.70678055,-0.69549555,-0.6769422,-0.6580063,-0.649941,-0.6475183,-0.650738,-0.65437216,-0.6483152,-0.6362014,-0.62211096,-0.6104115,-0.605566,-0.6067774,-0.605566,-0.59064674,-0.5648252,-0.53578377,-0.5123848,-0.5027256,-0.5015142,-0.5019286,-0.49466032,-0.47690392,-0.44827694,-0.4184386,-0.39583665,-0.38455164,-0.38091743,-0.37285215,-0.3462335,-0.30912685,-0.2772801,-0.2631579,-0.2680034,-0.28371954,-0.30147594,-0.3115496,-0.3216232,-0.33574545,-0.35270488,-0.37607187,-0.41196722,-0.4631961,-0.5224904,-0.57894737,-0.62290794,-0.65233195,-0.68016195,-0.71930885,-0.77012336,-0.8181007,-0.8435079,-0.84551626,-0.83301985,-0.8168893,-0.8128726,-0.82052344,-0.83101153,-0.841914,-0.847939,-0.8459307,-0.8390768,-0.83301985,-0.83301985,-0.83706844,-0.84028816,-0.8322229,-0.81366956,-0.792279,-0.77493703,-0.76891196,-0.7830023,-0.8023845,-0.8160923,-0.8213204,-0.8148809,-0.80276704,-0.792279,-0.7826198,-0.769709,-0.75880647,-0.75963527,-0.7773598,-0.7971245,-0.8015557,-0.7850425,-0.75922084,-0.74350476,-0.75035864,-0.7729287,-0.7862539,-0.780197,-0.76043224,-0.74350476,-0.7467245,-0.7705059,-0.79795337,-0.81124675,-0.80276704,-0.7721317,-0.7366508,-0.712455,-0.71325195,-0.7394561,-0.7725461,-0.79269344,-0.7902706,-0.769709,-0.7479359,-0.7366508,-0.73987055,-0.75035864,-0.7632695,-0.7721317,-0.7717173,-0.7624406,-0.7487328,-0.7390417,-0.7406675,-0.7467245,-0.7527814,-0.7539928,-0.7426759,-0.7293825,-0.7188945,-0.7156747,-0.72453696,-0.7455131,-0.76687175,-0.78220534,-0.77940005,-0.7580095,-0.73381364,-0.7188945,-0.71848,-0.7257483,-0.7273742,-0.72052026,-0.7116261,-0.7164717,-0.73260224,-0.7414645,-0.73987055,-0.7301794,-0.72374,-0.73139083,-0.7438873,-0.7479359,-0.73502505,-0.7136345,-0.7031783,-0.70799196,-0.7201058,-0.7273742,-0.7196914,-0.70477223,-0.69348717,-0.6918614,-0.69591,-0.7003411,-0.701138,-0.6983328,-0.69065,-0.6745194,-0.6495266,-0.6253307,-0.6112085,-0.61605406,-0.6337786,-0.65316075,-0.66686857,-0.6692914,-0.6592177,-0.6458924,-0.64187574,-0.6515349,-0.67372245,-0.7031783,-0.7273742,-0.73987055,-0.74831843,-0.75035864,-0.7455131,-0.7366508,-0.72654533,-0.72131723,-0.7216997,-0.72453696,-0.7249514,-0.7241225,-0.7269597,-0.7354394,-0.75316393,-0.7652778,-0.7499442,-0.673308,-0.50916505,-0.25346678,0.06069696,0.3692181,0.6099973,0.7281712,0.7196914,0.60757446,0.4228698,0.18330204,-0.108291626,-0.42446363,-0.70678055,-0.8943224,-0.95281965,-0.90563935,-0.8213204,-0.76043224,-0.73865914,-0.7511556,-0.7733431,-0.7870509,-0.7878479,-0.78099394,-0.769709,-0.75880647,-0.75641555,-0.75922084,-0.7584239,-0.75157,-0.7402531,-0.7249514,-0.71124357,-0.7019669,-0.6967069,-0.69269025,-0.6922758,-0.6946986,-0.69065,-0.68016195,-0.6692914,-0.66243744,-0.66364884,-0.66364884,-0.6539577,-0.6321846,-0.6071918,-0.5886384,-0.576939,-0.5736874,-0.57894737,-0.5813701,-0.576939,-0.5587682,-0.5232873,-0.48133504,-0.4458542,-0.42446363,-0.4196499,-0.42567497,-0.43294334,-0.42567497,-0.39503968,-0.35028213,-0.3079154,-0.28330517,-0.284931,-0.2990532,-0.30670404,-0.30147594,-0.2921993,-0.28856516,-0.30185854,-0.32726574,-0.36277854,-0.40390193,-0.45028532,-0.4990914,-0.5478976,-0.59102935,-0.63138765,-0.67773914,-0.7253339,-0.76566035,-0.79310787,-0.8023845,-0.80276704,-0.8068156,-0.81650674,-0.8293857,-0.83544266,-0.8338487,-0.8298001,-0.82696295,-0.8350601,-0.84835345,-0.853996,-0.84229654,-0.8209379,-0.8048073,-0.79996175,-0.8116612,-0.8233606,-0.82052344,-0.81003535,-0.79795337,-0.792279,-0.79470176,-0.7983359,-0.80518985,-0.8116612,-0.81325513,-0.808824,-0.7934904,-0.7717173,-0.763652,-0.7729287,-0.79189646,-0.8056043,-0.7991648,-0.7757659,-0.7539928,-0.7487328,-0.7608467,-0.7797826,-0.78826225,-0.7866365,-0.7797826,-0.780197,-0.7878479,-0.7934904,-0.78746533,-0.7692945,-0.75157,-0.7511556,-0.7684976,-0.792279,-0.80197006,-0.7858395,-0.7580095,