-0.7357184,-0.7337581,-0.7337581,-0.73455447,-0.73492205,-0.7337581,-0.73259413,-0.7329923,-0.73455447,-0.73492205,-0.7333905,-0.73106253,-0.7302662,-0.7295004,-0.72833645,-0.7264067,-0.72447693,-0.72447693,-0.7248446,-0.72447693,-0.7229148,-0.7213833,-0.72175086,-0.72175086,-0.7202193,-0.7174932,-0.7140013,-0.7140013,-0.7155634,-0.715931,-0.7147671,-0.7109076,-0.7074157,-0.7023922,-0.6973382,-0.69151837,-0.68572915,-0.68300307,-0.6810733,-0.67914355,-0.6744877,-0.662848,-0.6442552,-0.6210065,-0.60085154,-0.5915398,-0.59735966,-0.61402273,-0.62992007,-0.6376696,-0.63534164,-0.62992007,-0.63184977,-0.6458174,-0.6705976,-0.6985022,-0.7205869,-0.73222655,-0.7333905,-0.72757065,-0.7213833,-0.718259,-0.71942294,-0.7229148,-0.72524273,-0.72524273,-0.72447693,-0.72524273,-0.7271725,-0.7298986,-0.7333905,-0.74074185,-0.742304,-0.7039238,-0.5822587,-0.35167092,-0.024596453,0.33773386,0.6620822,0.8817961,0.956198,0.89652956,0.71825886,0.4485557,0.11489582,-0.24820048,-0.58109474,-0.8256195,-0.93760526,-0.9271296,-0.85272765,-0.7794897,-0.74579597,-0.7508193,-0.7733023,-0.7926609,-0.80004287,-0.79808253,-0.79112935,-0.7818176,-0.77213836,-0.76282656,-0.7566392,-0.75121754,-0.74579597,-0.73917973,-0.73182833,-0.72524273,-0.718259,-0.71050936,-0.70199406,-0.6934787,-0.68649495,-0.67990935,-0.6717616,-0.66208225,-0.652403,-0.6442552,-0.6369039,-0.6291236,-0.6198425,-0.60976505,-0.6004533,-0.5896101,-0.57683706,-0.5617055,-0.5458082,-0.53110546,-0.5159739,-0.4993108,-0.48031974,-0.45939898,-0.43924403,-0.4187215,-0.39740252,-0.37531775,-0.35360062,-0.3330781,-0.3136888,-0.29469782,-0.2768708,-0.26216805,-0.253622,-0.25013018,-0.25092655,-0.25595003,-0.2667933,-0.28694826,-0.3156492,-0.35243666,-0.39507455,-0.4427359,-0.49465495,-0.5477686,-0.59928936,-0.64658314,-0.6907526,-0.7306644,-0.7647563,-0.7926609,-0.81321406,-0.82794744,-0.84032226,-0.84963393,-0.8554538,-0.85854745,-0.85971147,-0.8601097,-0.85971147,-0.85698533,-0.8531259,-0.8488682,-0.84614205,-0.8442123,-0.84111863,-0.83722854,-0.8325727,-0.8310411,-0.82987714,-0.82794744,-0.82405734,-0.81940144,-0.815542,-0.8128159,-0.8104879,-0.8077924,-0.8054645,-0.80430055,-0.8031366,-0.8012068,-0.79771495,-0.7949888,-0.7946212,-0.795387,-0.7949888,-0.7926609,-0.7895672,-0.7884032,-0.7884032,-0.7891996,-0.7895672,-0.78880143,-0.7891996,-0.78880143,-0.7876375,-0.7857077,-0.78414553,-0.78414553,-0.7833798,-0.78065366,-0.776396,-0.77213836,-0.77137256,-0.7729041,-0.77406806,-0.77483386,-0.7744663,-0.77483386,-0.77366984,-0.7705761,-0.7667167,-0.763623,-0.7643888,-0.7659203,-0.76708424,-0.7667167,-0.7647563,-0.7639905,-0.7632248,-0.7612951,-0.7581707,-0.75624096,-0.75700676,-0.75700676,-0.7566392,-0.7535455,-0.7500536,-0.7488896,-0.7492572,-0.7500536,-0.7492572,-0.74809325,-0.74809325,-0.74772567,-0.7465617,-0.74383557,-0.74074185,-0.74074185,-0.74074185,-0.7403437,-0.7395779,-0.73841393,-0.7380464,-0.7380464,-0.7376481,-0.7357184,-0.7337581,-0.7329923,-0.73222655,-0.7314302,-0.7302662,-0.7287346,-0.7287346,-0.72833645,-0.7271725,-0.72600853,-0.72564095,-0.72757065,-0.7287346,-0.72913283,-0.7271725,-0.72447693,-0.7236806,-0.7229148,-0.722149,-0.7205869,-0.71905535,-0.7198211,-0.7202193,-0.71942294,-0.7167274,-0.7140013,-0.7136031,-0.71439946,-0.71439946,-0.71207154,-0.70781386,-0.704322,-0.7000643,-0.69501024,-0.6895886,-0.684167,-0.6810733,-0.6787454,-0.6764174,-0.6736913,-0.6698318,-0.6605201,-0.64269304,-0.6175146,-0.59426594,-0.58342266,-0.59000826,-0.60667133,-0.62333447,-0.632248,-0.63184977,-0.62992007,-0.6330137,-0.64658314,-0.6694336,-0.6961742,-0.71905535,-0.7306644,-0.7302662,-0.723313,-0.7163292,-0.71439946,-0.715931,-0.71865714,-0.71942294,-0.71942294,-0.72098505,-0.7229148,-0.72447693,-0.7248446,-0.7279689,-0.7376481,-0.7376481,-0.6891904,-0.5512605,-0.30207986,0.037400007,0.4024259,0.7190553,0.91861427,0.96976745,0.8864521,0.6911508,0.40980804,0.0664686,-0.30207986,-0.632248,-0.8608754,-0.94844854,-0.91628635,-0.8333691,-0.7632248,-0.73455447,-0.742304,-0.7632248,-0.7798879,-0.7864735,-0.7833798,-0.776396,-0.7678807,-0.7601311,-0.75391304,-0.74732745,-0.7399761,-0.7314302,-0.7240788,-0.71942294,-0.71516526,-0.7097436,-0.70159584,-0.69308054,-0.6860967,-0.6802769,-0.6744877,-0.66673815,-0.6574264,-0.64851284,-0.6395993,-0.6306858,-0.6210065,-0.610929,-0.6016173,-0.5911722,-0.57913435,-0.5651974,-0.55046403,-0.5365271,-0.52139556,-0.50513065,-0.4861396,-0.46598464,-0.4469936,-0.4280026,-0.40748,-0.38499707,-0.3617484,-0.34042943,-0.3199069,-0.30011946,-0.28152663,-0.2652617,-0.253622,-0.24703646,-0.24354452,-0.24238062,-0.24627066,-0.2594419,-0.282323,-0.3144853,-0.35476464,-0.40205836,-0.45474315,-0.50822437,-0.55937755,-0.6062732,-0.64967686,-0.6919166,-0.73106253,-0.7651545,-0.7930591,-0.81397986,-0.83064294,-0.8422826,-0.84963393,-0.8535241,-0.8554538,-0.8577817,-0.85854745,-0.8581493,-0.8550556,-0.8515637,-0.85003215,-0.84810245,-0.8449781,-0.8399547,-0.83453304,-0.83064294,-0.82715106,-0.8248231,-0.8217294,-0.8186357,-0.8170735,-0.815542,-0.8116519,-0.8058627,-0.80004287,-0.796551,-0.7946212,-0.79382485,-0.7926609,-0.79073113,-0.79073113,-0.7899654,-0.78880143,-0.78607523,-0.7833798,-0.7829816,-0.7837474,-0.78454375,-0.7829816,-0.7810519,-0.78065366,-0.7810519,-0.7825834,-0.78221583,-0.7802861,-0.7791221,-0.7783257,-0.77795815,-0.77755994,-0.77755994,-0.7791221,-0.7798879,-0.7802861,-0.77872396,-0.7767942,-0.776396,-0.776396,-0.77563024,-0.77406806,-0.7725059,-0.7717401,-0.77097434,-0.7686464,-0.76555276,-0.76245904,-0.7616626,-0.7616626,-0.76049864,-0.7574049,-0.755077,-0.75431126,-0.755077,-0.75431126,-0.75198334,-0.7484914,-0.7469599,-0.7465617,-0.7469599,-0.7469599,-0.7465617,-0.74732745,-0.7469599,-0.7449995,-0.74074185,-0.7376481,-0.7376481,-0.7395779,-0.74150765,-0.74150765,-0.73917973,-0.7376481,-0.73688245,-0.73725,-0.73725,-0.736086,-0.7353202,-0.7337581,-0.73106253,-0.72757065,-0.72524273,-0.7248446,-0.72600853,-0.72600853,-0.7240788,-0.7213833,-0.71942294,-0.71905535,-0.7198211,-0.7205869,-0.7205869,-0.7205869,-0.71942294,-0.7167274,-0.71283734,-0.71050936,-0.7109076,-0.7116734,-0.71246976,-0.7113058,-0.70857966,-0.70625174,-0.703158,-0.6985022,-0.69231474,-0.6860967,-0.68183905,-0.6787454,-0.6775814,-0.6768156,-0.67525345,-0.6698318,-0.65316874,-0.6275921,-0.6004533,-0.58342266,-0.58379024,-0.5977578,-0.6144209,-0.6244984,-0.6256624,-0.62333447,-0.6241002,-0.6337795,-0.6539345,-0.6806751,-0.7066499,-0.72251666,-0.72600853,-0.7202193,-0.7140013,-0.71207154,-0.7155634,-0.7198211,-0.72175086,-0.72175086,-0.723313,-0.7248446,-0.7264067,-0.7268049,-0.7279689,-0.73648417,-0.74306977,-0.7163292,-0.6116948,-0.39973044,-0.08313173,0.28658068,0.63261557,0.88412404,0.9883603,0.94921434,0.78803563,0.5311054,0.20326519,-0.16681474,-0.5225595,-0.796551,-0.9368395,-0.93993324,-0.8647655,-0.7829816,-0.7376481,-0.73415625,-0.7527491,-0.7729041,-0.7837474,-0.7833798,-0.77599776,-0.7659203,-0.75624096,-0.75042117,-0.74579597,-0.74114007,-0.7353202,-0.7279689,-0.7202193,-0.7109076,-0.70122826,-0.69151837,-0.6837688,-0.6787454,-0.67332375,-0.6671057,-0.6589886,-0.6504426,-0.6434895,-0.63534164,-0.6264281,-0.6151867,-0.6055074,-0.5981254,-0.59000826,-0.5799308,-0.5655956,-0.5496983,-0.53536314,-0.52023154,-0.50513065,-0.48574138,-0.4644531,-0.44389987,-0.42374492,-0.4035899,-0.38230163,-0.3617484,-0.34159344,-0.3222348,-0.30244738,-0.2819249,-0.2652617,-0.25402027,-0.24703646,-0.243177,-0.24045092,-0.24008334,-0.24820048,-0.26565993,-0.29316628,-0.32958615,-0.37455207,-0.42530704,-0.48031974,-0.5349649,-0.5853524,-0.632248,-0.67565167,-0.715931,-0.75042117,-0.7783257,-0.80041045,-0.8182375,-0.83140874,-0.84032226,-0.84344655,-0.84304833,-0.84344655,-0.84344655,-0.84304833,-0.8414862,-0.8399547,-0.83955646,-0.838025,-0.8349006,-0.8291114,-0.8228934,-0.81940144,-0.81670594,-0.81321406,-0.80816,-0.8031366,-0.80080867,-0.7988789,-0.796551,-0.7918951,-0.7868717,-0.7837474,-0.7810519,-0.7783257,-0.77483386,-0.7729041,-0.7744663,-0.7767942,-0.77755994,-0.775232,-0.7717401,-0.7705761,-0.77137256,-0.7729041,-0.7733023,-0.7729041,-0.7733023,-0.7733023,-0.7725059,-0.7702086,-0.7686464,-0.7702086,-0.77137256,-0.77213836,-0.7705761,-0.7678807,-0.7667167,-0.7659203,-0.7659203,-0.7651545,-0.76282656,-0.76282656,-0.7632248,-0.76282656,-0.7620608,-0.76245904,-0.7632248,-0.763623,-0.76245904,-0.76049864,-0.75700676,-0.7574049,-0.7593347,-0.7597329,-0.7578032,-0.75431126,-0.75198334,-0.7492572,-0.74772567,-0.74346805,-0.73917973,-0.7380464,-0.73881215,-0.73917973,-0.7376481,-0.73455447,-0.7337581,-0.73415625,-0.736086,-0.73492205,-0.7333905,-0.73259413,-0.7302662,-0.72913283,-0.72757065,-0.7268049,-0.7268049,-0.7268049,-0.7248446,-0.72175086,-0.7198211,-0.7205869,-0.7213833,-0.72098505,-0.718259,-0.715931,-0.71709496,-0.71942294,-0.722149,-0.72175086,-0.71905535,-0.71516526,-0.7116734,-0.71050936,-0.7113058,-0.71283734,-0.7136031,-0.7113058,-0.7058535,-0.7004319,-0.69693995,-0.69693995,-0.6965724,-0.6938463,-0.6895886,-0.68572915,-0.68223727,-0.6736913,-0.6566607,-0.6314516,-0.61053085,-0.6035777,-0.61053085,-0.6264281,-0.6376696,-0.6403651,-0.6369039,-0.6337795,-0.6380372,-0.6520048,-0.6736913,-0.69966614,-0.7198211,-0.7295004,-0.7287346,-0.72175086,-0.715931,-0.71439946,-0.71516526,-0.718259,-0.72098505,-0.723313,-0.72524273,-0.7271725,-0.7264067,-0.72564095,-0.72833645,-0.73688245,-0.73492205,-0.68572915,-0.5562839,-0.32027447,0.0064017773,0.36135018,0.66750383,0.8515637,0.8860538,0.79112935,0.5961957,0.3218367,-0.015682876,-0.3772475,-0.6961742,-0.90271693,-0.9647441,-0.91628635,-0.82987714,-0.76282656,-0.7353202,-0.7395779,-0.7554752,-0.76748246,-0.7717401,-0.7682482,-0.7593347,-0.75042117,-0.74306977,-0.736086,-0.73106253,-0.72564095,-0.7205869,-0.7167274,-0.71207154,-0.70625174,-0.69810396,-0.68842465,-0.67914355,-0.67023003,-0.6624805,-0.6543327,-0.6477471,-0.64309126,-0.63843536,-0.631084,-0.6210065,-0.6093669,-0.59735966,-0.5872821,-0.5783686,-0.5675254,-0.5562839,-0.5450424,-0.53147304,-0.5171379,-0.4993108,-0.47995222,-0.46096116,-0.44197017,-0.421417,-0.40012866,-0.37764573,-0.35709256,-0.3373357,-0.31834477,-0.29935372,-0.2830888,-0.2702852,-0.2610041,-0.25558245,-0.2524581,-0.25478607,-0.26486355,-0.28152663,-0.30557173,-0.33773392,-0.37764573,-0.42647105,-0.47915584,-0.5322694,-0.5822587,-0.6287561,-0.6740895,-0.7136031,-0.74772567,-0.775232,-0.79731673,-0.81670594,-0.8333691,-0.84614205,-0.85196185,-0.8535241,-0.8535241,-0.85272765,-0.8542898,-0.8542898,-0.8515637,-0.84770423,-0.84111863,-0.8352988,-0.829479,-0.82598704,-0.8236592,-0.8228934,-0.82136184,-0.8186357,-0.814378,-0.81088614,-0.8062303,-0.80353475,-0.80080867,-0.79808253,-0.796551,-0.79382485,-0.7899654,-0.7857077,-0.7818176,-0.78065366,-0.77872396,-0.776396,-0.7733023,-0.7717401,-0.77483386,-0.77872396,-0.7794897,-0.77599776,-0.77097434,-0.7686464,-0.76941216,-0.77213836,-0.7744663,-0.77599776,-0.77795815,-0.77795815,-0.7771617,-0.7733023,-0.7705761,-0.7705761,-0.77213836,-0.7733023,-0.7717401,-0.77137256,-0.7717401,-0.7729041,-0.7729041,-0.7702086,-0.7682482,-0.76748246,-0.76708424,-0.7651545,-0.7616626,-0.76089686,-0.763623,-0.76748246,-0.76708424,-0.7612951,-0.75431126,-0.7492572,-0.74965537,-0.75198334,-0.75198334,-0.7500536,-0.7484914,-0.7469599,-0.74732745,-0.74772567,-0.74772567,-0.74809325,-0.7465617,-0.74383557,-0.73881215,-0.73492205,-0.73415625,-0.7357184,-0.7376481,-0.73725,-0.7376481,-0.73841393,-0.73881215,-0.73917973,-0.7376481,-0.7333905,-0.7298986,-0.72600853,-0.7213833,-0.71439946,-0.70818144,-0.7050878,-0.7035562,-0.70159584,-0.69501024,-0.67990935,-0.65782464,-0.6345759,-0.62024075,-0.6175146,-0.6291236,-0.6454192,-0.65782464,-0.6609183,-0.6570282,-0.6543327,-0.6609183,-0.67718315,-0.6985022,-0.71709496,-0.7295004,-0.73415625,-0.73222655,-0.72757065,-0.72251666,-0.71942294,-0.72098505,-0.72564095,-0.7295004,-0.7298986,-0.7279689,-0.72524273,-0.72175086,-0.7213833,-0.72524273,-0.7306644,-0.71207154,-0.6330137,-0.4597972,-0.18464172,0.14472997,0.45164955,0.66517603,0.7384138,0.68456507,0.54038656,0.3256961,0.054430723,-0.2575122,-0.5647992,-0.8077924,-0.9321837,-0.9337152,-0.8620394,-0.7802861,-0.7302662,-0.72175086,-0.73648417,-0.7527491,-0.7597329,-0.7554752,-0.74732745,-0.74114007,-0.73688245,-0.73222655,-0.72757065,-0.7229148,-0.718259,-0.7132355,-0.7066499,-0.69890034,-0.6911508,-0.6810733,-0.6740895,-0.66866785,-0.66477776,-0.6613165,-0.65586424,-0.6469507,-0.6369039,-0.6279903,-0.62024075,-0.61325693,-0.6051092,-0.59466416,-0.58418846,-0.57487667,-0.5671271,-0.5586118,-0.5458082,-0.5303091,-0.513646,-0.4958189,-0.47799182,-0.4597972,-0.440408,-0.42104942,-0.40205836,-0.38346553,-0.3625142,-0.3423592,-0.3260942,-0.31292313,-0.30324376,-0.29393208,-0.2850185,-0.27883106,-0.27843297,-0.28541672,-0.29935372,-0.32107085,-0.35323304,-0.39158267,-0.43538457,-0.48148376,-0.5279811,-0.57450914,-0.62024075,-0.6624805,-0.70122826,-0.73415625,-0.76245904,-0.7857077,-0.80273837,-0.81397986,-0.8209636,-0.8267835,-0.83064294,-0.8325727,-0.8325727,-0.83297086,-0.8352988,-0.8376267,-0.838025,-0.8341348,-0.8267835,-0.8190339,-0.8136123,-0.8120501,-0.8097222,-0.8089564,-0.81012034,-0.81012034,-0.80932397,-0.8062303,-0.80004287,-0.7930591,-0.78880143,-0.7857077,-0.7833798,-0.7818176,-0.7802861,-0.77795815,-0.7744663,-0.7702086,-0.7682482,-0.76904464,-0.77137256,-0.7725059,-0.7702086,-0.7667167,-0.7643888,-0.7651545,-0.76708424,-0.7667167,-0.7651545,-0.7632248,-0.7601311,-0.75856894,-0.7566392,-0.7566392,-0.7597329,-0.76282656,-0.7639905,-0.76245904,-0.7601311,-0.7597329,-0.7620608,-0.763623,-0.76089686,-0.7558428,-0.75198334,-0.7508193,-0.7515851,-0.75121754,-0.7500536,-0.74965537,-0.75042117,-0.7531473,-0.755077,-0.7554752,-0.75431126,-0.75238156,-0.7469599,-0.74074185,-0.73725,-0.73725,-0.7403437,-0.7442338,-0.74579597,-0.74579597,-0.74579597,-0.74539775,-0.744632,-0.7419058,-0.73881215,-0.73688245,-0.736086,-0.73492205,-0.73222655,-0.7298986,-0.7271725,-0.7240788,-0.7198211,-0.71207154,-0.7039238,-0.69810396,-0.69810396,-0.7008301,-0.7000643,-0.69035435,-0.6705976,-0.6461849,-0.6271939,-0.6198425,-0.6271939,-0.64269304,-0.6570282,-0.66477776,-0.664012,-0.66168404,-0.6659417,-0.67914355,-0.69966614,-0.71865714,-0.73222655,-0.73648417,-0.7333905,-0.72913283,-0.7248446,-0.72524273,-0.7295004,-0.7333905,-0.736086,-0.73415625,-0.7302662,-0.7287346,-0.7298986,-0.73182833,-0.736086,-0.74150765,-0.7295004,-0.6675039,-0.52219194,-0.28115904,0.020736933,0.31485283,0.532637,0.62137413,0.59000826,0.46871078,0.28152657,0.046681166,-0.22844368,-0.51404417,-0.7578032,-0.90700525,-0.93993324,-0.8872178,-0.8058627,-0.7442338,-0.72098505,-0.7279689,-0.744632,-0.7554752,-0.75700676,-0.7531473,-0.7465617,-0.7399761,-0.73259413,-0.7248446,-0.71905535,-0.7136031,-0.7074157,-0.69966614,-0.6926823,-0.68842465,-0.685331,-0.68183905,-0.67565167,-0.6679021,-0.6613165,-0.6543327,-0.6477471,-0.63920116,-0.63184977,-0.62602997,-0.6206083,-0.6144209,-0.6035777,-0.5915398,-0.5802983,-0.5690875,-0.55784607,-0.5458082,-0.53380096,-0.52219194,-0.5105523,-0.4966153,-0.47839004,-0.45903146,-0.44120437,-0.42414314,-0.40515208,-0.38499707,-0.36484212,-0.34897536,-0.33656996,-0.32532853,-0.31408703,-0.30324376,-0.29665822,-0.29782212,-0.30440778,-0.31718075,-0.33773392,-0.36793578,-0.40438628,-0.44546205,-0.4869054,-0.5299415,-0.578001,-0.62602997,-0.67023003,-0.70625174,-0.73415625,-0.75896716,-0.7791221,-0.7957852,-0.8058627,-0.81128436,-0.8170735,-0.82329154,-0.8275492,-0.828315,-0.8256195,-0.8236592,-0.82329154,-0.8236592,-0.8228934,-0.8209636,-0.81786996,-0.81590956,-0.814378,-0.8104879,-0.80662847,-0.80430055,-0.8031366,-0.80041045,-0.796551,-0.7918951,-0.78803563,-0.78530955,-0.7833798,-0.7802861,-0.77755994,-0.7767942,-0.77563024,-0.77366984,-0.76904464,-0.76555276,-0.7639905,-0.7659203,-0.7678807,-0.76748246,-0.7643888,-0.7616626,-0.76089686,-0.7616626,-0.76245904,-0.76245904,-0.7620608,-0.7612951,-0.7593347,-0.75700676,-0.7566392,-0.7566392,-0.75856894,-0.7597329,-0.7574049,-0.7535455,-0.75121754,-0.7508193,-0.75121754,-0.75042117,-0.7492572,-0.74772567,-0.7469599,-0.7469599,-0.74539775,-0.74346805,-0.7426716,-0.7419058,-0.74114007,-0.73881215,-0.73688245,-0.7353202,-0.736086,-0.736086,-0.73492205,-0.73492205,-0.7357184,-0.7380464,-0.7380464,-0.7353202,-0.7329923,-0.7329923,-0.7353202,-0.73841393,-0.7380464,-0.736086,-0.73415625,-0.7337581,-0.7333905,-0.73106253,-0.7287346,-0.7271725,-0.72564095,-0.7240788,-0.71942294,-0.7147671,-0.71050936,-0.7070175,-0.7039238,-0.7000643,-0.69810396,-0.69693995,-0.69231474,-0.6783472,-0.65356696,-0.6287561,-0.6155849,-0.6182804,-0.63341194,-0.64927864,-0.6585904,-0.65975434,-0.65782464,-0.65782464,-0.66208225,-0.67525345,-0.6942445,-0.7132355,-0.72600853,-0.72913283,-0.72757065,-0.7248446,-0.7229148,-0.72175086,-0.71905535,-0.7174932,-0.7174932,-0.71905535,-0.72098505,-0.7213833,-0.7213833,-0.72447693,-0.7306644,-0.736086,-0.7147671,-0.631084,-0.46019542,-0.20286703,0.09706867,0.3753178,0.57178295,0.64425516,0.60161734,0.46871078,0.26875365,0.022268414,-0.25827795,-0.53536314,-0.75856894,-0.8848899,-0.9035133,-0.85039973,-0.7825834,-0.7380464,-0.72600853,-0.736086,-0.7515851,-0.7616626,-0.7620608,-0.7558428,-0.7484914,-0.742304,-0.7376481,-0.73259413,-0.7264067,-0.7198211,-0.7140013,-0.7101418,-0.7050878,-0.69810396,-0.6907526,-0.6834012,-0.6775814,-0.6717616,-0.66441023,-0.65586424,-0.6481147,-0.6411615,-0.6349435,-0.6279903,-0.62024075,-0.612093,-0.6027813,-0.593102,-0.58109474,-0.57061905,-0.5609398,-0.5512605,-0.5407848,-0.52644956,-0.511318,-0.49545133,-0.47955406,-0.4624927,-0.44236833,-0.42181516,-0.40205836,-0.3838331,-0.36600608,-0.3485772,-0.3330781,-0.32107085,-0.31252486,-0.30593926,-0.30128342,-0.29975182,-0.30477536,-0.31718075,-0.33656996,-0.36214656,-0.3962385,-0.43654853,-0.48031974,-0.52451986,-0.5651974,-0.6043434,-0.643857,-0.68300307,-0.71865714,-0.744632,-0.7643888,-0.7791221,-0.79073113,-0.80004287,-0.80662847,-0.8104879,-0.8124483,-0.81397986,-0.81321406,-0.8097222,-0.80662847,-0.80430055,-0.80273837,-0.80080867,-0.79694915,-0.7930591,-0.79073113,-0.7899654,-0.7884032,-0.78454375,-0.7798879,-0.7767942,-0.77483386,-0.7729041,-0.7686464,-0.7632248,-0.7601311,-0.7597329,-0.76089686,-0.76049864,-0.75896716,-0.7578032,-0.75700676,-0.7558428,-0.75431126,-0.7531473,-0.7527491,-0.75431126,-0.7547095,-0.7515851,-0.7488896,-0.74772567,-0.74809325,-0.7488896,-0.74772567,-0.74579597,-0.7442338,-0.7449995,-0.74579597,-0.744632,-0.74306977,-0.7419058,-0.7426716,-0.74346805,-0.74346805,-0.7419058,-0.74074185,-0.74074185,-0.74114007,-0.7403437,-0.73917973,-0.7395779,-0.7403437,-0.74074185,-0.73881215,-0.73648417,-0.7353202,-0.7357184,-0.73725,-0.73841393,-0.73881215,-0.7395779,-0.7403437,-0.7399761,-0.73725,-0.73455447,-0.7333905,-0.7337581,-0.7333905,-0.73106253,-0.7287346,-0.7271725,-0.72757065,-0.72833645,-0.72757065,-0.72524273,-0.723313,-0.7229148,-0.7229148,-0.72175086,-0.7202193,-0.71865714,-0.718259,-0.71789134,-0.7174932,-0.7174932,-0.71789134,-0.718259,-0.7174932,-0.7136031,-0.71050936,-0.70857966,-0.7093454,-0.71050936,-0.7101418,-0.7089778,-0.70781386,-0.7074157,-0.7070175,-0.7050878,-0.7027598,-0.7000643,-0.69693995,-0.6934787,-0.6876589,-0.68223727,-0.67718315,-0.67485523,-0.6736913,-0.6717616,-0.6690661,-0.66208225,-0.6469507,-0.6256624,-0.60317945,-0.59000826,-0.59077406,-0.60394526,-0.62024075,-0.6291236,-0.6302876,-0.6279903,-0.6275921,-0.63534164,-0.6520048,-0.6760192,-0.69966614,-0.7167274,-0.7229148,-0.718259,-0.71050936,-0.7058535,-0.7066499,-0.7101418,-0.71283734,-0.71439946,-0.71439946,-0.71516526,-0.715931,-0.7147671,-0.71516526,-0.71942294,-0.7264067,-0.7101418,-0.6287561,-0.4539774,-0.18736792,0.12613714,0.41988552,0.6399975,0.7395779,0.7205869,0.5969615,0.39041865,0.1311605,-0.16335344,-0.4539774,-0.6973382,-0.85003215,-0.89187366,-0.8538916,-0.7899654,-0.7449995,-0.73455447,-0.74579597,-0.7620608,-0.77213836,-0.7733023,-0.76904464,-0.7612951,-0.75391304,-0.74809325,-0.74346805,-0.7380464,-0.7295004,-0.7205869,-0.71207154,-0.7058535,-0.7000643,-0.6934787,-0.6868931,-0.6806751,-0.67525345,-0.6698318,-0.66208225,-0.6547003,-0.6473489,-0.6411615,-0.6341777,-0.6244984,-0.61402273,-0.604711,-0.59659386,-0.5892118,-0.57913435,-0.5667596,-0.5531902,-0.5392226,-0.52451986,-0.50822437,-0.49195945,-0.47453058,-0.45707107,-0.4377125,-0.41599536,-0.39507455,-0.37608355,-0.35865468,-0.34082764,-0.3222348,-0.30517346,-0.29123652,-0.28152663,-0.27570683,-0.2718473,-0.27261305,-0.28036267,-0.29626,-0.32027447,-0.3505069,-0.38772327,-0.43033051,-0.47722608,-0.5256839,-0.5721812,-0.61711645,-0.6593561,-0.69890034,-0.73259413,-0.75896716,-0.7794897,-0.7961528,-0.8097222,-0.8186357,-0.8225258,-0.82329154,-0.82329154,-0.82405734,-0.8248231,-0.82329154,-0.8201979,-0.8170735,-0.8151438,-0.8128159,-0.80816,-0.8039023,-0.80080867,-0.80004287,-0.7996447,-0.79731673,-0.79345727,-0.7895672,-0.78723925,-0.7864735,-0.78530955,-0.7837474,-0.7814194,-0.7802861,-0.77872396,-0.7767942,-0.77563024,-0.775232,-0.77563024,-0.776396,-0.775232,-0.77366984,-0.7729041,-0.7729041,-0.7729041,-0.77097434,-0.76904464,-0.7682482,-0.76904464,-0.7702086,-0.76904464,-0.76708424,-0.7647563,-0.7639905,-0.7647563,-0.7647563,-0.7651545,-0.76555276,-0.76708424,-0.76748246,-0.7651545,-0.7616626,-0.7581707,-0.75624096,-0.7554752,-0.75391304,-0.7527491,-0.75198334,-0.7531473,-0.7547095,-0.7535455,-0.7515851,-0.7492572,-0.74809325,-0.74772567,-0.7461635,-0.7442338,-0.74346805,-0.74346805,-0.742304,-0.7395779,-0.73725,-0.73648417,-0.7380464,-0.73881215,-0.73648417,-0.7333905,-0.73106253,-0.7306644,-0.7302662,-0.7287346,-0.7268049,-0.72524273,-0.72600853,-0.7268049,-0.72524273,-0.723313,-0.722149,-0.7229148,-0.7229148,-0.7213833,-0.71905535,-0.7174932,-0.718259,-0.71942294,-0.71905535,-0.718259,-0.7167274,-0.7174932,-0.7174932,-0.7163292,-0.715931,-0.715931,-0.71789134,-0.71905535,-0.7174932,-0.71439946,-0.71207154,-0.71050936,-0.7097436,-0.70818144,-0.7074157,-0.70818144,-0.71050936,-0.71207154,-0.7101418,-0.7070175,-0.7035562,-0.7023922,-0.70199406,-0.7008301,-0.69890034,-0.69540846,-0.6919166,-0.6876589,-0.68183905,-0.6764174,-0.6721598,-0.67023003,-0.6690661,-0.6671057,-0.662848,-0.6520048,-0.6330137,-0.6086011,-0.5865164,-0.5764389,-0.5830245,-0.60085154,-0.6179128,-0.62526417,-0.62253803,-0.61711645,-0.6179128,-0.62952185,-0.6508408,-0.6768156,-0.69966614,-0.7132355,-0.715931,-0.71050936,-0.7039238,-0.7008301,-0.7023922,-0.7058535,-0.7074157,-0.70857966,-0.7093454,-0.7109076,-0.71207154,-0.7113058,-0.7116734,-0.718259,-0.7229148,-0.6942445,-0.5865164,-0.37338805,-0.06414068,0.28541684,0.60667145,0.83802485,0.9337152,0.89885736,0.7453977,0.4989432,0.18736804,-0.16102552,-0.49235767,-0.75198334,-0.8903421,-0.9035133,-0.8418844,-0.7698104,-0.73222655,-0.73222655,-0.7515851,-0.7705761,-0.7791221,-0.77795815,-0.7717401,-0.76245904,-0.7531473,-0.7461635,-0.7419058,-0.7380464,-0.73222655,-0.7240788,-0.7147671,-0.7074157,-0.70122826,-0.69464266,-0.68882287,-0.6826048,-0.6768156,-0.6698318,-0.6609183,-0.65160656,-0.6423255,-0.6349435,-0.6271939,-0.6175146,-0.6070389,-0.59696144,-0.5888443,-0.5799308,-0.56829107,-0.5543542,-0.53962076,-0.5256839,-0.51171625,-0.49545133,-0.47839004,-0.46019542,-0.44157195,-0.4206512,-0.39816827,-0.37455207,-0.35167092,-0.33267987,-0.31408703,-0.29469782,-0.2768708,-0.2610041,-0.2505284,-0.24510676,-0.243177,-0.24627066,-0.25518423,-0.27261305,-0.29858792,-0.33191413,-0.37338805,-0.421417,-0.47489816,-0.52877754,-0.57953256,-0.6271939,-0.67023003,-0.7089778,-0.7419058,-0.7682482,-0.7895672,-0.80739427,-0.8221276,-0.83297086,-0.8383925,-0.84111863,-0.8414862,-0.84304833,-0.84344655,-0.8414862,-0.8383925,-0.8349006,-0.8325727,-0.82987714,-0.82598704,-0.8217294,-0.8182375,-0.81670594,-0.815542,-0.81321406,-0.81088614,-0.8077924,-0.8058627,-0.8031366,-0.7988789,-0.7949888,-0.7918951,-0.79112935,-0.79073113,-0.78880143,-0.78723925,-0.78530955,-0.78530955,-0.78454375,-0.7818176,-0.77872396,-0.7767942,-0.77755994,-0.77872396,-0.7791221,-0.77795815,-0.77563024,-0.7744663,-0.77406806,-0.7725059,-0.7717401,-0.77097434,-0.77137256,-0.7702086,-0.76748246,-0.7643888,-0.76245904,-0.763623,-0.7659203,-0.7667167,-0.76555276,-0.7620608,-0.75896716,-0.7558428,-0.75391304,-0.7531473,-0.75431126,-0.75700676,-0.7578032,-0.7558428,-0.7535455,-0.7515851,-0.75198334,-0.7527491,-0.7515851,-0.74965537,-0.74732745,-0.74732745,-0.74809325,-0.74772567,-0.7465617,-0.7449995,-0.74306977,-0.74074185,-0.7376481,-0.73415625,-0.73259413,-0.7337581,-0.7353202,-0.7357184,-0.73492205,-0.7337581,-0.7337581,-0.73455447,-0.7337581,-0.7314302,-0.7295004,-0.72833645,-0.7271725,-0.7268049,-0.7264067,-0.72600853,-0.7271725,-0.72757065,-0.7264067,-0.7236806,-0.7213833,-0.7205869,-0.7198211,-0.71865714,-0.71789134,-0.7167274,-0.71709496,-0.71709496,-0.7155634,-0.7132355,-0.7109076,-0.7109076,-0.7116734,-0.7116734,-0.7093454,-0.7050878,-0.69966614,-0.69464266,-0.6880264,-0.68223727,-0.6768156,-0.6736913,-0.6717616,-0.66866785,-0.6655742,-0.65782464,-0.64192724,-0.6182804,-0.59426594,-0.57913435,-0.5799308,-0.59466416,-0.61246055,-0.62370205,-0.62602997,-0.6244984,-0.62602997,-0.63650566,-0.65549666,-0.67951113,-0.70122826,-0.7140013,-0.7163292,-0.7109076,-0.7047202,-0.7023922,-0.704322,-0.7074157,-0.70818144,-0.70781386,-0.7074157,-0.7093454,-0.71246976,-0.71283734,-0.7132355,-0.7167274,-0.72447693,-0.7109076,-0.6357399,-0.46482062,-0.18660218,0.16335344,0.51171625,0.78258336,0.9127945,0.8992251,0.76555264,0.5388551,0.23968506,-0.11412996,-0.47180444,-0.7647563,-0.92908996,-0.9500107,-0.88103044,-0.7930591,-0.73688245,-0.723313,-0.73688245,-0.75896716,-0.7733023,-0.7767942,-0.77137256,-0.7612951,-0.75121754,-0.744632,-0.74150765,-0.73688245,-0.72833645,-0.71789134,-0.70781386,-0.7004319,-0.69540846,-0.69035435,-0.6845652,-0.6787454,-0.67485523,-0.6690661,-0.6593561,-0.6489111,-0.63920116,-0.6314516,-0.6256624,-0.6179128,-0.6082029,-0.5961957,-0.5853524,-0.57294697,-0.5586118,-0.54427665,-0.53070724,-0.51830184,-0.5039667,-0.4869054,-0.46714854,-0.4450639,-0.42414314,-0.4035899,-0.3830673,-0.36291236,-0.34352314,-0.3230006,-0.30207986,-0.2838546,-0.2702852,-0.26020765,-0.2524581,-0.243177,-0.23812288,-0.2412166,-0.2567464,-0.2850185,-0.31834477,-0.35632676,-0.39816827,-0.4435017,-0.49272525,-0.5427145,-0.59077406,-0.6376696,-0.6834012,-0.72600853,-0.76049864,-0.7857077,-0.8023708,-0.8151438,-0.82715106,-0.838025,-0.8446105,-0.847306,-0.8469385,-0.84770423,-0.8465403,-0.84304833,-0.83918893,-0.835697,-0.8360646,-0.838025,-0.8376267,-0.8341348,-0.8287132,-0.8252213,-0.8228934,-0.8186357,-0.814378,-0.80932397,-0.8058627,-0.80273837,-0.7984807,-0.7926609,-0.78723925,-0.78530955,-0.78414553,-0.7833798,-0.7825834,-0.7810519,-0.7810519,-0.7802861,-0.77755994,-0.77563024,-0.7733023,-0.7744663,-0.776396,-0.7771617,-0.77795815,-0.7783257,-0.7810519,-0.7818176,-0.7794897,-0.77563024,-0.77097434,-0.76748246,-0.7678807,-0.76941216,-0.7725059,-0.77563024,-0.7794897,-0.78065366,-0.7791221,-0.7767942,-0.7733023,-0.77213836,-0.77137256,-0.7702086,-0.76941216,-0.7682482,-0.7682482,-0.76708424,-0.76282656,-0.7593347,-0.7566392,-0.7578032,-0.7593347,-0.7574049,-0.7554752,-0.75238156,-0.75238156,-0.7535455,-0.7535455,-0.7531473,-0.75238156,-0.75238156,-0.7515851,-0.74772567,-0.744632,-0.7442338,-0.74732745,-0.7500536,-0.7492572,-0.74539775,-0.7403437,-0.7380464,-0.73688245,-0.73688245,-0.7376481,-0.7399761,-0.7426716,-0.7426716,-0.7395779,-0.7357184,-0.73106253,-0.7314302,-0.73222655,-0.7306644,-0.72757065,-0.72524273,-0.723313,-0.722149,-0.72098505,-0.7202193,-0.71865714,-0.7174932,-0.71439946,-0.7101418,-0.70625174,-0.703158,-0.7008301,-0.6973382,-0.69308054,-0.68882287,-0.685331,-0.6806751,-0.6675039,-0.6454192,-0.62253803,-0.60743713,-0.6055074,-0.6151867,-0.6275921,-0.6369039,-0.63999754,-0.6407633,-0.64309126,-0.65123904,-0.6690661,-0.6919166,-0.7136031,-0.72524273,-0.7248446,-0.718259,-0.7132355,-0.7136031,-0.7167274,-0.71942294,-0.7198211,-0.71905535,-0.7205869,-0.723313,-0.72524273,-0.72600853,-0.72600853,-0.73106253,-0.73881215,-0.72524273,-0.65549666,-0.49854505,-0.24470854,0.073421836,0.38692677,0.6233344,0.7287346,0.70199394,0.57450914,0.37338817,0.11489582,-0.19239134,-0.5105523,-0.77755994,-0.9298557,-0.9503783,-0.8837259,-0.79808253,-0.74114007,-0.7248446,-0.73455447,-0.74965537,-0.7601311,-0.76282656,-0.75856894,-0.75198334,-0.74383557,-0.73725,-0.73222655,-0.72757065,-0.72098505,-0.7140013,-0.7066499,-0.70159584,-0.6973382,-0.69231474,-0.68493277,-0.6775814,-0.6698318,-0.6636138,-0.65819216,-0.652403,-0.6469507,-0.6395993,-0.6302876,-0.6206083,-0.61053085,-0.60124975,-0.59000826,-0.5764389,-0.56210375,-0.5493001,-0.5388551,-0.5283793,-0.5144424,-0.499709,-0.48228014,-0.46754676,-0.4508837,-0.43072867,-0.40787822,-0.38423133,-0.3625142,-0.34315556,-0.3260942,-0.3105951,-0.29742402,-0.28811216,-0.28152663,-0.2791987,-0.28152663,-0.28927624,-0.30244738,-0.32067257,-0.34548354,-0.3788097,-0.42025304,-0.46871072,-0.51909816,-0.5671271,-0.6136245,-0.6574264,-0.6985022,-0.7329923,-0.76089686,-0.7818176,-0.7984807,-0.8124483,-0.8225258,-0.8287132,-0.8318069,-0.8341348,-0.8376267,-0.83955646,-0.83918893,-0.835697,-0.83064294,-0.8275492,-0.8252213,-0.8228934,-0.8201979,-0.81786996,-0.81670594,-0.81397986,-0.81012034,-0.8058627,-0.80080867,-0.80080867,-0.80080867,-0.7984807,-0.795387,-0.790333,-0.78607523,-0.78221583,-0.77755994,-0.77366984,-0.7702086,-0.7698104,-0.77097434,-0.77213836,-0.77213836,-0.7717401,-0.77213836,-0.77097434,-0.7682482,-0.7682482,-0.7682482,-0.7702086,-0.77213836,-0.7705761,-0.76748246,-0.7651545,-0.76748246,-0.7682482,-0.7682482,-0.7663185,-0.76282656,-0.76282656,-0.7643888,-0.7651545,-0.76282656,-0.7578032,-0.75391304,-0.7515851,-0.7508193,-0.7535455,-0.7566392,-0.76049864,-0.76089686,-0.75700676,-0.75121754,-0.7465617,-0.74539775,-0.7469599,-0.74732745,-0.7461635,-0.7426716,-0.7399761,-0.7399761,-0.7399761,-0.74074185,-0.7426716,-0.744632,-0.74539775,-0.74306977,-0.73841393,-0.73222655,-0.73106253,-0.7329923,-0.73455447,-0.73455447,-0.73106253,-0.7268049,-0.7236806,-0.7229148,-0.7236806,-0.72524273,-0.7279689,-0.7279689,-0.72564095,-0.72251666,-0.71942294,-0.7198211,-0.7202193,-0.71905535,-0.71516526,-0.7097436,-0.70625174,-0.7039238,-0.70159584,-0.6977364,-0.6938463,-0.69308054,-0.6934787,-0.69464266,-0.69035435,-0.6764174,-0.65316874,-0.632248,-0.6190768,-0.6175146,-0.6287561,-0.64502096,-0.65356696,-0.65509844,-0.65123904,-0.6469507,-0.65123904,-0.66477776,-0.68493277,-0.70625174,-0.7213833,-0.72833645,-0.72564095,-0.71789134,-0.7116734,-0.71207154,-0.718259,-0.7240788,-0.7268049,-0.7248446,-0.72098505,-0.7202193,-0.7202193,-0.722149,-0.72757065,-0.7353202,-0.72447693,-0.65819216,-0.50669277,-0.26020765,0.043219924,0.33344555,0.54620636,0.63184977,0.5961957,0.47064054,0.28076077,0.047079444,-0.2253499,-0.50745857,-0.7488896,-0.89922506,-0.93334764,-0.8806322,-0.80080867,-0.7419058,-0.722149,-0.73106253,-0.7488896,-0.7612951,-0.7632248,-0.75856894,-0.75042117,-0.7419058,-0.7337581,-0.7264067,-0.7213833,-0.7155634,-0.7097436,-0.704322,-0.69810396,-0.6938463,-0.6876589,-0.6783472,-0.66866785,-0.65975434,-0.6547003,-0.65123904,-0.6469507,-0.6415291,-0.6341777,-0.6275921,-0.6210065,-0.612093,-0.60085154,-0.58844614,-0.578001,-0.5690875,-0.5609398,-0.5512605,-0.5407848,-0.5283793,-0.512482,-0.4931234,-0.47140622,-0.4512819,-0.43575215,-0.421417,-0.40475392,-0.38499707,-0.3636781,-0.3446871,-0.32842225,-0.31485283,-0.30400956,-0.29782212,-0.29935372,-0.30244738,-0.30633748,-0.31292313,-0.32686007,-0.35243666,-0.387325,-0.427635,-0.47024226,-0.512482,-0.55901,-0.6043434,-0.64502096,-0.6810733,-0.71283734,-0.7399761,-0.763623,-0.7810519,-0.7930591,-0.8012068,-0.8077924,-0.8136123,-0.8190339,-0.82136184,-0.82136184,-0.82056546,-0.8182375,-0.8170735,-0.8163078,-0.8151438,-0.81128436,-0.8050663,-0.7992465,-0.795387,-0.7926609,-0.79073113,-0.7864735,-0.78221583,-0.77872396,-0.77795815,-0.77755994,-0.7744663,-0.77097434,-0.7678807,-0.7651545,-0.76555276,-0.7651545,-0.7620608,-0.75896716,-0.75431126,-0.7515851,-0.7488896,-0.7469599,-0.74772567,-0.7488896,-0.75042117,-0.75042117,-0.7488896,-0.7508193,-0.75391304,-0.755077,-0.75391304,-0.74965537,-0.7469599,-0.7484914,-0.7527491,-0.7547095,-0.75238156,-0.74732745,-0.7419058,-0.74150765,-0.74114007,-0.74114007,-0.7419058,-0.74346805,-0.74732745,-0.7488896,-0.7484914,-0.7461635,-0.74346805,-0.7442338,-0.7461635,-0.74539775,-0.74306977,-0.7399761,-0.7403437,-0.74114007,-0.74074185,-0.7376481,-0.7329923,-0.73106253,-0.73106253,-0.73182833,-0.73222655,-0.7314302,-0.73222655,-0.7337581,-0.73492205,-0.73492205,-0.7329923,-0.73182833,-0.7302662,-0.7287346,-0.7271725,-0.7271725,-0.72833645,-0.72833645,-0.72564095,-0.72251666,-0.71905535,-0.718259,-0.7198211,-0.72098505,-0.7202193,-0.71905535,-0.7202193,-0.723313,-0.72447693,-0.7202193,-0.71207154,-0.7039238,-0.6985022,-0.69540846,-0.6934787,-0.69035435,-0.68882287,-0.68882287,-0.6880264,-0.68183905,-0.66673815,-0.6454192,-0.62526417,-0.61325693,-0.61325693,-0.6213741,-0.63341194,-0.6423255,-0.6461849,-0.64658314,-0.6458174,-0.6520048,-0.665176,-0.6826048,-0.7004319,-0.7136031,-0.71865714,-0.7167274,-0.71283734,-0.70818144,-0.70781386,-0.7101418,-0.7116734,-0.7113058,-0.7097436,-0.7097436,-0.7132355,-0.715931,-0.71905535,-0.7248446,-0.72833645,-0.7066499,-0.6217723,-0.4493215,-0.19318771,0.09823263,0.35632682,0.5252856,0.5721812,0.5152081,0.37957537,0.18543816,-0.049805522,-0.31718075,-0.5806965,-0.7884032,-0.90002143,-0.9054431,-0.8449781,-0.7725059,-0.7271725,-0.71865714,-0.7306644,-0.74579597,-0.7535455,-0.7531473,-0.7492572,-0.742304,-0.7337581,-0.72564095,-0.71865714,-0.71439946,-0.7113058,-0.7070175,-0.7004319,-0.69540846,-0.6926823,-0.68882287,-0.6837688,-0.6764174,-0.6671057,-0.66015255,-0.652403,-0.64465344,-0.63650566,-0.6287561,-0.62293625,-0.61674887,-0.6086011,-0.59928936,-0.59000826,-0.58186054,-0.5713848,-0.5582136,-0.54234695,-0.52721536,-0.5159739,-0.50513065,-0.49195945,-0.47646028,-0.45903146,-0.4442981,-0.43033051,-0.41329986,-0.39158267,-0.368334,-0.34817898,-0.33460963,-0.32686007,-0.3222348,-0.3179465,-0.316415,-0.31601673,-0.31911045,-0.32765645,-0.34431952,-0.37182587,-0.40591782,-0.44466567,-0.48574138,-0.5283793,-0.5721812,-0.6147885,-0.6543327,-0.6895886,-0.72098505,-0.7488896,-0.76941216,-0.7825834,-0.79112935,-0.7988789,-0.80816,-0.8170735,-0.82136184,-0.82056546,-0.8151438,-0.81128436,-0.8089564,-0.80699605,-0.8054645,-0.8031366,-0.80080867,-0.79808253,-0.7946212,-0.7899654,-0.78530955,-0.7837474,-0.78221583,-0.7814194,-0.7810519,-0.7791221,-0.77872396,-0.7771617,-0.77406806,-0.76941216,-0.7647563,-0.763623,-0.7643888,-0.7647563,-0.7639905,-0.76049864,-0.7554752,-0.7508193,-0.74809325,-0.74772567,-0.75042117,-0.7547095,-0.7566392,-0.7554752,-0.7527491,-0.7500536,-0.75042117,-0.75121754,-0.7515851,-0.7508193,-0.7500536,-0.7508193,-0.75198334,-0.75238156,-0.7515851,-0.7508193,-0.75042117,-0.7492572,-0.74772567,-0.7469599,-0.74579597,-0.7465617,-0.7469599,-0.74579597,-0.74346805,-0.74150765,-0.74114007,-0.74150765,-0.74114007,-0.7395779,-0.73841393,-0.73917973,-0.7395779,-0.7403437,-0.7395779,-0.7380464,-0.73841393,-0.7380464,-0.73725,-0.736086,-0.73492205,-0.7353202,-0.736086,-0.7353202,-0.73492205,-0.7337581,-0.73415625,-0.73415625,-0.73222655,-0.7302662,-0.7302662,-0.73259413,-0.73415625,-0.7333905,-0.7302662,-0.7268049,-0.72564095,-0.7240788,-0.7229148,-0.7213833,-0.7205869,-0.72251666,-0.7248446,-0.72447693,-0.72251666,-0.72098505,-0.72251666,-0.72251666,-0.7205869,-0.7155634,-0.7097436,-0.7066499,-0.7050878,-0.7023922,-0.6977364,-0.69231474,-0.68842465,-0.6872607,-0.68842465,-0.68882287,-0.6845652,-0.6721598,-0.6504426,-0.6264281,-0.60976505,-0.60743713,-0.6198425,-0.63610744,-0.6473489,-0.6504426,-0.6477471,-0.6458174,-0.64927864,-0.66168404,-0.68144083,-0.7027598,-0.7202193,-0.7271725,-0.7240788,-0.7167274,-0.71050936,-0.7093454,-0.7113058,-0.7136031,-0.715931,-0.7174932,-0.71942294,-0.72098505,-0.72098505,-0.7202193,-0.72175086,-0.72913283,-0.723313,-0.6675039,-0.53070724,-0.30324376,-0.018807292,0.25984,0.47140622,0.56752527,0.5481361,0.436916,0.2590437,0.037400007,-0.21680403,-0.48071802,-0.7109076,-0.8620394,-0.9085368,-0.8717187,-0.80430055,-0.75198334,-0.7329923,-0.73881215,-0.75238156,-0.7616626,-0.7639905,-0.76089686,-0.75431126,-0.7465617,-0.73917973,-0.73455447,-0.7298986,-0.72447693,-0.71789134,-0.7113058,-0.7058535,-0.7008301,-0.6958066,-0.6891904,-0.6826048,-0.6783472,-0.67332375,-0.6671057,-0.6593561,-0.65160656,-0.6454192,-0.6403651,-0.6337795,-0.6256624,-0.61711645,-0.6101633,-0.6027813,-0.5938677,-0.58186054,-0.56868935,-0.55744785,-0.54620636,-0.53380096,-0.5179343,-0.499709,-0.48228014,-0.46521884,-0.44778997,-0.42879897,-0.40940976,-0.3919809,-0.37648177,-0.3617484,-0.34701502,-0.3330781,-0.32339877,-0.31757897,-0.316415,-0.31834477,-0.3241645,-0.33656996,-0.35556102,-0.38230163,-0.41599536,-0.4559071,-0.50087297,-0.54620636,-0.5888443,-0.6271939,-0.66208225,-0.6958066,-0.7248446,-0.7488896,-0.7663185,-0.7798879,-0.7922933,-0.8031366,-0.81088614,-0.8151438,-0.81590956,-0.81670594,-0.81590956,-0.81397986,-0.8104879,-0.80662847,-0.8050663,-0.8039023,-0.8015744,-0.7984807,-0.7949888,-0.79422307,-0.79382485,-0.7926609,-0.7895672,-0.78491133,-0.7825834,-0.78065366,-0.77872396,-0.775232,-0.7705761,-0.76748246,-0.7651545,-0.7639905,-0.7620608,-0.7593347,-0.7581707,-0.7566392,-0.7554752,-0.7547095,-0.75431126,-0.7554752,-0.75624096,-0.7558428,-0.75431126,-0.7531473,-0.75431126,-0.75624096,-0.7578032,-0.7566392,-0.7547095,-0.75431126,-0.7547095,-0.7554752,-0.7547095,-0.7531473,-0.7531473,-0.75238156,-0.7508193,-0.74809325,-0.7461635,-0.7469599,-0.7492572,-0.75042117,-0.74965537,-0.7469599,-0.74539775,-0.7449995,-0.7449995,-0.7442338,-0.74306977,-0.74306977,-0.74306977,-0.742304,-0.7403437,-0.73841393,-0.7380464,-0.73725,-0.736086,-0.73259413,-0.7295004,-0.72833645,-0.72833645,-0.7279689,-0.7268049,-0.72600853,-0.7268049,-0.7279689,-0.7279689,-0.7268049,-0.7248446,-0.7248446,-0.72564095,-0.7248446,-0.7229148,-0.7198211,-0.71905535,-0.71905535,-0.71865714,-0.7174932,-0.715931,-0.7163292,-0.7174932,-0.718259,-0.7174932,-0.715931,-0.7155634,-0.7155634,-0.71516526,-0.7136031,-0.7109076,-0.7101418,-0.7093454,-0.7093454,-0.70818144,-0.7074157,-0.70781386,-0.70818144,-0.70818144,-0.7070175,-0.7058535,-0.7074157,-0.7089778,-0.7093454,-0.70781386,-0.7050878,-0.7035562,-0.70159584,-0.69890034,-0.69540846,-0.6942445,-0.6958066,-0.6977364,-0.6973382,-0.6934787,-0.6880264,-0.68300307,-0.6783472,-0.6744877,-0.6705976,-0.66826963,-0.6690661,-0.67099583,-0.67136335,-0.66477776,-0.6500751,-0.62992007,-0.6089993,-0.5961957,-0.5950317,-0.6055074,-0.62253803,-0.6349435,-0.6388336,-0.6341777,-0.6279903,-0.62992007,-0.6434895,-0.66673815,-0.6911508,-0.7089778,-0.7167274,-0.71516526,-0.7093454,-0.7039238,-0.70122826,-0.7027598,-0.7050878,-0.70781386,-0.70857966,-0.7089778,-0.71050936,-0.71283734,-0.71439946,-0.718259,-0.72251666,-0.70781386,-0.6341777,-0.46987474,-0.21217877,0.09590471,0.384997,0.60241365,0.703158,0.6907526,0.5795326,0.3861611,0.13698041,-0.15054983,-0.4377125,-0.6802769,-0.8376267,-0.886452,-0.85196185,-0.78723925,-0.7395779,-0.72833645,-0.742304,-0.7612951,-0.77137256,-0.7702086,-0.7639905,-0.7566392,-0.74965537,-0.7426716,-0.736086,-0.7302662,-0.7236806,-0.7163292,-0.70857966,-0.7008301,-0.69540846,-0.69151837,-0.685331,-0.6787454,-0.67292553,-0.66826963,-0.664012,-0.6574264,-0.6481147,-0.63843536,-0.631084,-0.6241002,-0.61674887,-0.60667133,-0.5961957,-0.5865164,-0.5764389,-0.5651974,-0.551628,-0.53805864,-0.5260514,-0.5128802,-0.49777925,-0.47995222,-0.46096116,-0.44313413,-0.42570525,-0.40671426,-0.38576287,-0.36484212,-0.34624928,-0.32998443,-0.3156492,-0.30207986,-0.29044014,-0.2838546,-0.28076088,-0.28115904,-0.2857843,-0.29586178,-0.3144853,-0.3423592,-0.3788097,-0.4206512,-0.4663828,-0.51404417,-0.5605415,-0.604711,-0.64465344,-0.68183905,-0.71709496,-0.74732745,-0.7717401,-0.7891996,-0.80041045,-0.80932397,-0.81590956,-0.8209636,-0.82329154,-0.8244555,-0.82598704,-0.8256195,-0.8225258,-0.8170735,-0.81128436,-0.80699605,-0.80469877,-0.80273837,-0.80004287,-0.79731673,-0.7957852,-0.79382485,-0.79112935,-0.7864735,-0.78221583,-0.7802861,-0.7798879,-0.7791221,-0.77599776,-0.7725059,-0.7705761,-0.76904464,-0.76904464,-0.7678807,-0.76748246,-0.7682482,-0.76941216,-0.76941216,-0.76748246,-0.7651545,-0.7643888,-0.7643888,-0.7639905,-0.76245904,-0.76089686,-0.76049864,-0.76089686,-0.7616626,-0.7601311,-0.75896716,-0.75856894,-0.7581707,-0.7578032,-0.7554752,-0.7531473,-0.7531473,-0.7531473,-0.7535455,-0.75238156,-0.75042117,-0.74965537,-0.7488896,-0.7488896,-0.7484914,-0.7484914,-0.74965537,-0.7500536,-0.74772567,-0.7442338,-0.74306977,-0.744632,-0.7469599,-0.74732745,-0.744632,-0.7403437,-0.7380464,-0.73725,-0.73688245,-0.7353202,-0.73415625,-0.7353202,-0.73725,-0.73881215,-0.73841393,-0.73688245,-0.73648417,-0.736086,-0.73492205,-0.73222655,-0.7295004,-0.7287346,-0.72833645,-0.72833645,-0.7271725,-0.72600853,-0.7268049,-0.72757065,-0.72833645,-0.72757065,-0.72600853,-0.7268049,-0.7271725,-0.7264067,-0.7236806,-0.72098505,-0.72098505,-0.72251666,-0.7240788,-0.7229148,-0.722149,-0.7229148,-0.72447693,-0.7248446,-0.7213833,-0.7167274,-0.7136031,-0.71207154,-0.7116734,-0.7101418,-0.7093454,-0.7109076,-0.71207154,-0.71207154,-0.7101418,-0.7074157,-0.7074157,-0.70818144,-0.70857966,-0.7070175,-0.7050878,-0.7050878,-0.70548594,-0.7066499,-0.7058535,-0.704322,-0.7035562,-0.70199406,-0.69890034,-0.6934787,-0.6876589,-0.68300307,-0.6783472,-0.67565167,-0.67292553,-0.6717616,-0.67023003,-0.66168404,-0.64309126,-0.61674887,-0.59426594,-0.5853524,-0.5915398,-0.6070389,-0.6217723,-0.6287561,-0.62952185,-0.62682635,-0.6279903,-0.6388336,-0.6609183,-0.6899868,-0.7140013,-0.72524273,-0.722149,-0.71207154,-0.7050878,-0.703158,-0.7058535,-0.70857966,-0.7097436,-0.71207154,-0.7132355,-0.71439946,-0.71439946,-0.7140013,-0.7167274,-0.7248446,-0.7271725,-0.6895886,-0.57254875,-0.35360062,-0.043587446,0.29895544,0.6035471,0.8054644,0.8666953,0.8019726,0.63108397,0.38150513,0.075749636,-0.26137167,-0.57450914,-0.80662847,-0.91588813,-0.90893495,-0.8414862,-0.7733023,-0.73881215,-0.73917973,-0.7554752,-0.7717401,-0.7791221,-0.7771617,-0.77097434,-0.7639905,-0.75896716,-0.75391304,-0.74772567,-0.7380464,-0.72833645,-0.71942294,-0.71246976,-0.70625174,-0.7000643,-0.69308054,-0.6868931,-0.68144083,-0.6740895,-0.66633993,-0.65782464,-0.6504426,-0.6434895,-0.6341777,-0.62333447,-0.61132723,-0.60124975,-0.59270376,-0.58418846,-0.5737127,-0.5617055,-0.5500965,-0.53769106,-0.52488744,-0.51018465,-0.4931234,-0.47646028,-0.45823509,-0.43924403,-0.41832328,-0.39700437,-0.3780133,-0.35942048,-0.34082764,-0.32183665,-0.30361134,-0.28851044,-0.27650326,-0.2683555,-0.26293385,-0.26137167,-0.2652617,-0.27417523,-0.29007262,-0.3136888,-0.34741324,-0.3904187,-0.43924403,-0.48963153,-0.5384568,-0.5849542,-0.62952185,-0.67099583,-0.7093454,-0.742304,-0.7702086,-0.7930591,-0.81128436,-0.8244555,-0.8333691,-0.83918893,-0.8418844,-0.8422826,-0.8414862,-0.83955646,-0.838025,-0.8376267,-0.83686095,-0.8352988,-0.83297086,-0.829479,-0.82715106,-0.8252213,-0.8221276,-0.8170735,-0.8136123,-0.8124483,-0.81128436,-0.8085582,-0.8031366,-0.7961528,-0.7918951,-0.7899654,-0.78880143,-0.78607523,-0.78414553,-0.7833798,-0.7829816,-0.7825834,-0.7814194,-0.7814194,-0.7825834,-0.7837474,-0.7829816,-0.7794897,-0.7771617,-0.77755994,-0.7771617,-0.7767942,-0.7729041,-0.7682482,-0.7663185,-0.76748246,-0.76904464,-0.7682482,-0.76708424,-0.7667167,-0.76748246,-0.7686464,-0.76708424,-0.7643888,-0.7620608,-0.76049864,-0.76049864,-0.7601311,-0.75856894,-0.7581707,-0.75624096,-0.7535455,-0.7508193,-0.7492572,-0.74965537,-0.7508193,-0.75121754,-0.74965537,-0.74732745,-0.7461635,-0.74539775,-0.7442338,-0.74346805,-0.742304,-0.7426716,-0.74306977,-0.742304,-0.73881215,-0.73648417,-0.73648417,-0.73841393,-0.73917973,-0.7376481,-0.7337581,-0.73106253,-0.7306644,-0.73259413,-0.7329923,-0.73182833,-0.7306644,-0.7298986,-0.7295004,-0.72913283,-0.7279689,-0.7268049,-0.7248446,-0.7229148,-0.7205869,-0.7198211,-0.7213833,-0.722149,-0.7213833,-0.718259,-0.71516526,-0.71439946,-0.7147671,-0.71439946,-0.7113058,-0.70781386,-0.70548594,-0.70548594,-0.7074157,-0.7093454,-0.7093454,-0.70857966,-0.7070175,-0.70548594,-0.704322,-0.7050878,-0.7066499,-0.7066499,-0.704322,-0.69890034,-0.69501024,-0.6934787,-0.6942445,-0.69308054,-0.68882287,-0.6826048,-0.6779796,-0.6768156,-0.6736913,-0.6690661,-0.664012,-0.6609183,-0.6585904,-0.652403,-0.6341777,-0.6093669,-0.5888443,-0.57953256,-0.58611816,-0.6004533,-0.6144209,-0.62333447,-0.6256624,-0.62682635,-0.631084,-0.64309126,-0.6632463,-0.68572915,-0.7035562,-0.7116734,-0.71246976,-0.7093454,-0.7058535,-0.703158,-0.70199406,-0.7039238,-0.7070175,-0.7101418,-0.7116734,-0.7101418,-0.70818144,-0.7070175,-0.7101418,-0.71865714,-0.71942294,-0.6806751,-0.56443167,-0.34315556,-0.03041625,0.31215727,0.6051092,0.77523196,0.8031366,0.71207166,0.5349649,0.29160404,-0.010261238,-0.34392136,-0.65123904,-0.8651331,-0.94495666,-0.9120287,-0.8287132,-0.75624096,-0.722149,-0.72175086,-0.73725,-0.75238156,-0.7578032,-0.755077,-0.74965537,-0.74346805,-0.7380464,-0.7314302,-0.72098505,-0.7116734,-0.70548594,-0.70159584,-0.6992679,-0.69501024,-0.6880264,-0.68144083,-0.67485523,-0.66826963,-0.66168404,-0.6562624,-0.65123904,-0.6454192,-0.6388336,-0.6283579,-0.61635065,-0.6070389,-0.5981254,-0.5896101,-0.5787668,-0.56596315,-0.5543542,-0.54234695,-0.5318712,-0.51830184,-0.5035685,-0.4873036,-0.46947652,-0.45048547,-0.43033051,-0.4101755,-0.39274663,-0.3749196,-0.35592854,-0.3338439,-0.31252486,-0.29626,-0.28618246,-0.28036267,-0.27494103,-0.2687536,-0.2652617,-0.2695194,-0.2819249,-0.30207986,-0.32958615,-0.36600608,-0.40980792,-0.45707107,-0.5058964,-0.55355775,-0.5985236,-0.6423255,-0.68223727,-0.7163292,-0.7465617,-0.77213836,-0.7946212,-0.8104879,-0.81940144,-0.82405734,-0.8275492,-0.8318069,-0.8352988,-0.8352988,-0.8333691,-0.83027536,-0.8267835,-0.8236592,-0.8186357,-0.8136123,-0.81128436,-0.8097222,-0.80699605,-0.8019726,-0.79731673,-0.7946212,-0.7930591,-0.7922933,-0.78723925,-0.7818176,-0.7783257,-0.7771617,-0.7771617,-0.77406806,-0.7705761,-0.7686464,-0.7682482,-0.7686464,-0.76708424,-0.7647563,-0.7639905,-0.76555276,-0.7663185,-0.7639905,-0.7612951,-0.7601311,-0.76089686,-0.7647563,-0.7663185,-0.7663185,-0.76708424,-0.7651545,-0.763623,-0.7597329,-0.75624096,-0.7554752,-0.7566392,-0.7593347,-0.7601311,-0.7597329,-0.7593347,-0.7581707,-0.7578032,-0.75700676,-0.7574049,-0.7581707,-0.7581707,-0.7578032,-0.755077,-0.7547095,-0.75431126,-0.75391304,-0.7515851,-0.7461635,-0.74150765,-0.742304,-0.74579597,-0.74809325,-0.74732745,-0.7442338,-0.7419058,-0.74114007,-0.74150765,-0.7399761,-0.73881215,-0.7399761,-0.7426716,-0.7461635,-0.74579597,-0.74346805,-0.7399761,-0.73648417,-0.7333905,-0.7306644,-0.7287346,-0.7279689,-0.72833645,-0.72913283,-0.7268049,-0.72524273,-0.72524273,-0.72600853,-0.72833645,-0.7295004,-0.72913283,-0.72833645,-0.7264067,-0.72447693,-0.7213833,-0.7202193,-0.7198211,-0.72098505,-0.72098505,-0.71905535,-0.71709496,-0.7163292,-0.7174932,-0.71905535,-0.7174932,-0.71439946,-0.7097436,-0.704322,-0.7004319,-0.69693995,-0.69464266,-0.6938463,-0.6934787,-0.6926823,-0.6880264,-0.6787454,-0.66208225,-0.6395993,-0.61867857,-0.6051092,-0.6055074,-0.6182804,-0.6349435,-0.6469507,-0.6500751,-0.6477471,-0.6461849,-0.6527705,-0.66826963,-0.68882287,-0.70857966,-0.71942294,-0.7213833,-0.7163292,-0.7101418,-0.70625174,-0.70548594,-0.7074157,-0.7089778,-0.7089778,-0.7093454,-0.7109076,-0.7132355,-0.71516526,-0.7174932,-0.723313,-0.7248446,-0.6919166,-0.5888443,-0.38692683,-0.09706867,0.22262383,0.49854493,0.66477776,0.6973381,0.61791277,0.45670342,0.23463094,-0.038165808,-0.3419916,-0.6279903,-0.83686095,-0.9275278,-0.9085368,-0.8318069,-0.7578032,-0.71865714,-0.7155634,-0.73106253,-0.7461635,-0.7527491,-0.75121754,-0.74732745,-0.742304,-0.7353202,-0.72757065,-0.7205869,-0.7147671,-0.7113058,-0.7070175,-0.7008301,-0.69464266,-0.6880264,-0.6810733,-0.6744877,-0.6675039,-0.66015255,-0.6543327,-0.6481147,-0.63920116,-0.6306858,-0.6213741,-0.61325693,-0.60667133,-0.5989218,-0.59037584,-0.5802983,-0.56829107,-0.5547217,-0.541183,-0.52877754,-0.51753604,-0.5062946,-0.49195945,-0.4729684,-0.45241523,-0.4318927,-0.41329986,-0.39584035,-0.3772475,-0.35865468,-0.3419916,-0.32765645,-0.3156492,-0.30207986,-0.28967434,-0.27959687,-0.27533925,-0.27726895,-0.28462034,-0.29858792,-0.31911045,-0.34781146,-0.3830673,-0.42297912,-0.46678102,-0.5128802,-0.560174,-0.6070389,-0.6508408,-0.6891904,-0.7229148,-0.7500536,-0.77213836,-0.78880143,-0.8019726,-0.8097222,-0.81670594,-0.8225258,-0.82638526,-0.8291114,-0.83140874,-0.83140874,-0.829479,-0.82598704,-0.82329154,-0.81940144,-0.81670594,-0.814378,-0.8104879,-0.8077924,-0.80662847,-0.80699605,-0.8062303,-0.80353475,-0.7996447,-0.7949888,-0.7926609,-0.79149693,-0.7884032,-0.78414553,-0.7794897,-0.77563024,-0.77483386,-0.77406806,-0.7725059,-0.76941216,-0.7663185,-0.7659203,-0.7663185,-0.76708424,-0.76748246,-0.7663185,-0.7647563,-0.7639905,-0.7651545,-0.76708424,-0.76748246,-0.76555276,-0.76089686,-0.7574049,-0.7566392,-0.75856894,-0.76089686,-0.7601311,-0.75896716,-0.7593347,-0.7597329,-0.75856894,-0.755077,-0.7515851,-0.7500536,-0.7527491,-0.7558428,-0.75700676,-0.7578032,-0.7593347,-0.7601311,-0.7597329,-0.7554752,-0.7492572,-0.7449995,-0.7426716,-0.74150765,-0.742304,-0.74383557,-0.744632,-0.74579597,-0.74539775,-0.74306977,-0.7419058,-0.74074185,-0.7399761,-0.7380464,-0.73492205,-0.7333905,-0.73259413,-0.7333905,-0.73259413,-0.7302662,-0.7279689,-0.72833645,-0.7298986,-0.7302662,-0.72913283,-0.7271725,-0.7264067,-0.7295004,-0.7314302,-0.72833645,-0.722149,-0.7155634,-0.71246976,-0.71207154,-0.7116734,-0.7109076,-0.7113058,-0.7140013,-0.71789134,-0.71905535,-0.718259,-0.71516526,-0.7113058,-0.7089778,-0.7070175,-0.7070175,-0.70818144,-0.7101418,-0.7113058,-0.70625174,-0.6992679,-0.69308054,-0.6891904,-0.6876589,-0.6868931,-0.685331,-0.684167,-0.684167,-0.68223727,-0.67485523,-0.65819216,-0.63534164,-0.612093,-0.59928936,-0.60085154,-0.6136245,-0.62952185,-0.6395993,-0.6411615,-0.6380372,-0.63650566,-0.6442552,-0.66015255,-0.67914355,-0.6958066,-0.70818144,-0.7136031,-0.7140013,-0.71207154,-0.70781386,-0.7058535,-0.70818144,-0.71246976,-0.71283734,-0.70857966,-0.703158,-0.70122826,-0.7058535,-0.71439946,-0.7236806,-0.72564095,-0.69501024,-0.60085154,-0.41755748,-0.14862013,0.15480757,0.4233774,0.5919379,0.6302875,0.5597758,0.4090116,0.20170307,-0.051337004,-0.3361718,-0.6086011,-0.81590956,-0.9139584,-0.90504485,-0.8376267,-0.7663185,-0.7248446,-0.7167274,-0.72833645,-0.7419058,-0.75042117,-0.75042117,-0.74383557,-0.73492205,-0.7240788,-0.71439946,-0.70857966,-0.70548594,-0.7039238,-0.70122826,-0.6958066,-0.6891904,-0.6826048,-0.6779796,-0.6736913,-0.6659417,-0.6574264,-0.64967686,-0.6442552,-0.6403651,-0.6341777,-0.6264281,-0.61635065,-0.60667133,-0.5981254,-0.5888443,-0.57913435,-0.5698533,-0.560174,-0.551628,-0.541183,-0.5283793,-0.5144424,-0.49894327,-0.48111618,-0.46172696,-0.4435017,-0.4280026,-0.41446382,-0.39816827,-0.37764573,-0.354397,-0.33424205,-0.32107085,-0.31332123,-0.30710322,-0.30128342,-0.29626,-0.29469782,-0.29742402,-0.30557173,-0.32067257,-0.34431952,-0.37764573,-0.41639358,-0.4597972,-0.50669277,-0.553956,-0.5996876,-0.6395993,-0.67485523,-0.7070175,-0.7353202,-0.7601311,-0.77872396,-0.7899654,-0.7984807,-0.80699605,-0.81397986,-0.8182375,-0.81940144,-0.8186357,-0.81940144,-0.82136184,-0.8217294,-0.8170735,-0.8089564,-0.80041045,-0.7957852,-0.79382485,-0.79422307,-0.79345727,-0.7922933,-0.79112935,-0.78880143,-0.78454375,-0.7794897,-0.776396,-0.7733023,-0.77097434,-0.7682482,-0.7643888,-0.7616626,-0.7612951,-0.7612951,-0.7593347,-0.7578032,-0.755077,-0.7535455,-0.7508193,-0.7469599,-0.7442338,-0.74383557,-0.7461635,-0.75121754,-0.75391304,-0.7527491,-0.7488896,-0.74383557,-0.74074185,-0.74150765,-0.74579597,-0.7488896,-0.7500536,-0.7469599,-0.742304,-0.73917973,-0.7403437,-0.7442338,-0.74809325,-0.74965537,-0.7484914,-0.74579597,-0.74383557,-0.7426716,-0.74114007,-0.74074185,-0.7419058,-0.7442338,-0.744632,-0.74306977,-0.7399761,-0.73688245,-0.7353202,-0.73492205,-0.7333905,-0.7333905,-0.73415625,-0.7357184,-0.73492205,-0.7287346,-0.722149,-0.7174932,-0.718259,-0.72175086,-0.7240788,-0.72524273,-0.7240788,-0.7236806,-0.72098505,-0.71709496,-0.7147671,-0.71283734,-0.7140013,-0.71709496,-0.7167274,-0.71439946,-0.7116734,-0.71050936,-0.7113058,-0.7093454,-0.7066499,-0.7027598,-0.70122826,-0.7027598,-0.7066499,-0.71050936,-0.7132355,-0.71439946,-0.71439946,-0.71246976,-0.70857966,-0.7027598,-0.7004319,-0.7008301,-0.7027598,-0.7047202,-0.7035562,-0.7004319,-0.69501024,-0.6891904,-0.68493277,-0.68300307,-0.6806751,-0.6787454,-0.67565167,-0.6744877,-0.67525345,-0.6760192,-0.6698318,-0.6508408,-0.62602997,-0.604711,-0.59696144,-0.6020155,-0.6155849,-0.6287561,-0.63610744,-0.6380372,-0.6380372,-0.6395993,-0.6500751,-0.66826963,-0.69035435,-0.7097436,-0.718259,-0.71865714,-0.71283734,-0.7066499,-0.70159584,-0.6992679,-0.7004319,-0.7039238,-0.70818144,-0.7101418,-0.7093454,-0.70781386,-0.70818144,-0.7140013,-0.7205869,-0.7070175,-0.6395993,-0.49388915,-0.26449597,0.017245054,0.28851044,0.48923326,0.5733452,0.5442767,0.4322909,0.25944197,0.040493846,-0.2187643,-0.49388915,-0.7302662,-0.8740466,-0.90660703,-0.8581493,-0.7857077,-0.7333905,-0.7140013,-0.71942294,-0.7353202,-0.7484914,-0.75198334,-0.74539775,-0.7333905,-0.7213833,-0.71709496,-0.7174932,-0.7174932,-0.7147671,-0.70818144,-0.69966614,-0.69151837,-0.6845652,-0.67990935,-0.67485523,-0.6705976,-0.665176,-0.65782464,-0.65160656,-0.6458174,-0.6407633,-0.63534164,-0.62602997,-0.61674887,-0.6086011,-0.6016173,-0.59350014,-0.5826263,-0.57061905,-0.5597758,-0.551628,-0.54194874,-0.52877754,-0.5105523,-0.49039727,-0.47413236,-0.45903146,-0.44313413,-0.42530704,-0.40591782,-0.38925475,-0.37455207,-0.36214656,-0.35013938,-0.33693755,-0.32532853,-0.31525105,-0.3086654,-0.30710322,-0.31099337,-0.32027447,-0.3350078,-0.35399884,-0.3815052,-0.41679174,-0.45903146,-0.50473243,-0.54853433,-0.5911722,-0.6302876,-0.6675039,-0.69966614,-0.7268049,-0.7508193,-0.77213836,-0.7899654,-0.8031366,-0.81088614,-0.814378,-0.8170735,-0.82056546,-0.8236592,-0.82405734,-0.8236592,-0.8217294,-0.8201979,-0.8170735,-0.8120501,-0.8062303,-0.8015744,-0.80041045,-0.80004287,-0.7988789,-0.79694915,-0.7946212,-0.7922933,-0.7895672,-0.78723925,-0.78607523,-0.78530955,-0.78414553,-0.7810519,-0.7744663,-0.76748246,-0.76282656,-0.7620608,-0.7632248,-0.7632248,-0.76282656,-0.7616626,-0.7620608,-0.7616626,-0.76049864,-0.7581707,-0.7554752,-0.7554752,-0.75700676,-0.75700676,-0.7578032,-0.75896716,-0.7601311,-0.76049864,-0.7601311,-0.76089686,-0.7597329,-0.7601311,-0.75896716,-0.7554752,-0.75238156,-0.75238156,-0.7535455,-0.755077,-0.75391304,-0.7515851,-0.7488896,-0.7484914,-0.7484914,-0.74772567,-0.7469599,-0.74579597,-0.7465617,-0.74579597,-0.74383557,-0.74114007,-0.73917973,-0.73917973,-0.7395779,-0.73841393,-0.736086,-0.73415625,-0.73492205,-0.73648417,-0.73688245,-0.73688245,-0.73688245,-0.7376481,-0.73688245,-0.7337581,-0.7295004,-0.7271725,-0.72833645,-0.73182833,-0.73492205,-0.7357184,-0.73455447,-0.73259413,-0.7287346,-0.7236806,-0.7198211,-0.71865714,-0.72098505,-0.7229148,-0.72251666,-0.7205869,-0.71942294,-0.7205869,-0.72175086,-0.7205869,-0.71789134,-0.71439946,-0.7136031,-0.7147671,-0.71439946,-0.71207154,-0.7097436,-0.70781386,-0.7070175,-0.70625174,-0.70625174,-0.7058535,-0.70625174,-0.704322,-0.7000643,-0.6942445,-0.68882287,-0.6860967,-0.68493277,-0.684167,-0.68300307,-0.67914355,-0.6694336,-0.6504426,-0.6271939,-0.6086011,-0.6016173,-0.60976505,-0.624866,-0.6376696,-0.6434895,-0.6434895,-0.64192724,-0.64309126,-0.6504426,-0.66633993,-0.6868931,-0.7070175,-0.71865714,-0.7198211,-0.7155634,-0.71050936,-0.7097436,-0.7109076,-0.71283734,-0.7140013,-0.71439946,-0.71516526,-0.7155634,-0.7136031,-0.71283734,-0.7167274,-0.72447693,-0.7132355,-0.6454192,-0.49352163,-0.2516923,0.039329767,0.3144853,0.5163721,0.5992893,0.56945515,0.4493215,0.26526165,0.038165808,-0.224186,-0.49272525,-0.722149,-0.8643673,-0.8972953,-0.85003215,-0.77872396,-0.7287346,-0.71283734,-0.7205869,-0.7337581,-0.74150765,-0.74346805,-0.74074185,-0.7357184,-0.73106253,-0.7268049,-0.72251666,-0.7174932,-0.7097436,-0.7004319,-0.6926823,-0.6880264,-0.6845652,-0.6810733,-0.6768156,-0.6721598,-0.66826963,-0.6632463,-0.65586424,-0.64658314,-0.6380372,-0.63184977,-0.6264281,-0.62024075,-0.6136245,-0.6051092,-0.59659386,-0.5868839,-0.5760407,-0.56403345,-0.55242443,-0.54194874,-0.53070724,-0.5171379,-0.5024351,-0.4869054,-0.47140622,-0.45474315,-0.4342206,-0.41329986,-0.39351243,-0.3772475,-0.3636781,-0.34974116,-0.3357736,-0.3237663,-0.3156492,-0.3098294,-0.30633748,-0.30633748,-0.31099337,-0.3237663,-0.3446871,-0.3722241,-0.40591782,-0.44546205,-0.48886573,-0.53343344,-0.5756731,-0.6147885,-0.65123904,-0.68649495,-0.7174932,-0.7426716,-0.7612951,-0.77563024,-0.7884032,-0.7984807,-0.8050663,-0.8089564,-0.8104879,-0.8128159,-0.8136123,-0.8116519,-0.8077924,-0.8023708,-0.80004287,-0.7992465,-0.7984807,-0.79808253,-0.796551,-0.79345727,-0.7891996,-0.7825834,-0.7767942,-0.7733023,-0.77366984,-0.77406806,-0.7733023,-0.7698104,-0.7651545,-0.7620608,-0.7601311,-0.75856894,-0.7581707,-0.7581707,-0.7593347,-0.75856894,-0.75700676,-0.7547095,-0.7527491,-0.7531473,-0.7535455,-0.7527491,-0.7527491,-0.7531473,-0.75431126,-0.75431126,-0.7527491,-0.75121754,-0.75042117,-0.75198334,-0.7527491,-0.7508193,-0.7488896,-0.7469599,-0.74772567,-0.7488896,-0.7484914,-0.7469599,-0.74539775,-0.7465617,-0.7484914,-0.7492572,-0.74809325,-0.7461635,-0.74579597,-0.7461635,-0.7461635,-0.74539775,-0.74306977,-0.742304,-0.74114007,-0.73917973,-0.73648417,-0.7337581,-0.7333905,-0.7337581,-0.7337581,-0.7329923,-0.7306644,-0.72913283,-0.7271725,-0.7248446,-0.723313,-0.723313,-0.72524273,-0.7264067,-0.72600853,-0.72524273,-0.72251666,-0.722149,-0.7202193,-0.71789134,-0.7167274,-0.7167274,-0.71865714,-0.71942294,-0.7174932,-0.7147671,-0.71246976,-0.71246976,-0.71207154,-0.7101418,-0.70818144,-0.7066499,-0.70818144,-0.7097436,-0.7093454,-0.70781386,-0.70548594,-0.7050878,-0.7047202,-0.7035562,-0.70159584,-0.7000643,-0.7004319,-0.70122826,-0.7004319,-0.6985022,-0.6958066,-0.69501024,-0.6942445,-0.6926823,-0.6907526,-0.6895886,-0.6907526,-0.69231474,-0.69308054,-0.6919166,-0.6911508,-0.6919166,-0.69231474,-0.6911508,-0.6891904,-0.68649495,-0.6860967,-0.68649495,-0.68572915,-0.6837688,-0.67990935,-0.6768156,-0.6725273,-0.6679021,-0.662848,-0.6589886,-0.65782464,-0.6574264,-0.6566607,-0.65160656,-0.63920116,-0.6198425,-0.59696144,-0.57913435,-0.57487667,-0.58418846,-0.6027813,-0.6182804,-0.6241002,-0.6206083,-0.6151867,-0.61595243,-0.6275921,-0.6477471,-0.6698318,-0.68842465,-0.69810396,-0.6985022,-0.6934787,-0.6876589,-0.68493277,-0.6872607,-0.6919166,-0.69464266,-0.69540846,-0.69464266,-0.69501024,-0.6961742,-0.6973382,-0.70122826,-0.7074157,-0.6977364,-0.632248,-0.47839004,-0.23037344,0.075749636,0.37066185,0.5985236,0.71207166,0.7066499,0.5992893,0.4090116,0.16295528,-0.12187946,-0.41173762,-0.6609183,-0.82794744,-0.8845223,-0.8515637,-0.7833798,-0.7287346,-0.7116734,-0.722149,-0.74074185,-0.7531473,-0.755077,-0.7515851,-0.7449995,-0.73725,-0.7295004,-0.7236806,-0.7202193,-0.7155634,-0.70818144,-0.6977364,-0.6876589,-0.68183905,-0.67914355,-0.6764174,-0.6721598,-0.6655742,-0.6589886,-0.65160656,-0.643857,-0.6357399,-0.6283579,-0.62293625,-0.6155849,-0.60587496,-0.59466416,-0.58379024,-0.5760407,-0.56868935,-0.55937755,-0.5477686,-0.5349649,-0.5229577,-0.51095045,-0.49621713,-0.4787882,-0.4597972,-0.44197017,-0.42414314,-0.4055503,-0.38576287,-0.36600608,-0.349343,-0.3338439,-0.31911045,-0.30517346,-0.2935338,-0.28658074,-0.2830888,-0.2819249,-0.2838546,-0.29123652,-0.30710322,-0.33151585,-0.36331058,-0.40049618,-0.44197017,-0.48846757,-0.53576136,-0.58186054,-0.6256624,-0.665176,-0.7023922,-0.73415625,-0.75856894,-0.77563024,-0.7884032,-0.80041045,-0.81012034,-0.81670594,-0.82056546,-0.8221276,-0.8236592,-0.8236592,-0.8217294,-0.8170735,-0.8120501,-0.8097222,-0.80816,-0.80662847,-0.80469877,-0.8015744,-0.80004287,-0.79771495,-0.79382485,-0.78880143,-0.78414553,-0.7825834,-0.78221583,-0.78221583,-0.78065366,-0.77795815,-0.776396,-0.7744663,-0.77213836,-0.7702086,-0.76904464,-0.7705761,-0.77213836,-0.7717401,-0.7698104,-0.7678807,-0.7682482,-0.7678807,-0.7667167,-0.7643888,-0.7620608,-0.76245904,-0.7632248,-0.76245904,-0.7612951,-0.76049864,-0.7620608,-0.763623,-0.7632248,-0.76089686,-0.75856894,-0.7581707,-0.7597329,-0.76049864,-0.7597329,-0.75700676,-0.7558428,-0.7554752,-0.7554752,-0.755077,-0.7547095,-0.7558428,-0.75624096,-0.7558428,-0.75391304,-0.75198334,-0.7515851,-0.75121754,-0.75042117,-0.7484914,-0.7465617,-0.7469599,-0.7465617,-0.7449995,-0.742304,-0.73881215,-0.7376481,-0.73688245,-0.73648417,-0.73648417,-0.7357184,-0.73648417,-0.73725,-0.73648417,-0.7337581,-0.7314302,-0.73106253,-0.73222655,-0.7329923,-0.73259413,-0.7306644,-0.7295004,-0.72757065,-0.72524273,-0.7229148,-0.7205869,-0.7213833,-0.722149,-0.72175086,-0.72098505,-0.7202193,-0.72098505,-0.7205869,-0.71942294,-0.7174932,-0.7167274,-0.71865714,-0.7213833,-0.7213833,-0.71905535,-0.7167274,-0.7163292,-0.71709496,-0.7174932,-0.7163292,-0.7140013,-0.71283734,-0.71246976,-0.7113058,-0.71050936,-0.7101418,-0.7113058,-0.7116734,-0.71050936,-0.7070175,-0.7047202,-0.70548594,-0.7074157,-0.7097436,-0.7097436,-0.70818144,-0.7070175,-0.704322,-0.7000643,-0.6958066,-0.69151837,-0.6895886,-0.6868931,-0.68223727,-0.6760192,-0.67023003,-0.66866785,-0.6679021,-0.662848,-0.64927864,-0.6271939,-0.6043434,-0.5888443,-0.5872821,-0.5981254,-0.6144209,-0.6279903,-0.63184977,-0.6283579,-0.6221705,-0.62253803,-0.63650566,-0.6613165,-0.68882287,-0.7097436,-0.71905535,-0.7202193,-0.7155634,-0.7101418,-0.7066499,-0.7058535,-0.7093454,-0.7132355,-0.71516526,-0.7147671,-0.71283734,-0.71207154,-0.71283734,-0.7174932,-0.72524273,-0.7174932,-0.65586424,-0.5012711,-0.2412166,0.09320915,0.43149436,0.70625174,0.86127365,0.8794682,0.77756,0.57527494,0.30011952,-0.021900892,-0.35206908,-0.6376696,-0.83027536,-0.90234935,-0.87481236,-0.8050663,-0.7469599,-0.72600853,-0.73841393,-0.7616626,-0.7767942,-0.7794897,-0.77366984,-0.7663185,-0.7593347,-0.75238156,-0.74539775,-0.73841393,-0.7329923,-0.72757065,-0.7213833,-0.71246976,-0.703158,-0.6965724,-0.69035435,-0.684167,-0.6760192,-0.6679021,-0.6609183,-0.65316874,-0.64502096,-0.6357399,-0.62682635,-0.62024075,-0.6136245,-0.6055074,-0.5950317,-0.58342266,-0.5737127,-0.56363523,-0.55046403,-0.5345974,-0.51677024,-0.50010717,-0.4834441,-0.46714854,-0.44971973,-0.4311269,-0.41366744,-0.3946764,-0.37531775,-0.354397,-0.3338439,-0.3156492,-0.29742402,-0.28076088,-0.2660275,-0.25518423,-0.25209057,-0.25325447,-0.2567464,-0.2636996,-0.2768708,-0.30128342,-0.33693755,-0.3815052,-0.43033051,-0.48111618,-0.532637,-0.5822587,-0.6279903,-0.66866785,-0.70548594,-0.7399761,-0.7686464,-0.7926609,-0.80932397,-0.8221276,-0.8322051,-0.8383925,-0.84111863,-0.8414862,-0.84111863,-0.8426502,-0.84304833,-0.8418844,-0.838025,-0.83373666,-0.83140874,-0.8287132,-0.8236592,-0.81786996,-0.8120501,-0.8089564,-0.80739427,-0.8054645,-0.80080867,-0.796551,-0.79422307,-0.7922933,-0.790333,-0.7876375,-0.78530955,-0.78530955,-0.7857077,-0.78491133,-0.7818176,-0.77872396,-0.77755994,-0.77599776,-0.7744663,-0.7725059,-0.77097434,-0.7725059,-0.77483386,-0.77755994,-0.77795815,-0.77755994,-0.7771617,-0.77599776,-0.7744663,-0.7717401,-0.7698104,-0.7702086,-0.7705761,-0.77097434,-0.7705761,-0.7698104,-0.76941216,-0.76941216,-0.7698104,-0.76941216,-0.7686464,-0.76904464,-0.76748246,-0.7643888,-0.76049864,-0.7574049,-0.7574049,-0.75856894,-0.7593347,-0.75856894,-0.7574049,-0.7558428,-0.7531473,-0.74965537,-0.744632,-0.7419058,-0.74383557,-0.74772567,-0.7508193,-0.75042117,-0.74772567,-0.74539775,-0.7449995,-0.7449995,-0.74346805,-0.74114007,-0.7395779,-0.73881215,-0.73841393,-0.73725,-0.73648417,-0.73725,-0.73725,-0.7357184,-0.73259413,-0.7295004,-0.7287346,-0.72833645,-0.72757065,-0.72564095,-0.72447693,-0.72600853,-0.7287346,-0.7302662,-0.7295004,-0.7271725,-0.72600853,-0.72447693,-0.7229148,-0.7205869,-0.718259,-0.718259,-0.71865714,-0.71865714,-0.71789134,-0.7163292,-0.7167274,-0.71789134,-0.718259,-0.71709496,-0.7147671,-0.71283734,-0.7109076,-0.7101418,-0.7093454,-0.7097436,-0.71207154,-0.7132355,-0.7113058,-0.7050878,-0.69693995,-0.68882287,-0.6834012,-0.6787454,-0.6744877,-0.6721598,-0.6721598,-0.6736913,-0.67136335,-0.65819216,-0.6341777,-0.60743713,-0.5888443,-0.5849542,-0.59466416,-0.61132723,-0.6264281,-0.6330137,-0.6330137,-0.6306858,-0.6341777,-0.65123904,-0.6775814,-0.7047202,-0.722149,-0.7264067,-0.72251666,-0.71516526,-0.7101418,-0.70818144,-0.7093454,-0.7136031,-0.71789134,-0.7198211,-0.71865714,-0.715931,-0.715931,-0.7174932,-0.7240788,-0.73182833,-0.718259,-0.643857,-0.47180444,-0.19162554,0.16062737,0.5093882,0.7810519,0.91784847,0.91472423,0.7914969,0.5698533,0.27301133,-0.074983895,-0.42647105,-0.7167274,-0.8922719,-0.9348792,-0.8821944,-0.80041045,-0.74150765,-0.72524273,-0.74150765,-0.7663185,-0.78221583,-0.7833798,-0.77483386,-0.7647563,-0.755077,-0.7465617,-0.73841393,-0.73106253,-0.72600853,-0.72098505,-0.7136031,-0.70548594,-0.6965724,-0.6895886,-0.6834012,-0.67525345,-0.66441023,-0.6543327,-0.6469507,-0.6403651,-0.6341777,-0.62602997,-0.61674887,-0.6089993,-0.6004533,-0.5911722,-0.57913435,-0.5667596,-0.5562839,-0.54697216,-0.53769106,-0.5276136,-0.51211447,-0.49428737,-0.4729684,-0.4508837,-0.43033051,-0.41173762,-0.39314485,-0.37259167,-0.349343,-0.3241645,-0.30128342,-0.282323,-0.26565993,-0.25209057,-0.24008334,-0.23193556,-0.23077154,-0.23426348,-0.24277884,-0.25558245,-0.27570683,-0.30593926,-0.34431952,-0.3900512,-0.43887645,-0.48923331,-0.541183,-0.5915398,-0.6388336,-0.6806751,-0.715931,-0.7469599,-0.7733023,-0.795387,-0.8124483,-0.8248231,-0.8341348,-0.838025,-0.8376267,-0.83453304,-0.8333691,-0.8352988,-0.838025,-0.838025,-0.83373666,-0.82794744,-0.82405734,-0.8225258,-0.82136184,-0.8182375,-0.814378,-0.8124483,-0.81128436,-0.80932397,-0.8050663,-0.7996447,-0.7961528,-0.79345727,-0.79073113,-0.7864735,-0.7825834,-0.7798879,-0.7783257,-0.77755994,-0.77563024,-0.7744663,-0.77483386,-0.77563024,-0.775232,-0.7733023,-0.77097434,-0.77137256,-0.77137256,-0.77097434,-0.7682482,-0.7667167,-0.76748246,-0.76941216,-0.77097434,-0.7705761,-0.7682482,-0.76748246,-0.7678807,-0.7682482,-0.7678807,-0.76708424,-0.7667167,-0.76555276,-0.7643888,-0.76089686,-0.7578032,-0.75700676,-0.7566392,-0.75624096,-0.75391304,-0.75198334,-0.7527491,-0.7535455,-0.75431126,-0.7527491,-0.75121754,-0.7500536,-0.7492572,-0.74809325,-0.74539775,-0.74346805,-0.74346805,-0.7461635,-0.74772567,-0.74579597,-0.7419058,-0.73917973,-0.73688245,-0.7357184,-0.73455447,-0.7329923,-0.73259413,-0.73259413,-0.73222655,-0.73106253,-0.7306644,-0.7306644,-0.7298986,-0.7279689,-0.7248446,-0.72251666,-0.72251666,-0.723313,-0.72251666,-0.71942294,-0.7163292,-0.7155634,-0.7163292,-0.71709496,-0.7163292,-0.71516526,-0.71439946,-0.7140013,-0.7132355,-0.7109076,-0.70857966,-0.70818144,-0.7089778,-0.7093454,-0.70857966,-0.7070175,-0.70548594,-0.70199406,-0.69693995,-0.6907526,-0.68493277,-0.68223727,-0.6806751,-0.67951113,-0.6779796,-0.6744877,-0.6679021,-0.652403,-0.6291236,-0.6051092,-0.59037584,-0.591938,-0.60587496,-0.62293625,-0.63341194,-0.6357399,-0.6349435,-0.63650566,-0.6454192,-0.6636138,-0.68882287,-0.71516526,-0.73182833,-0.736086,-0.7302662,-0.72251666,-0.71865714,-0.71942294,-0.7213833,-0.7205869,-0.71942294,-0.7205869,-0.7229148,-0.72600853,-0.7279689,-0.73182833,-0.74150765,-0.74306977,-0.7004319,-0.571783,-0.3338439,-0.0029098988,0.35902238,0.67641735,0.8821944,0.9399333,0.8632033,0.6760193,0.4043864,0.073421836,-0.28462034,-0.61132723,-0.84537625,-0.94575304,-0.92596567,-0.84963393,-0.7783257,-0.74539775,-0.7469599,-0.7647563,-0.78065366,-0.78803563,-0.7876375,-0.7818176,-0.7725059,-0.763623,-0.7558428,-0.7484914,-0.74074185,-0.73106253,-0.722149,-0.715931,-0.7116734,-0.7070175,-0.69890034,-0.6891904,-0.67951113,-0.67023003,-0.66208225,-0.6539345,-0.6469507,-0.64192724,-0.6357399,-0.6271939,-0.6144209,-0.60085154,-0.5896101,-0.5799308,-0.5698533,-0.55744785,-0.5431127,-0.5291451,-0.5152081,-0.50010717,-0.48148376,-0.46212512,-0.44313413,-0.4245413,-0.4055503,-0.3830673,-0.35942048,-0.3373357,-0.31757897,-0.29898608,-0.27999514,-0.26293385,-0.24859864,-0.23695898,-0.22884178,-0.22571748,-0.2300058,-0.24550492,-0.2699176,-0.3009159,-0.33656996,-0.3788097,-0.42879897,-0.48228014,-0.5368947,-0.58804786,-0.6357399,-0.6810733,-0.722149,-0.7574049,-0.78414553,-0.8054645,-0.8221276,-0.8352988,-0.8442123,-0.84847,-0.8507979,-0.8523601,-0.8538916,-0.8535241,-0.85039973,-0.8469385,-0.84344655,-0.8407204,-0.83918893,-0.835697,-0.83140874,-0.828315,-0.8248231,-0.8209636,-0.8163078,-0.8124483,-0.8097222,-0.80816,-0.80662847,-0.8023708,-0.79771495,-0.79382485,-0.79149693,-0.7899654,-0.78803563,-0.7868717,-0.78607523,-0.7857077,-0.78491133,-0.7825834,-0.7802861,-0.7798879,-0.78065366,-0.7810519,-0.7798879,-0.7794897,-0.7810519,-0.7825834,-0.7825834,-0.77872396,-0.77366984,-0.77137256,-0.77213836,-0.77406806,-0.7744663,-0.7744663,-0.7744663,-0.7744663,-0.77366984,-0.77097434,-0.7678807,-0.76748246,-0.7686464,-0.7702086,-0.7686464,-0.7667167,-0.76555276,-0.76555276,-0.7663185,-0.7651545,-0.7632248,-0.76282656,-0.7632248,-0.7639905,-0.7632248,-0.7612951,-0.7601311,-0.75896716,-0.7574049,-0.75391304,-0.75198334,-0.7515851,-0.75198334,-0.7515851,-0.7488896,-0.74539775,-0.7449995,-0.7465617,-0.74809325,-0.7469599,-0.74383557,-0.74114007,-0.7399761,-0.7395779,-0.73841393,-0.73648417,-0.7353202,-0.73492205,-0.73492205,-0.7333905,-0.7314302,-0.7306644,-0.73182833,-0.73259413,-0.73222655,-0.73182833,-0.73106253,-0.73106253,-0.7314302,-0.72913283,-0.7268049,-0.723313,-0.71942294,-0.7136031,-0.70625174,-0.69890034,-0.6938463,-0.6919166,-0.69231474,-0.69231474,-0.6899868,-0.67990935,-0.6589886,-0.631084,-0.604711,-0.59270376,-0.59928936,-0.6175146,-0.63610744,-0.6442552,-0.6423255,-0.63843536,-0.6407633,-0.6539345,-0.6760192,-0.70122826,-0.72175086,-0.73182833,-0.73222655,-0.72600853,-0.7198211,-0.7167274,-0.7174932,-0.71942294,-0.7202193,-0.7205869,-0.7213833,-0.7229148,-0.72447693,-0.72564095,-0.7298986,-0.73841393,-0.7314302,-0.6671057,-0.50706035,-0.23619318,0.11489582,0.47413242,0.7674825,0.93025386,0.9461205,0.833369,0.6147884,0.31718087,-0.034306407,-0.39584035,-0.703158,-0.8969277,-0.95154226,-0.9011854,-0.815542,-0.7527491,-0.7329923,-0.7465617,-0.76904464,-0.7833798,-0.78491133,-0.7783257,-0.7686464,-0.75856894,-0.75042117,-0.7449995,-0.74114007,-0.73648417,-0.7295004,-0.7213833,-0.7132355,-0.70625174,-0.6992679,-0.69035435,-0.68223727,-0.67485523,-0.66826963,-0.66168404,-0.65356696,-0.6454192,-0.6380372,-0.631084,-0.62253803,-0.61132723,-0.5989218,-0.58804786,-0.57683706,-0.56443167,-0.5500965,-0.53536314,-0.5217937,-0.5093883,-0.49388915,-0.47569454,-0.45553952,-0.43498635,-0.41562778,-0.39547282,-0.37259167,-0.349343,-0.32686007,-0.30593926,-0.28618246,-0.2667933,-0.25013018,-0.23852116,-0.23233372,-0.23037344,-0.23233372,-0.23852116,-0.2512942,-0.2745735,-0.30633748,-0.34624928,-0.3943088,-0.44778997,-0.50473243,-0.5609398,-0.612093,-0.6570282,-0.6977364,-0.7337581,-0.7659203,-0.7918951,-0.8128159,-0.8287132,-0.8407204,-0.84770423,-0.85003215,-0.8492358,-0.84810245,-0.847306,-0.8469385,-0.84577453,-0.8442123,-0.8422826,-0.8407204,-0.83955646,-0.835697,-0.83140874,-0.82794744,-0.8252213,-0.8217294,-0.81747174,-0.8128159,-0.8089564,-0.80699605,-0.8050663,-0.8012068,-0.796551,-0.79345727,-0.79149693,-0.79112935,-0.7891996,-0.78723925,-0.78607523,-0.7857077,-0.78530955,-0.78221583,-0.7791221,-0.77872396,-0.7798879,-0.78065366,-0.7798879,-0.7771617,-0.7771617,-0.77795815,-0.7791221,-0.77755994,-0.776396,-0.7771617,-0.7798879,-0.7818176,-0.7794897,-0.7744663,-0.7702086,-0.7678807,-0.76748246,-0.76708424,-0.76708424,-0.76748246,-0.7698104,-0.77097434,-0.7702086,-0.76904464,-0.76748246,-0.7663185,-0.76555276,-0.7639905,-0.7616626,-0.76089686,-0.76089686,-0.7593347,-0.7558428,-0.75238156,-0.74965537,-0.7488896,-0.74965537,-0.7488896,-0.7484914,-0.74809325,-0.74772567,-0.74772567,-0.7461635,-0.744632,-0.74383557,-0.7426716,-0.742304,-0.7399761,-0.73917973,-0.7403437,-0.74114007,-0.74074185,-0.73841393,-0.73648417,-0.7357184,-0.73648417,-0.7357184,-0.7337581,-0.73182833,-0.73106253,-0.7306644,-0.7298986,-0.7268049,-0.7229148,-0.71942294,-0.7155634,-0.7097436,-0.703158,-0.69966614,-0.6977364,-0.6977364,-0.6958066,-0.68649495,-0.6698318,-0.6477471,-0.62526417,-0.6089993,-0.60085154,-0.60394526,-0.6147885,-0.6275921,-0.6369039,-0.63999754,-0.64269304,-0.65123904,-0.6690661,-0.6926823,-0.71283734,-0.72600853,-0.73106253,-0.7298986,-0.72600853,-0.72098505,-0.71709496,-0.718259,-0.7240788,-0.7302662,-0.73222655,-0.7306644,-0.72913283,-0.7295004,-0.73259413,-0.7399761,-0.7469599,-0.72913283,-0.6500751,-0.47569454,-0.19046164,0.1652832,0.5132785,0.77599776,0.8953655,0.8721169,0.7353202,0.50589633,0.19897687,-0.16411924,-0.52644956,-0.8163078,-0.97053325,-0.9845009,-0.9104665,-0.81979966,-0.76089686,-0.74383557,-0.7554752,-0.7744663,-0.78491133,-0.7857077,-0.7794897,-0.77213836,-0.7659203,-0.7581707,-0.7508193,-0.74346805,-0.73688245,-0.73106253,-0.7236806,-0.7174932,-0.7116734,-0.7058535,-0.69890034,-0.6876589,-0.6768156,-0.6690661,-0.66633993,-0.665176,-0.65975434,-0.64927864,-0.6357399,-0.62293625,-0.6136245,-0.6055074,-0.5957974,-0.58342266,-0.5702208,-0.55551815,-0.5392226,-0.5237235,-0.511318,-0.50087297,-0.48460805,-0.46365666,-0.43847823,-0.41329986,-0.39507455,-0.3807394,-0.3625142,-0.3400619,-0.31485283,-0.29393208,-0.2791987,-0.2695194,-0.26333195,-0.26060587,-0.26253557,-0.2695194,-0.28036267,-0.2981897,-0.3241645,-0.36098266,-0.40748,-0.45823509,-0.511318,-0.5609398,-0.6082029,-0.6520048,-0.69151837,-0.7279689,-0.76049864,-0.7891996,-0.8104879,-0.82638526,-0.83722854,-0.84381413,-0.84810245,-0.85039973,-0.85039973,-0.8507979,-0.8515637,-0.8515637,-0.84963393,-0.8449781,-0.8387907,-0.83373666,-0.83140874,-0.828315,-0.8236592,-0.82136184,-0.81747174,-0.81321406,-0.80699605,-0.7984807,-0.7930591,-0.7930591,-0.79382485,-0.7926609,-0.7864735,-0.7814194,-0.77872396,-0.7798879,-0.7802861,-0.7783257,-0.77795815,-0.77795815,-0.78065366,-0.7814194,-0.77872396,-0.77563024,-0.77406806,-0.77406806,-0.77366984,-0.77483386,-0.77563024,-0.7744663,-0.7717401,-0.7682482,-0.76555276,-0.7667167,-0.77097434,-0.7744663,-0.7744663,-0.7702086,-0.7659203,-0.7643888,-0.76708424,-0.7686464,-0.7678807,-0.7651545,-0.7620608,-0.7616626,-0.76555276,-0.7682482,-0.76708424,-0.763623,-0.7601311,-0.7574049,-0.7593347,-0.7601311,-0.7597329,-0.7578032,-0.75431126,-0.74965537,-0.74732745,-0.7465617,-0.7461635,-0.74732745,-0.74732745,-0.7461635,-0.74539775,-0.7442338,-0.74306977,-0.7403437,-0.7395779,-0.7403437,-0.74346805,-0.74809325,-0.74772567,-0.7426716,-0.7357184,-0.7279689,-0.72251666,-0.718259,-0.71709496,-0.7174932,-0.718259,-0.7163292,-0.7109076,-0.7058535,-0.704322,-0.7023922,-0.6926823,-0.6694336,-0.64269304,-0.6221705,-0.6182804,-0.6291236,-0.643857,-0.65509844,-0.66015255,-0.662848,-0.66633993,-0.6740895,-0.68882287,-0.70857966,-0.72913283,-0.7419058,-0.7449995,-0.7426716,-0.73688245,-0.73415625,-0.73415625,-0.73492205,-0.73492205,-0.7353202,-0.7380464,-0.73917973,-0.73841393,-0.7380464,-0.74074185,-0.74732745,-0.75121754,-0.7248446,-0.6345759,-0.45786744,-0.190094,0.1249733,0.41988552,0.6283579,0.70548594,0.65819216,0.5194657,0.31136096,0.039329767,-0.276105,-0.59077406,-0.8333691,-0.9503783,-0.94262874,-0.86822677,-0.7930591,-0.7488896,-0.7403437,-0.75121754,-0.7647563,-0.7733023,-0.77406806,-0.76748246,-0.7593347,-0.7527491,-0.74809325,-0.74346805,-0.73688245,-0.73182833,-0.7271725,-0.7236806,-0.718259,-0.70781386,-0.69966614,-0.6942445,-0.6907526,-0.6837688,-0.6717616,-0.6593561,-0.64927864,-0.6442552,-0.6407633,-0.63920116,-0.6357399,-0.6283579,-0.61674887,-0.59928936,-0.57953256,-0.56443167,-0.5558857,-0.551628,-0.5450424,-0.53110546,-0.512482,-0.49156123,-0.47024226,-0.4508837,-0.43305665,-0.41599536,-0.40205836,-0.38655925,-0.3687322,-0.34897536,-0.3288204,-0.31718075,-0.31252486,-0.3098294,-0.30633748,-0.30284566,-0.30633748,-0.32143837,-0.34817898,-0.37957543,-0.4148314,-0.45474315,-0.5012711,-0.55046403,-0.5985236,-0.6423255,-0.68183905,-0.7202193,-0.75431126,-0.7818176,-0.8023708,-0.8120501,-0.8186357,-0.8225258,-0.8244555,-0.82987714,-0.83686095,-0.84381413,-0.84577453,-0.84111863,-0.8325727,-0.82638526,-0.82598704,-0.82715106,-0.82598704,-0.82405734,-0.81940144,-0.81670594,-0.8147456,-0.81128436,-0.8062303,-0.8015744,-0.79808253,-0.79382485,-0.7876375,-0.78221583,-0.7771617,-0.77406806,-0.7729041,-0.7705761,-0.7682482,-0.7663185,-0.76708424,-0.7705761,-0.7702086,-0.7667167,-0.75896716,-0.7531473,-0.75391304,-0.7581707,-0.763623,-0.76748246,-0.7682482,-0.7643888,-0.7597329,-0.7547095,-0.7508193,-0.7515851,-0.7547095,-0.7554752,-0.7558428,-0.7558428,-0.75700676,-0.75896716,-0.7574049,-0.7547095,-0.7515851,-0.75198334,-0.75431126,-0.7547095,-0.75431126,-0.75238156,-0.75121754,-0.75198334,-0.75042117,-0.74772567,-0.7442338,-0.74114007,-0.73917973,-0.7380464,-0.7380464,-0.7399761,-0.74346805,-0.7426716,-0.7380464,-0.73106253,-0.7248446,-0.723313,-0.7240788,-0.72447693,-0.7213833,-0.7167274,-0.7132355,-0.7136031,-0.71207154,-0.7097436,-0.7027598,-0.6868931,-0.66633993,-0.64465344,-0.6314516,-0.6271939,-0.63610744,-0.6500751,-0.662848,-0.6690661,-0.67136335,-0.6717616,-0.6775814,-0.6907526,-0.7101418,-0.72833645,-0.73841393,-0.73917973,-0.7337581,-0.7298986,-0.7287346,-0.7302662,-0.7298986,-0.7248446,-0.72175086,-0.7213833,-0.72564095,-0.72913283,-0.7295004,-0.7295004,-0.7329923,-0.73492205,-0.703158,-0.60124975,-0.4082458,-0.13854265,0.15171373,0.39700425,0.54234695,0.56596327,0.48806942,0.33733582,0.13737857,-0.10016233,-0.36524028,-0.6221705,-0.8225258,-0.92210615,-0.91588813,-0.84810245,-0.775232,-0.7353202,-0.7337581,-0.7508193,-0.7659203,-0.7682482,-0.76049864,-0.7508193,-0.742304,-0.7376481,-0.73492205,-0.73182833,-0.7279689,-0.71865714,-0.7101418,-0.7027598,-0.69890034,-0.6961742,-0.69035435,-0.68183905,-0.6744877,-0.67023003,-0.6655742,-0.6566607,-0.6442552,-0.632248,-0.624866,-0.6213741,-0.6182804,-0.610929,-0.6004533,-0.5911722,-0.5830245,-0.57254875,-0.5617055,-0.5512605,-0.5415505,-0.5291451,-0.5144424,-0.49388915,-0.47257018,-0.45786744,-0.44389987,-0.42840075,-0.40864402,-0.38772327,-0.37182587,-0.35942048,-0.35013938,-0.3419916,-0.33460963,-0.33151585,-0.33267987,-0.34082764,-0.3512727,-0.36524028,-0.38499707,-0.40940976,-0.44157195,-0.48188198,-0.5276136,-0.57527494,-0.6213741,-0.66208225,-0.6965724,-0.72524273,-0.7484914,-0.76708424,-0.7833798,-0.80004287,-0.81088614,-0.8186357,-0.82056546,-0.81747174,-0.8151438,-0.815542,-0.8186357,-0.82136184,-0.81786996,-0.8120501,-0.8058627,-0.8023708,-0.80273837,-0.80469877,-0.80273837,-0.7988789,-0.7946212,-0.79073113,-0.7884032,-0.78880143,-0.78803563,-0.78530955,-0.7814194,-0.776396,-0.77406806,-0.77406806,-0.77563024,-0.776396,-0.77366984,-0.7705761,-0.76748246,-0.763623,-0.7616626,-0.7578032,-0.75624096,-0.75624096,-0.7578032,-0.7566392,-0.75431126,-0.7508193,-0.7500536,-0.7515851,-0.7531473,-0.75238156,-0.75042117,-0.75198334,-0.7554752,-0.76089686,-0.76245904,-0.7581707,-0.7527491,-0.74772567,-0.74346805,-0.74074185,-0.73881215,-0.7419058,-0.7469599,-0.75238156,-0.7547095,-0.75238156,-0.7492572,-0.74809325,-0.7488896,-0.74772567,-0.74383557,-0.74346805,-0.7442338,-0.74306977,-0.73917973,-0.7333905,-0.7279689,-0.72833645,-0.7287346,-0.7271725,-0.7229148,-0.7198211,-0.71905535,-0.71789134,-0.7132355,-0.70857966,-0.70625174,-0.7074157,-0.7070175,-0.6973382,-0.6775814,-0.65509844,-0.63999754,-0.6357399,-0.6407633,-0.6508408,-0.66168404,-0.6675039,-0.67023003,-0.6698318,-0.67136335,-0.6802769,-0.6965724,-0.7155634,-0.7298986,-0.7376481,-0.74114007,-0.74074185,-0.73725,-0.73106253,-0.7240788,-0.71942294,-0.72098505,-0.72600853,-0.7306644,-0.73222655,-0.73222655,-0.7333905,-0.736086,-0.73881215,-0.7205869,-0.6508408,-0.5058964,-0.28036267,-0.009893715,0.24470866,0.4272368,0.49349105,0.45746922,0.34275746,0.17226696,-0.037400007,-0.2819249,-0.53536314,-0.75042117,-0.88335836,-0.91359085,-0.86978894,-0.80080867,-0.74965537,-0.7329923,-0.7442338,-0.76282656,-0.7733023,-0.7686464,-0.7558428,-0.74383557,-0.73881215,-0.7376481,-0.7357184,-0.7306644,-0.72564095,-0.7240788,-0.7236806,-0.7202193,-0.7147671,-0.7039238,-0.6938463,-0.68493277,-0.67525345,-0.66866785,-0.66477776,-0.664012,-0.662848,-0.6574264,-0.6473489,-0.6345759,-0.62293625,-0.61325693,-0.6055074,-0.5981254,-0.5892118,-0.5822587,-0.57294697,-0.560174,-0.54427665,-0.52644956,-0.51171625,-0.49545133,-0.47722608,-0.45670354,-0.4369161,-0.42221338,-0.40980792,-0.3962385,-0.3811376,-0.3668025,-0.35825646,-0.35323304,-0.34741324,-0.3423592,-0.34159344,-0.35206908,-0.37106013,-0.39584035,-0.42374492,-0.4532116,-0.48770177,-0.5256839,-0.56403345,-0.6035777,-0.6434895,-0.685331,-0.7213833,-0.74732745,-0.7620608,-0.7698104,-0.7783257,-0.7891996,-0.7984807,-0.80430055,-0.8058627,-0.80699605,-0.80739427,-0.8077924,-0.8062303,-0.80273837,-0.7988789,-0.7961528,-0.79422307,-0.79345727,-0.7922933,-0.79149693,-0.78880143,-0.78454375,-0.7814194,-0.7802861,-0.7798879,-0.77755994,-0.7733023,-0.7678807,-0.7639905,-0.763623,-0.7639905,-0.7620608,-0.7578032,-0.75391304,-0.75198334,-0.75198334,-0.7500536,-0.7465617,-0.74346805,-0.7426716,-0.744632,-0.74772567,-0.75042117,-0.7500536,-0.7508193,-0.7515851,-0.7508193,-0.7500536,-0.74772567,-0.7461635,-0.744632,-0.7442338,-0.74539775,-0.7465617,-0.7484914,-0.74732745,-0.74346805,-0.7395779,-0.73725,-0.7399761,-0.7426716,-0.74346805,-0.74306977,-0.7426716,-0.744632,-0.7461635,-0.74579597,-0.74150765,-0.7357184,-0.7314302,-0.73106253,-0.73222655,-0.73455447,-0.73688245,-0.73881215,-0.73841393,-0.7357184,-0.7306644,-0.7279689,-0.72833645,-0.7295004,-0.7295004,-0.7279689,-0.7271725,-0.7298986,-0.7329923,-0.7337581,-0.73106253,-0.72524273,-0.72175086,-0.7205869,-0.7198211,-0.71709496,-0.7147671,-0.7116734,-0.70857966,-0.7050878,-0.70199406,-0.7008301,-0.7023922,-0.7039238,-0.7039238,-0.70159584,-0.69308054,-0.67718315,-0.65586424,-0.6337795,-0.6213741,-0.624866,-0.63999754,-0.6566607,-0.665176,-0.665176,-0.6609183,-0.6613165,-0.67023003,-0.68649495,-0.70548594,-0.7205869,-0.72913283,-0.72913283,-0.72524273,-0.722149,-0.72251666,-0.72600853,-0.72757065,-0.7271725,-0.72447693,-0.72251666,-0.7248446,-0.72757065,-0.7279689,-0.72757065,-0.7298986,-0.7295004,-0.7027598,-0.6147885,-0.44582963,-0.20403105,0.0606488,0.29007268,0.4345882,0.4675467,0.40787828,0.277269,0.097466946,-0.1168254,-0.35905296,-0.5957974,-0.7837474,-0.8825619,-0.8856863,-0.82987714,-0.76708424,-0.7314302,-0.72564095,-0.73648417,-0.74809325,-0.75198334,-0.75121754,-0.7465617,-0.7403437,-0.73415625,-0.72757065,-0.723313,-0.71709496,-0.71050936,-0.7039238,-0.6977364,-0.69501024,-0.69231474,-0.6872607,-0.6806751,-0.67292553,-0.6671057,-0.6613165,-0.65549666,-0.64967686,-0.64465344,-0.6407633,-0.63610744,-0.6291236,-0.6198425,-0.6093669,-0.6004533,-0.5915398,-0.58146226,-0.5713848,-0.5624713,-0.5547217,-0.5450424,-0.5303091,-0.512482,-0.49272525,-0.47606212,-0.4597972,-0.44197017,-0.42374492,-0.40515208,-0.3904187,-0.37764573,-0.36640424,-0.35592854,-0.34664744,-0.3419916,-0.34082764,-0.3419916,-0.34701502,-0.35749072,-0.3768493,-0.40322238,-0.43538457,-0.47220266,-0.511318,-0.5531902,-0.5938677,-0.62992007,-0.66168404,-0.6899868,-0.71789134,-0.74346805,-0.7639905,-0.77755994,-0.7857077,-0.7926609,-0.7984807,-0.80273837,-0.8058627,-0.80739427,-0.8085582,-0.8089564,-0.80662847,-0.8012068,-0.795387,-0.79112935,-0.7884032,-0.78607523,-0.7837474,-0.78065366,-0.7783257,-0.775232,-0.7729041,-0.7702086,-0.7686464,-0.76904464,-0.7682482,-0.7659203,-0.76245904,-0.7593347,-0.75856894,-0.75856894,-0.7558428,-0.75198334,-0.7492572,-0.7492572,-0.7508193,-0.75198334,-0.7508193,-0.74772567,-0.74772567,-0.74809325,-0.74809325,-0.74732745,-0.74539775,-0.74539775,-0.74539775,-0.7449995,-0.7449995,-0.74539775,-0.7461635,-0.74579597,-0.742304,-0.73841393,-0.736086,-0.7380464,-0.74074185,-0.74074185,-0.73881215,-0.7357184,-0.73492205,-0.736086,-0.73725,-0.73725,-0.736086,-0.7357184,-0.7353202,-0.73415625,-0.73259413,-0.7314302,-0.73182833,-0.73222655,-0.73222655,-0.7302662,-0.72833645,-0.7279689,-0.7287346,-0.7287346,-0.7264067,-0.7236806,-0.72251666,-0.722149,-0.7213833,-0.71905535,-0.7163292,-0.71516526,-0.71439946,-0.7140013,-0.7132355,-0.71207154,-0.71283734,-0.71283734,-0.7113058,-0.7093454,-0.7066499,-0.7074157,-0.7089778,-0.7109076,-0.7113058,-0.7101418,-0.7101418,-0.7089778,-0.70781386,-0.70548594,-0.7027598,-0.7023922,-0.7035562,-0.7047202,-0.7047202,-0.703158,-0.70159584,-0.69966614,-0.6977364,-0.6961742,-0.6961742,-0.69810396,-0.69966614,-0.7004319,-0.6985022,-0.6958066,-0.6958066,-0.6961742,-0.6961742,-0.69540846,-0.6938463,-0.6938463,-0.6938463,-0.69308054,-0.69151837,-0.69035435,-0.6919166,-0.6938463,-0.69540846,-0.6942445,-0.6919166,-0.6911508,-0.6899868,-0.6895886,-0.6876589,-0.685331,-0.6845652,-0.6837688,-0.6845652,-0.6845652,-0.6845652,-0.6845652,-0.6834012,-0.68144083,-0.67914355,-0.67718315,-0.6783472,-0.67951113,-0.67951113,-0.67914355,-0.67951113,-0.6806751,-0.6806751,-0.6787454,-0.67565167,-0.67332375,-0.6744877,-0.6760192,-0.67525345,-0.67136335,-0.66673815,-0.6636138,-0.6605201,-0.6574264,-0.65316874,-0.64851284,-0.6473489,-0.6481147,-0.6489111,-0.64465344,-0.63184977,-0.61246055,-0.591938,-0.5787668,-0.578001,-0.5892118,-0.6051092,-0.6151867,-0.61595243,-0.610929,-0.60783535,-0.6147885,-0.632248,-0.65509844,-0.6764174,-0.69035435,-0.6961742,-0.6942445,-0.6872607,-0.68144083,-0.67990935,-0.6845652,-0.6907526,-0.69464266,-0.69501024,-0.6934787,-0.6938463,-0.69540846,-0.6977364,-0.7027598,-0.7089778,-0.69810396,-0.631084,-0.47839004,-0.23695898,0.05213344,0.3218367,0.51906765,0.6035471,0.5818604,0.4725703,0.29236984,0.06490648,-0.1974454,-0.46289092,-0.6880264,-0.8322051,-0.8732809,-0.8341348,-0.7663185,-0.7163292,-0.7023922,-0.71439946,-0.7337581,-0.7449995,-0.74579597,-0.7403437,-0.7329923,-0.72600853,-0.71905535,-0.7132355,-0.70857966,-0.704322,-0.6992679,-0.69231474,-0.68493277,-0.67914355,-0.6736913,-0.66866785,-0.662848,-0.6570282,-0.652403,-0.6469507,-0.6403651,-0.63184977,-0.62370205,-0.61867857,-0.61325693,-0.6070389,-0.5985236,-0.58804786,-0.57953256,-0.57061905,-0.5609398,-0.55046403,-0.5392226,-0.52877754,-0.5171379,-0.5039667,-0.48806936,-0.47180444,-0.45670354,-0.440408,-0.42337734,-0.40398806,-0.3853953,-0.36909974,-0.354397,-0.34082764,-0.32802397,-0.31757897,-0.3117591,-0.3098294,-0.3094312,-0.31099337,-0.31681317,-0.33035195,-0.35206908,-0.3807394,-0.41366744,-0.4501179,-0.49039727,-0.53147304,-0.5713848,-0.6089993,-0.643857,-0.6764174,-0.7047202,-0.7271725,-0.7426716,-0.7554752,-0.7682482,-0.7791221,-0.7864735,-0.7891996,-0.7884032,-0.7876375,-0.78607523,-0.7837474,-0.7798879,-0.77599776,-0.7744663,-0.7729041,-0.77097434,-0.76748246,-0.7643888,-0.76282656,-0.7616626,-0.76049864,-0.7574049,-0.75391304,-0.7527491,-0.75121754,-0.7492572,-0.74732745,-0.7449995,-0.74539775,-0.7461635,-0.74579597,-0.74346805,-0.74114007,-0.74074185,-0.74150765,-0.7419058,-0.74074185,-0.73917973,-0.7403437,-0.7419058,-0.742304,-0.74074185,-0.7380464,-0.7380464,-0.7380464,-0.73841393,-0.7380464,-0.7376481,-0.73917973,-0.73917973,-0.7380464,-0.7353202,-0.7333905,-0.73415625,-0.73688245,-0.7376481,-0.736086,-0.73415625,-0.7337581,-0.73415625,-0.73455447,-0.73259413,-0.7302662,-0.7295004,-0.7295004,-0.7295004,-0.7279689,-0.72600853,-0.7264067,-0.72757065,-0.72833645,-0.7268049,-0.7248446,-0.7236806,-0.72447693,-0.72524273,-0.72524273,-0.72447693,-0.7248446,-0.7240788,-0.7229148,-0.7198211,-0.7163292,-0.71439946,-0.7132355,-0.71207154,-0.71050936,-0.7097436,-0.7109076,-0.7116734,-0.7113058,-0.7093454,-0.70781386,-0.70781386,-0.70857966,-0.70857966,-0.7066499,-0.7050878,-0.70548594,-0.7058535,-0.7058535,-0.7039238,-0.70199406,-0.70159584,-0.7008301,-0.6985022,-0.6938463,-0.6895886,-0.6895886,-0.69151837,-0.69308054,-0.69151837,-0.68842465,-0.6860967,-0.68572915,-0.6868931,-0.68649495,-0.68649495,-0.6868931,-0.6876589,-0.6895886,-0.69035435,-0.69035435,-0.69231474,-0.69308054,-0.69231474,-0.6899868,-0.68649495,-0.6845652,-0.6837688,-0.6837688,-0.68300307,-0.68223727,-0.6837688,-0.6860967,-0.6876589,-0.6876589,-0.68572915,-0.685331,-0.685331,-0.685331,-0.684167,-0.68183905,-0.67914355,-0.67485523,-0.67099583,-0.6655742,-0.6605201,-0.65782464,-0.65549666,-0.65316874,-0.6508408,-0.6481147,-0.6423255,-0.62682635,-0.6027813,-0.57760286,-0.56403345,-0.56829107,-0.5872821,-0.60743713,-0.6175146,-0.61635065,-0.61053085,-0.60667133,-0.61325693,-0.6302876,-0.65509844,-0.6806751,-0.69810396,-0.7027598,-0.69810396,-0.6911508,-0.6876589,-0.6880264,-0.6891904,-0.6891904,-0.68842465,-0.6891904,-0.6911508,-0.6934787,-0.6942445,-0.6958066,-0.703158,-0.7116734,-0.6965724,-0.6155849,-0.440408,-0.17147058,0.14512825,0.44004047,0.65509856,0.7453977,0.7163292,0.588446,0.38423145,0.13039494,-0.16022915,-0.45048547,-0.69231474,-0.8414862,-0.8775385,-0.8333691,-0.7659203,-0.71942294,-0.70818144,-0.72175086,-0.74074185,-0.7531473,-0.7554752,-0.75121754,-0.7419058,-0.7337581,-0.72833645,-0.7236806,-0.7174932,-0.7101418,-0.7027598,-0.69693995,-0.6911508,-0.685331,-0.6779796,-0.6705976,-0.6671057,-0.6632463,-0.65782464,-0.64927864,-0.6403651,-0.63341194,-0.62682635,-0.62024075,-0.6116948,-0.6027813,-0.59426594,-0.58611816,-0.5760407,-0.5624713,-0.54893255,-0.5368947,-0.5256839,-0.513646,-0.4993108,-0.48381168,-0.46871072,-0.45281345,-0.43498635,-0.4140656,-0.39351243,-0.37531775,-0.35788894,-0.34159344,-0.3237663,-0.30633748,-0.2923699,-0.282323,-0.27494103,-0.2702852,-0.2699176,-0.27570683,-0.2889086,-0.30903292,-0.335406,-0.36909974,-0.41057372,-0.45553952,-0.5024351,-0.54893255,-0.59426594,-0.6372714,-0.6760192,-0.70818144,-0.73222655,-0.75238156,-0.77097434,-0.7864735,-0.79808253,-0.8050663,-0.8089564,-0.8120501,-0.814378,-0.81397986,-0.81088614,-0.8077924,-0.8077924,-0.8085582,-0.8077924,-0.80353475,-0.79771495,-0.79422307,-0.7926609,-0.7930591,-0.790333,-0.78607523,-0.7825834,-0.7802861,-0.7791221,-0.7783257,-0.77755994,-0.7771617,-0.77563024,-0.7725059,-0.7682482,-0.7647563,-0.7647563,-0.7659203,-0.7663185,-0.7647563,-0.76282656,-0.7616626,-0.76089686,-0.7593347,-0.75624096,-0.75431126,-0.75391304,-0.7547095,-0.755077,-0.7527491,-0.75121754,-0.75121754,-0.75238156,-0.7535455,-0.7515851,-0.74965537,-0.7484914,-0.7484914,-0.74809325,-0.7469599,-0.74539775,-0.7461635,-0.74732745,-0.74809325,-0.7461635,-0.74383557,-0.7426716,-0.7426716,-0.74306977,-0.7419058,-0.7403437,-0.73917973,-0.73841393,-0.7376481,-0.7357184,-0.7333905,-0.73259413,-0.73182833,-0.7302662,-0.72757065,-0.72600853,-0.72564095,-0.7268049,-0.7271725,-0.72564095,-0.7236806,-0.7240788,-0.7248446,-0.72524273,-0.7236806,-0.722149,-0.72175086,-0.72175086,-0.7213833,-0.71905535,-0.71789134,-0.71865714,-0.7205869,-0.7213833,-0.718259,-0.7136031,-0.7113058,-0.7109076,-0.71207154,-0.71246976,-0.71207154,-0.7113058,-0.70857966,-0.7035562,-0.6961742,-0.6899868,-0.6868931,-0.68572915,-0.68493277,-0.6834012,-0.68223727,-0.68144083,-0.67718315,-0.6624805,-0.6369039,-0.6101633,-0.59426594,-0.5950317,-0.6101633,-0.6283579,-0.6415291,-0.6454192,-0.64192724,-0.6376696,-0.6395993,-0.6543327,-0.6806751,-0.7089778,-0.72757065,-0.7314302,-0.72564095,-0.718259,-0.7140013,-0.7147671,-0.71709496,-0.718259,-0.7202193,-0.7213833,-0.7213833,-0.71905535,-0.7174932,-0.7198211,-0.7279689,-0.73182833,-0.69890034,-0.59077406,-0.38616103,-0.09437311,0.22884178,0.51677036,0.7081814,0.7667167,0.70625174,0.5481361,0.31874287,0.040891886,-0.26565993,-0.5547217,-0.7767942,-0.8907097,-0.89652956,-0.8407204,-0.77755994,-0.7426716,-0.73841393,-0.75121754,-0.7659203,-0.7725059,-0.77137256,-0.7639905,-0.755077,-0.74732745,-0.74114007,-0.7357184,-0.7295004,-0.7229148,-0.7167274,-0.7116734,-0.7066499,-0.7008301,-0.69464266,-0.6891904,-0.68300307,-0.67485523,-0.665176,-0.65586424,-0.6489111,-0.64309126,-0.6372714,-0.6279903,-0.6175146,-0.6082029,-0.5996876,-0.59037584,-0.5787668,-0.56596315,-0.55355775,-0.54234695,-0.5295433,-0.51404417,-0.4966153,-0.47915584,-0.46096116,-0.44236833,-0.4206512,-0.3989647,-0.3788097,-0.36135018,-0.34664744,-0.32998443,-0.3105951,-0.2916041,-0.27417523,-0.26253557,-0.25787973,-0.26020765,-0.2687536,-0.28345633,-0.30517346,-0.3330781,-0.3687322,-0.41250348,-0.46212512,-0.5132784,-0.5624713,-0.6093669,-0.65356696,-0.69464266,-0.7314302,-0.7616626,-0.7857077,-0.8050663,-0.81979966,-0.83064294,-0.835697,-0.838025,-0.83918893,-0.84032226,-0.84032226,-0.8387907,-0.8360646,-0.8333691,-0.83140874,-0.829479,-0.8256195,-0.82056546,-0.81590956,-0.8124483,-0.8085582,-0.8039023,-0.7996447,-0.796551,-0.79382485,-0.7895672,-0.7833798,-0.77755994,-0.7744663,-0.7744663,-0.77483386,-0.7733023,-0.77137256,-0.7702086,-0.7702086,-0.77097434,-0.76941216,-0.7667167,-0.7643888,-0.763623,-0.7639905,-0.763623,-0.76282656,-0.7620608,-0.7616626,-0.76089686,-0.75856894,-0.75624096,-0.755077,-0.7554752,-0.75700676,-0.7581707,-0.7593347,-0.76089686,-0.7620608,-0.7616626,-0.75856894,-0.7566392,-0.75624096,-0.7574049,-0.75896716,-0.75856894,-0.7574049,-0.7566392,-0.75700676,-0.7566392,-0.75391304,-0.7508193,-0.74772567,-0.74539775,-0.74306977,-0.74114007,-0.7403437,-0.74114007,-0.74306977,-0.74306977,-0.7403437,-0.7376481,-0.73648417,-0.73688245,-0.7376481,-0.73688245,-0.7353202,-0.73415625,-0.7337581,-0.7333905,-0.73222655,-0.7302662,-0.7295004,-0.72833645,-0.7268049,-0.723313,-0.7213833,-0.72098505,-0.722149,-0.7229148,-0.7202193,-0.71709496,-0.7147671,-0.7140013,-0.71439946,-0.7147671,-0.71439946,-0.7140013,-0.71207154,-0.7074157,-0.6992679,-0.6919166,-0.68649495,-0.684167,-0.6837688,-0.6826048,-0.6802769,-0.6736913,-0.65819216,-0.6345759,-0.6086011,-0.591938,-0.59037584,-0.6024137,-0.6179128,-0.6271939,-0.6302876,-0.62992007,-0.63261557,-0.6434895,-0.6609183,-0.6837688,-0.7047202,-0.71709496,-0.71942294,-0.71439946,-0.7089778,-0.7070175,-0.7089778,-0.7116734,-0.71283734,-0.71283734,-0.7132355,-0.71516526,-0.7163292,-0.715931,-0.715931,-0.72098505,-0.7271725,-0.7074157,-0.6182804,-0.42879897,-0.13465244,0.21680403,0.5512605,0.8004105,0.90970063,0.88103044,0.7353202,0.49854493,0.19667971,-0.14862013,-0.48537385,-0.7527491,-0.90002143,-0.9190124,-0.8577817,-0.7825834,-0.7380464,-0.73106253,-0.7461635,-0.7643888,-0.77406806,-0.7733023,-0.76555276,-0.755077,-0.7465617,-0.74074185,-0.73725,-0.7329923,-0.72600853,-0.71905535,-0.71283734,-0.7074157,-0.7023922,-0.6942445,-0.6837688,-0.6740895,-0.6659417,-0.6593561,-0.65316874,-0.6477471,-0.64309126,-0.6380372,-0.63184977,-0.6213741,-0.60976505,-0.5985236,-0.58804786,-0.5764389,-0.5624713,-0.54853433,-0.5345974,-0.5229577,-0.5105523,-0.49428737,-0.47569454,-0.4559071,-0.4361503,-0.41679174,-0.3962385,-0.37455207,-0.35167092,-0.32918793,-0.3067357,-0.28618246,-0.26912123,-0.2563482,-0.24859864,-0.2439428,-0.24277884,-0.24783283,-0.26060587,-0.28269058,-0.31525105,-0.35360062,-0.39700437,-0.4450639,-0.49545133,-0.54660463,-0.59735966,-0.64465344,-0.6876589,-0.72564095,-0.7578032,-0.7814194,-0.80041045,-0.8151438,-0.82598704,-0.8333691,-0.838025,-0.8407204,-0.8426502,-0.84304833,-0.8422826,-0.838025,-0.8352988,-0.83373666,-0.8333691,-0.83140874,-0.82638526,-0.82056546,-0.81590956,-0.81321406,-0.8104879,-0.80662847,-0.8019726,-0.79771495,-0.7949888,-0.7918951,-0.7884032,-0.78491133,-0.7814194,-0.7798879,-0.77872396,-0.77795815,-0.77795815,-0.7783257,-0.77755994,-0.77563024,-0.7729041,-0.77097434,-0.7698104,-0.77097434,-0.77137256,-0.77097434,-0.7705761,-0.76941216,-0.7682482,-0.7659203,-0.7632248,-0.7616626,-0.7620608,-0.7632248,-0.7632248,-0.7616626,-0.76089686,-0.7601311,-0.7601311,-0.7601311,-0.7578032,-0.7558428,-0.7547095,-0.75624096,-0.7558428,-0.7531473,-0.74772567,-0.7419058,-0.7399761,-0.7403437,-0.7419058,-0.742304,-0.7419058,-0.74150765,-0.7419058,-0.7403437,-0.7395779,-0.73841393,-0.7380464,-0.73917973,-0.73881215,-0.7376481,-0.73688245,-0.73688245,-0.73688245,-0.736086,-0.73415625,-0.7314302,-0.7302662,-0.7287346,-0.72757065,-0.72833645,-0.7302662,-0.7337581,-0.736086,-0.73455447,-0.73182833,-0.72833645,-0.7264067,-0.7248446,-0.722149,-0.72098505,-0.72098505,-0.7229148,-0.7236806,-0.72175086,-0.71905535,-0.71865714,-0.71865714,-0.71905535,-0.7167274,-0.7136031,-0.71207154,-0.7116734,-0.7116734,-0.7089778,-0.7066499,-0.7027598,-0.7000643,-0.6965724,-0.6919166,-0.68882287,-0.6860967,-0.6845652,-0.6810733,-0.67525345,-0.6705976,-0.6675039,-0.66168404,-0.6477471,-0.6244984,-0.60085154,-0.5868839,-0.58844614,-0.60008574,-0.6128588,-0.6213741,-0.6244984,-0.6264281,-0.63184977,-0.64309126,-0.66168404,-0.6826048,-0.7027598,-0.7136031,-0.7155634,-0.7140013,-0.7109076,-0.7097436,-0.7089778,-0.7070175,-0.70625174,-0.70857966,-0.7132355,-0.71516526,-0.7140013,-0.71207154,-0.7132355,-0.7229148,-0.73106253,-0.7023922,-0.6020155,-0.40242594,-0.108310044,0.22804546,0.532637,0.7314302,0.78803563,0.717095,0.55279195,0.31874287,0.02848649,-0.2981897,-0.6093669,-0.83918893,-0.9387693,-0.9190124,-0.83955646,-0.7643888,-0.72524273,-0.722149,-0.73841393,-0.7547095,-0.7647563,-0.76555276,-0.7581707,-0.74809325,-0.7380464,-0.7306644,-0.7240788,-0.718259,-0.71439946,-0.7089778,-0.7039238,-0.6973382,-0.6872607,-0.6779796,-0.6705976,-0.6655742,-0.66168404,-0.65549666,-0.6481147,-0.63999754,-0.63261557,-0.62526417,-0.61711645,-0.6089993,-0.6004533,-0.5915398,-0.58109474,-0.56829107,-0.5562839,-0.54697216,-0.53805864,-0.5279811,-0.51211447,-0.4931234,-0.47257018,-0.45437557,-0.43654853,-0.41755748,-0.39816827,-0.3788097,-0.36018628,-0.3412258,-0.32143837,-0.30284566,-0.28694826,-0.27650326,-0.27108157,-0.2687536,-0.27144915,-0.27726895,-0.29007262,-0.3098294,-0.33849972,-0.37648177,-0.42104942,-0.4690783,-0.51677024,-0.5624713,-0.60743713,-0.6504426,-0.69035435,-0.7236806,-0.75042117,-0.77213836,-0.7895672,-0.8050663,-0.815542,-0.82056546,-0.8228934,-0.82405734,-0.8256195,-0.8275492,-0.8275492,-0.8256195,-0.8225258,-0.81940144,-0.815542,-0.81128436,-0.80699605,-0.8039023,-0.8019726,-0.7988789,-0.7946212,-0.79073113,-0.7876375,-0.7884032,-0.7876375,-0.7837474,-0.7783257,-0.7729041,-0.7702086,-0.77137256,-0.77097434,-0.7698104,-0.7667167,-0.76555276,-0.76708424,-0.7705761,-0.7733023,-0.7733023,-0.77137256,-0.7678807,-0.7643888,-0.7620608,-0.76245904,-0.7647563,-0.76941216,-0.7725059,-0.7729041,-0.7698104,-0.76708424,-0.76555276,-0.7639905,-0.7647563,-0.7651545,-0.7643888,-0.7632248,-0.7616626,-0.76282656,-0.76708424,-0.7705761,-0.77137256,-0.7667167,-0.7593347,-0.755077,-0.7547095,-0.755077,-0.7547095,-0.75198334,-0.7500536,-0.75042117,-0.7531473,-0.7547095,-0.7547095,-0.75238156,-0.7508193,-0.7500536,-0.7484914,-0.7484914,-0.74732745,-0.7461635,-0.7461635,-0.74579597,-0.7461635,-0.7461635,-0.7469599,-0.7465617,-0.74383557,-0.7399761,-0.73725,-0.7357184,-0.7353202,-0.7353202,-0.73415625,-0.7337581,-0.73492205,-0.736086,-0.7380464,-0.73841393,-0.7357184,-0.7337581,-0.73106253,-0.72833645,-0.7306644,-0.73415625,-0.73688245,-0.73648417,-0.73106253,-0.7248446,-0.71865714,-0.7147671,-0.71283734,-0.7097436,-0.70781386,-0.70548594,-0.703158,-0.70122826,-0.69966614,-0.7004319,-0.6985022,-0.68842465,-0.6694336,-0.64465344,-0.6264281,-0.62253803,-0.6314516,-0.64465344,-0.6547003,-0.6585904,-0.6589886,-0.6613165,-0.66826963,-0.68144083,-0.6992679,-0.7167274,-0.73106253,-0.73841393,-0.73917973,-0.73725,-0.73455447,-0.73455447,-0.73492205,-0.7337581,-0.73222655,-0.7314302,-0.73222655,-0.7329923,-0.73222655,-0.7329923,-0.7380464,-0.74579597,-0.7279689,-0.6461849,-0.47180444,-0.20519495,0.107911944,0.3958403,0.59350014,0.6613165,0.61053085,0.46987474,0.26293385,0.0048396587,-0.2943303,-0.59000826,-0.82329154,-0.9434251,-0.9430269,-0.87211686,-0.79382485,-0.74809325,-0.7399761,-0.75198334,-0.7663185,-0.7717401,-0.7702086,-0.76555276,-0.75856894,-0.7535455,-0.74809325,-0.7426716,-0.7357184,-0.7264067,-0.718259,-0.71207154,-0.7070175,-0.7023922,-0.69501024,-0.6876589,-0.68144083,-0.6779796,-0.6740895,-0.66866785,-0.66208225,-0.65316874,-0.6454192,-0.6372714,-0.62682635,-0.61674887,-0.6055074,-0.5950317,-0.58379024,-0.57254875,-0.5605415,-0.54893255,-0.5361289,-0.5229577,-0.5078567,-0.49195945,-0.47606212,-0.4597972,-0.4408062,-0.42025304,-0.40012866,-0.3807394,-0.36407632,-0.34974116,-0.335406,-0.32339877,-0.31215733,-0.30557173,-0.30051762,-0.29742402,-0.30128342,-0.31332123,-0.335406,-0.36524028,-0.39856648,-0.43731433,-0.47995222,-0.5283793,-0.57720464,-0.6213741,-0.66168404,-0.69890034,-0.73492205,-0.7639905,-0.7837474,-0.7957852,-0.8054645,-0.81670594,-0.828315,-0.835697,-0.838025,-0.83955646,-0.8418844,-0.84111863,-0.83646274,-0.8275492,-0.8201979,-0.81940144,-0.82056546,-0.8201979,-0.81590956,-0.81088614,-0.8062303,-0.8031366,-0.7996447,-0.7957852,-0.7922933,-0.78880143,-0.78530955,-0.78065366,-0.776396,-0.7744663,-0.7767942,-0.77755994,-0.7744663,-0.7698104,-0.7639905,-0.7616626,-0.76282656,-0.7647563,-0.7663185,-0.7643888,-0.7632248,-0.7620608,-0.7620608,-0.7639905,-0.7659203,-0.7682482,-0.7682482,-0.7678807,-0.7663185,-0.763623,-0.76282656,-0.76282656,-0.7643888,-0.76708424,-0.76708424,-0.7647563,-0.76049864,-0.7566392,-0.7554752,-0.75624096,-0.75896716,-0.7593347,-0.7578032,-0.75700676,-0.75624096,-0.7566392,-0.7558428,-0.7535455,-0.7515851,-0.7515851,-0.7527491,-0.74965537,-0.744632,-0.7399761,-0.73688245,-0.7395779,-0.7426716,-0.7419058,-0.7380464,-0.73455447,-0.73415625,-0.73725,-0.74074185,-0.744632,-0.74346805,-0.73881215,-0.73222655,-0.7268049,-0.7248446,-0.72757065,-0.7306644,-0.7287346,-0.7240788,-0.71865714,-0.7174932,-0.723313,-0.72757065,-0.7264067,-0.723313,-0.7213833,-0.7229148,-0.72600853,-0.7264067,-0.72251666,-0.7205869,-0.722149,-0.723313,-0.71865714,-0.7093454,-0.69810396,-0.69231474,-0.6899868,-0.6911508,-0.6938463,-0.69890034,-0.704322,-0.6985022,-0.67951113,-0.64927864,-0.624866,-0.6179128,-0.62602997,-0.63999754,-0.65160656,-0.65549666,-0.6570282,-0.6570282,-0.6605201,-0.6694336,-0.684167,-0.70159584,-0.7140013,-0.718259,-0.71709496,-0.7155634,-0.718259,-0.72175086,-0.7236806,-0.722149,-0.71709496,-0.71516526,-0.7136031,-0.71246976,-0.71283734,-0.7147671,-0.723313,-0.73222655,-0.722149,-0.6585904,-0.5148099,-0.2842527,0.0017459393,0.2799952,0.48923326,0.5787668,0.5500964,0.4330566,0.25518417,0.03274417,-0.2280454,-0.50087297,-0.73841393,-0.8845223,-0.92210615,-0.8775385,-0.8039023,-0.7469599,-0.722149,-0.72600853,-0.74306977,-0.7593347,-0.7651545,-0.75856894,-0.74772567,-0.73917973,-0.7353202,-0.7329923,-0.7271725,-0.71905535,-0.71207154,-0.7097436,-0.7066499,-0.70122826,-0.6919166,-0.68144083,-0.67485523,-0.6717616,-0.6675039,-0.66168404,-0.65509844,-0.6477471,-0.63920116,-0.6302876,-0.61867857,-0.6086011,-0.6016173,-0.5961957,-0.5896101,-0.5783686,-0.5667596,-0.55937755,-0.5493001,-0.5361289,-0.51909816,-0.49854505,-0.48071802,-0.46482062,-0.4469936,-0.42647105,-0.40475392,-0.38888717,-0.37648177,-0.36524028,-0.35592854,-0.34624928,-0.3381015,-0.32725823,-0.31485283,-0.30557173,-0.30557173,-0.32183665,-0.34508526,-0.37142766,-0.3989647,-0.43033051,-0.47103864,-0.5187,-0.5675254,-0.61053085,-0.6473489,-0.6810733,-0.7097436,-0.73415625,-0.755077,-0.7725059,-0.79149693,-0.8097222,-0.82136184,-0.82405734,-0.8186357,-0.81128436,-0.8085582,-0.8116519,-0.8147456,-0.81397986,-0.8077924,-0.80041045,-0.79382485,-0.79149693,-0.79149693,-0.7926609,-0.79149693,-0.78880143,-0.78723925,-0.78530955,-0.7876375,-0.7868717,-0.7837474,-0.77755994,-0.77137256,-0.7698104,-0.7698104,-0.76748246,-0.7643888,-0.7597329,-0.7578032,-0.7566392,-0.755077,-0.75431126,-0.75431126,-0.7574049,-0.76282656,-0.7667167,-0.7663185,-0.763623,-0.7616626,-0.7593347,-0.75700676,-0.75391304,-0.7500536,-0.7484914,-0.7492572,-0.75238156,-0.7566392,-0.7581707,-0.7566392,-0.75198334,-0.7465617,-0.74539775,-0.74732745,-0.755077,-0.7566392,-0.7527491,-0.7461635,-0.7419058,-0.7426716,-0.744632,-0.74539775,-0.74114007,-0.7353202,-0.73222655,-0.73106253,-0.73222655,-0.73455447,-0.73648417,-0.73841393,-0.7380464,-0.73455447,-0.7314302,-0.7306644,-0.7306644,-0.7298986,-0.72913283,-0.7287346,-0.7287346,-0.72833645,-0.72447693,-0.71942294,-0.7163292,-0.718259,-0.72447693,-0.7264067,-0.7236806,-0.7174932,-0.7109076,-0.71050936,-0.71050936,-0.7113058,-0.71050936,-0.7074157,-0.7027598,-0.6934787,-0.6876589,-0.68493277,-0.6860967,-0.69151837,-0.68842465,-0.67332375,-0.6504426,-0.631084,-0.6217723,-0.62293625,-0.631084,-0.6395993,-0.6469507,-0.6520048,-0.65356696,-0.6547003,-0.65975434,-0.6744877,-0.6938463,-0.71283734,-0.72251666,-0.7240788,-0.723313,-0.7202193,-0.71865714,-0.7155634,-0.7113058,-0.70857966,-0.7113058,-0.7147671,-0.71516526,-0.7147671,-0.71207154,-0.7113058,-0.71789134,-0.715931,-0.67136335,-0.553956,-0.34974116,-0.081171274,0.1881336,0.39973056,0.5024046,0.4907955,0.39467645,0.23891926,0.042055845,-0.1935553,-0.45630533,-0.6934787,-0.85272765,-0.9035133,-0.86396915,-0.7930591,-0.73881215,-0.71942294,-0.72447693,-0.73725,-0.7461635,-0.74809325,-0.74306977,-0.7357184,-0.72833645,-0.7240788,-0.723313,-0.7198211,-0.71283734,-0.7050878,-0.6965724,-0.69035435,-0.68649495,-0.68300307,-0.6787454,-0.67485523,-0.6694336,-0.6613165,-0.6520048,-0.643857,-0.6395993,-0.6372714,-0.6337795,-0.6306858,-0.62253803,-0.61246055,-0.6004533,-0.5868839,-0.5737127,-0.56636137,-0.5632677,-0.55937755,-0.54893255,-0.53110546,-0.511318,-0.49465495,-0.47995222,-0.4663828,-0.44971973,-0.43149447,-0.4148314,-0.4008944,-0.38848895,-0.37531775,-0.36018628,-0.34548354,-0.33035195,-0.3237663,-0.3264925,-0.33773392,-0.354397,-0.37106013,-0.38925475,-0.4148314,-0.44971973,-0.49272525,-0.5365271,-0.5760407,-0.6101633,-0.64269304,-0.6810733,-0.71865714,-0.74772567,-0.76708424,-0.775232,-0.7791221,-0.7837474,-0.79149693,-0.7992465,-0.8077924,-0.814378,-0.81590956,-0.81012034,-0.80041045,-0.79149693,-0.7899654,-0.79345727,-0.79771495,-0.79731673,-0.79382485,-0.79073113,-0.7868717,-0.7833798,-0.7810519,-0.77872396,-0.7818176,-0.78454375,-0.7814194,-0.7729041,-0.76049864,-0.75121754,-0.74809325,-0.7500536,-0.75431126,-0.75700676,-0.7566392,-0.755077,-0.75238156,-0.7492572,-0.74732745,-0.74772567,-0.74809325,-0.74809325,-0.74539775,-0.7426716,-0.74306977,-0.74539775,-0.74772567,-0.7488896,-0.74732745,-0.744632,-0.74346805,-0.74306977,-0.74346805,-0.7442338,-0.744632,-0.74383557,-0.74150765,-0.73881215,-0.7380464,-0.74074185,-0.742304,-0.742304,-0.7403437,-0.73688245,-0.736086,-0.73688245,-0.73841393,-0.7399761,-0.74114007,-0.742304,-0.74114007,-0.7399761,-0.7380464,-0.73688245,-0.7380464,-0.73648417,-0.73415625,-0.73106253,-0.72913283,-0.7298986,-0.7302662,-0.73222655,-0.73222655,-0.7306644,-0.72913283,-0.72524273,-0.7202193,-0.71789134,-0.71905535,-0.72524273,-0.7302662,-0.7314302,-0.7287346,-0.7229148,-0.71905535,-0.71709496,-0.7155634,-0.7136031,-0.71207154,-0.7140013,-0.715931,-0.7163292,-0.7132355,-0.70781386,-0.7027598,-0.7000643,-0.6965724,-0.6919166,-0.68649495,-0.6845652,-0.68493277,-0.6860967,-0.6802769,-0.66441023,-0.6415291,-0.62253803,-0.6144209,-0.6194444,-0.6345759,-0.64927864,-0.6566607,-0.6566607,-0.65160656,-0.6477471,-0.6543327,-0.6698318,-0.68882287,-0.704322,-0.7116734,-0.71246976,-0.7097436,-0.70857966,-0.70781386,-0.70818144,-0.7109076,-0.71207154,-0.7109076,-0.70857966,-0.7047202,-0.7050878,-0.70818144,-0.7140013,-0.7213833,-0.7155634,-0.6690661,-0.55279195,-0.35283488,-0.09357673,0.1668148,0.3687321,0.46678114,0.4570712,0.3664043,0.21720219,0.025760412,-0.20053911,-0.446626,-0.6705976,-0.82794744,-0.8903421,-0.867461,-0.8050663,-0.7484914,-0.7213833,-0.723313,-0.736086,-0.74539775,-0.74539775,-0.7395779,-0.73455447,-0.7306644,-0.7268049,-0.723313,-0.71789134,-0.71283734,-0.7074157,-0.7008301,-0.6938463,-0.6880264,-0.6834012,-0.6783472,-0.6721598,-0.664012,-0.6562624,-0.6520048,-0.6489111,-0.64502096,-0.6395993,-0.6314516,-0.62253803,-0.61325693,-0.60394526,-0.5957974,-0.58804786,-0.58186054,-0.5733452,-0.5624713,-0.5496983,-0.5368947,-0.5260514,-0.513646,-0.49894327,-0.48148376,-0.4644531,-0.45048547,-0.4361503,-0.42104942,-0.40398806,-0.38616103,-0.3706619,-0.35709256,-0.34664744,-0.3400619,-0.3373357,-0.33966362,-0.34315556,-0.34664744,-0.35323304,-0.3675682,-0.39274663,-0.42840075,-0.46947652,-0.51171625,-0.5543542,-0.5961957,-0.6349435,-0.66866785,-0.6958066,-0.71865714,-0.7399761,-0.75896716,-0.77483386,-0.7857077,-0.7922933,-0.7996447,-0.8039023,-0.8062303,-0.8054645,-0.8023708,-0.80080867,-0.7996447,-0.79694915,-0.7926609,-0.7884032,-0.7868717,-0.7864735,-0.7857077,-0.7833798,-0.7794897,-0.77755994,-0.7767942,-0.775232,-0.7717401,-0.7678807,-0.7659203,-0.7643888,-0.7632248,-0.76089686,-0.7578032,-0.7566392,-0.755077,-0.7535455,-0.7508193,-0.7484914,-0.7492572,-0.7508193,-0.75121754,-0.74965537,-0.7465617,-0.74539775,-0.74539775,-0.7465617,-0.7469599,-0.7469599,-0.74732745,-0.7469599,-0.7461635,-0.744632,-0.74306977,-0.74346805,-0.74306977,-0.742304,-0.74074185,-0.73881215,-0.73917973,-0.7395779,-0.73725,-0.7337581,-0.7295004,-0.72757065,-0.72833645,-0.72913283,-0.7287346,-0.7264067,-0.72524273,-0.72447693,-0.7248446,-0.7248446,-0.72447693,-0.7248446,-0.7240788,-0.72251666,-0.7202193,-0.71789134,-0.71789134,-0.7174932,-0.7136031,-0.7101418,-0.7066499,-0.70781386,-0.71207154,-0.7163292,-0.7167274,-0.71516526,-0.7140013,-0.71246976,-0.7116734,-0.7097436,-0.7070175,-0.7066499,-0.7066499,-0.7074157,-0.7070175,-0.704322,-0.703158,-0.7023922,-0.7023922,-0.70122826,-0.69966614,-0.6985022,-0.6973382,-0.6958066,-0.6934787,-0.6926823,-0.69501024,-0.6977364,-0.6985022,-0.69501024,-0.6899868,-0.6880264,-0.6872607,-0.68842465,-0.68882287,-0.6880264,-0.6872607,-0.6868931,-0.68572915,-0.6845652,-0.6837688,-0.6860967,-0.6872607,-0.6868931,-0.6837688,-0.6806751,-0.67990935,-0.6802769,-0.6802769,-0.6779796,-0.6744877,-0.6717616,-0.66866785,-0.6659417,-0.6613165,-0.6566607,-0.6547003,-0.65549666,-0.6570282,-0.6547003,-0.6442552,-0.62526417,-0.6043434,-0.5888443,-0.5845866,-0.593102,-0.6086011,-0.6213741,-0.62682635,-0.6241002,-0.6198425,-0.6217723,-0.6345759,-0.65586424,-0.6787454,-0.69540846,-0.703158,-0.7023922,-0.69693995,-0.6919166,-0.6895886,-0.6907526,-0.69308054,-0.69501024,-0.6961742,-0.6973382,-0.7000643,-0.7035562,-0.70625174,-0.7093454,-0.71439946,-0.70625174,-0.6500751,-0.51560634,-0.29276806,-0.014518976,0.25518417,0.46172702,0.5597758,0.5493001,0.45125127,0.28425276,0.069960475,-0.17922008,-0.43887645,-0.6671057,-0.82329154,-0.8783043,-0.8492358,-0.78221583,-0.7264067,-0.70548594,-0.71246976,-0.7298986,-0.74114007,-0.74306977,-0.7399761,-0.73455447,-0.7279689,-0.72098505,-0.7140013,-0.7093454,-0.70625174,-0.7008301,-0.69308054,-0.684167,-0.6779796,-0.67485523,-0.6736913,-0.67099583,-0.66633993,-0.6613165,-0.6539345,-0.6454192,-0.63534164,-0.6264281,-0.62024075,-0.6155849,-0.6101633,-0.60124975,-0.5896101,-0.5799308,-0.5713848,-0.56403345,-0.5562839,-0.5458082,-0.53576136,-0.5237235,-0.5093883,-0.49272525,-0.47489816,-0.45863324,-0.44389987,-0.43033051,-0.41599536,-0.40049618,-0.38616103,-0.37142766,-0.35672492,-0.3423592,-0.33114833,-0.3249303,-0.32183665,-0.3222348,-0.3245628,-0.33191413,-0.34701502,-0.3698961,-0.40049618,-0.43575215,-0.47569454,-0.51909816,-0.5624713,-0.60394526,-0.6407633,-0.6736913,-0.7039238,-0.7298986,-0.7515851,-0.7667167,-0.7771617,-0.7868717,-0.7949888,-0.8012068,-0.80430055,-0.8054645,-0.8054645,-0.8039023,-0.8012068,-0.796551,-0.7918951,-0.7895672,-0.78803563,-0.78607523,-0.7825834,-0.77872396,-0.7771617,-0.77599776,-0.7744663,-0.77137256,-0.76708424,-0.763623,-0.7620608,-0.76089686,-0.7593347,-0.7574049,-0.75624096,-0.7554752,-0.75431126,-0.75238156,-0.75042117,-0.74965537,-0.7500536,-0.75042117,-0.74965537,-0.7484914,-0.74809325,-0.74772567,-0.7469599,-0.74579597,-0.7449995,-0.7469599,-0.7488896,-0.7500536,-0.7488896,-0.7469599,-0.74579597,-0.74579597,-0.74539775,-0.74346805,-0.742304,-0.74346805,-0.7461635,-0.7484914,-0.7488896,-0.74809325,-0.7484914,-0.7484914,-0.74732745,-0.74383557,-0.7403437,-0.73881215,-0.73917973,-0.7403437,-0.73881215,-0.7353202,-0.7337581,-0.7329923,-0.7333905,-0.73415625,-0.7337581,-0.73455447,-0.73415625,-0.7333905,-0.7314302,-0.7302662,-0.73222655,-0.73455447,-0.7357184,-0.7337581,-0.73106253,-0.7295004,-0.72913283,-0.7287346,-0.7264067,-0.7229148,-0.72098505,-0.7202193,-0.7198211,-0.71865714,-0.71789134,-0.71905535,-0.7202193,-0.7205869,-0.7198211,-0.71865714,-0.71789134,-0.7167274,-0.7155634,-0.71283734,-0.7113058,-0.7116734,-0.71283734,-0.7140013,-0.71283734,-0.7113058,-0.7113058,-0.7113058,-0.7109076,-0.70857966,-0.7050878,-0.704322,-0.704322,-0.7047202,-0.7039238,-0.70199406,-0.70159584,-0.70159584,-0.7027598,-0.7027598,-0.7023922,-0.7027598,-0.704322,-0.70548594,-0.7047202,-0.703158,-0.70159584,-0.7008301,-0.7000643,-0.69810396,-0.6961742,-0.6958066,-0.6965724,-0.6965724,-0.69464266,-0.6926823,-0.6911508,-0.6911508,-0.69151837,-0.69035435,-0.68882287,-0.68882287,-0.6895886,-0.69035435,-0.6899868,-0.6891904,-0.6899868,-0.6907526,-0.6907526,-0.6880264,-0.6837688,-0.67990935,-0.6764174,-0.67332375,-0.6694336,-0.66633993,-0.665176,-0.665176,-0.664012,-0.6566607,-0.6415291,-0.6198425,-0.5977578,-0.5845866,-0.58418846,-0.5957974,-0.61325693,-0.62602997,-0.62992007,-0.6264281,-0.6221705,-0.6256624,-0.63999754,-0.6624805,-0.68572915,-0.7027598,-0.7113058,-0.7116734,-0.7074157,-0.70199406,-0.69890034,-0.69890034,-0.7000643,-0.70159584,-0.7008301,-0.7004319,-0.70122826,-0.703158,-0.7058535,-0.7109076,-0.715931,-0.6965724,-0.6151867,-0.44157195,-0.17689222,0.13155878,0.41562772,0.6198425,0.7023922,0.6709957,0.541183,0.33384383,0.07654619,-0.21294457,-0.49388915,-0.7236806,-0.8624376,-0.8938034,-0.8488682,-0.7810519,-0.7353202,-0.7264067,-0.7419058,-0.76049864,-0.76904464,-0.76748246,-0.7620608,-0.7554752,-0.7488896,-0.7419058,-0.73492205,-0.7287346,-0.723313,-0.7174932,-0.7101418,-0.7027598,-0.6977364,-0.69308054,-0.6876589,-0.67990935,-0.67136335,-0.66441023,-0.6585904,-0.6527705,-0.64502096,-0.6357399,-0.6271939,-0.6198425,-0.6128588,-0.604711,-0.59659386,-0.58844614,-0.57953256,-0.5690875,-0.5558857,-0.5415505,-0.5276136,-0.5132784,-0.49894327,-0.48148376,-0.46328908,-0.4450639,-0.42683858,-0.40787822,-0.38772327,-0.36793578,-0.35090518,-0.3350078,-0.32143837,-0.30826718,-0.29742402,-0.29044014,-0.28734642,-0.28811216,-0.29123652,-0.29975182,-0.31601673,-0.3412258,-0.3741538,-0.41250348,-0.4559071,-0.50163877,-0.5477686,-0.5923362,-0.63341194,-0.67136335,-0.7066499,-0.73725,-0.7620608,-0.7802861,-0.7946212,-0.80662847,-0.8163078,-0.8225258,-0.8244555,-0.82405734,-0.8244555,-0.8244555,-0.8236592,-0.8201979,-0.81590956,-0.8120501,-0.8097222,-0.80816,-0.8050663,-0.8012068,-0.7992465,-0.79808253,-0.796551,-0.79382485,-0.790333,-0.78723925,-0.78454375,-0.78221583,-0.7791221,-0.776396,-0.77563024,-0.77563024,-0.775232,-0.7725059,-0.76941216,-0.7682482,-0.76748246,-0.76748246,-0.76555276,-0.763623,-0.763623,-0.7647563,-0.7659203,-0.7651545,-0.763623,-0.7632248,-0.7632248,-0.763623,-0.76282656,-0.7620608,-0.76282656,-0.7639905,-0.7647563,-0.7639905,-0.7616626,-0.7601311,-0.75896716,-0.7581707,-0.7566392,-0.7558428,-0.7566392,-0.75700676,-0.75624096,-0.7535455,-0.75121754,-0.75121754,-0.7515851,-0.7515851,-0.7492572,-0.7469599,-0.7465617,-0.7469599,-0.7465617,-0.7449995,-0.7426716,-0.7426716,-0.74346805,-0.7442338,-0.742304,-0.73917973,-0.7376481,-0.73881215,-0.7403437,-0.7395779,-0.73841393,-0.73648417,-0.73492205,-0.73415625,-0.7329923,-0.73222655,-0.73259413,-0.7337581,-0.73455447,-0.7333905,-0.73259413,-0.73259413,-0.7337581,-0.73455447,-0.7333905,-0.7314302,-0.7298986,-0.72913283,-0.7287346,-0.72757065,-0.72564095,-0.7248446,-0.72447693,-0.723313,-0.7205869,-0.718259,-0.7174932,-0.71709496,-0.7174932,-0.715931,-0.7136031,-0.7132355,-0.7136031,-0.7140013,-0.7132355,-0.7116734,-0.71050936,-0.7089778,-0.7074157,-0.7035562,-0.70122826,-0.69966614,-0.6992679,-0.7000643,-0.6992679,-0.6985022,-0.69890034,-0.69966614,-0.6992679,-0.6977364,-0.6965724,-0.6973382,-0.6992679,-0.7004319,-0.69890034,-0.6965724,-0.6958066,-0.6958066,-0.6958066,-0.6942445,-0.69231474,-0.6911508,-0.69035435,-0.68842465,-0.6837688,-0.6768156,-0.67099583,-0.66633993,-0.6632463,-0.65975434,-0.65819216,-0.6574264,-0.65549666,-0.6458174,-0.62526417,-0.59928936,-0.57953256,-0.5733452,-0.58186054,-0.59696144,-0.6101633,-0.61674887,-0.61635065,-0.61325693,-0.61325693,-0.62370205,-0.6473489,-0.6768156,-0.70159584,-0.71283734,-0.71207154,-0.70625174,-0.70122826,-0.69966614,-0.69966614,-0.70122826,-0.7039238,-0.7070175,-0.70857966,-0.70781386,-0.7066499,-0.70781386,-0.71246976,-0.72175086,-0.7202193,-0.6744877,-0.54697216,-0.31757897,-0.004472077,0.33344555,0.62566245,0.8120501,0.8604772,0.7857077,0.6062732,0.34897542,0.038564086,-0.29469782,-0.5961957,-0.8128159,-0.9085368,-0.89652956,-0.828315,-0.7632248,-0.7314302,-0.73415625,-0.7531473,-0.7705761,-0.7771617,-0.7729041,-0.7647563,-0.75700676,-0.75121754,-0.74579597,-0.73841393,-0.7306644,-0.7236806,-0.7167274,-0.71050936,-0.7027598,-0.6958066,-0.6907526,-0.68649495,-0.68223727,-0.67525345,-0.6671057,-0.6593561,-0.65123904,-0.6434895,-0.6337795,-0.6241002,-0.61635065,-0.6089993,-0.60008574,-0.5892118,-0.57720464,-0.5651974,-0.55355775,-0.5407848,-0.5252856,-0.5090207,-0.49352163,-0.47799182,-0.46096116,-0.4408062,-0.42025304,-0.39973044,-0.38034123,-0.36135018,-0.3400619,-0.31874287,-0.29975182,-0.2830888,-0.2695194,-0.2575122,-0.24936444,-0.24587256,-0.24820048,-0.2563482,-0.2695194,-0.29044014,-0.32107085,-0.36018628,-0.40631604,-0.45514137,-0.5055288,-0.55704963,-0.6062732,-0.65123904,-0.6895886,-0.722149,-0.7508193,-0.77563024,-0.795387,-0.80932397,-0.81940144,-0.8267835,-0.8322051,-0.8352988,-0.8349006,-0.8325727,-0.83064294,-0.8287132,-0.8267835,-0.8228934,-0.8182375,-0.8147456,-0.8120501,-0.8097222,-0.8062303,-0.80273837,-0.80004287,-0.79771495,-0.795387,-0.79073113,-0.7857077,-0.78221583,-0.7810519,-0.7794897,-0.776396,-0.7729041,-0.7705761,-0.7702086,-0.77137256,-0.77137256,-0.7686464,-0.7659203,-0.76282656,-0.7601311,-0.7574049,-0.7558428,-0.7558428,-0.7574049,-0.7593347,-0.7593347,-0.75856894,-0.75856894,-0.7601311,-0.7612951,-0.7616626,-0.7616626,-0.7620608,-0.763623,-0.7647563,-0.7643888,-0.7639905,-0.7639905,-0.7643888,-0.7639905,-0.7616626,-0.7593347,-0.75856894,-0.7593347,-0.76049864,-0.7593347,-0.7574049,-0.7554752,-0.75431126,-0.7531473,-0.7508193,-0.7488896,-0.7484914,-0.7488896,-0.7488896,-0.7469599,-0.744632,-0.74383557,-0.744632,-0.74579597,-0.744632,-0.7419058,-0.7395779,-0.73841393,-0.7376481,-0.73648417,-0.7353202,-0.7357184,-0.73725,-0.73841393,-0.73688245,-0.73492205,-0.7337581,-0.7333905,-0.7329923,-0.73106253,-0.7287346,-0.72757065,-0.72833645,-0.7295004,-0.72757065,-0.7248446,-0.72251666,-0.72251666,-0.7236806,-0.7236806,-0.72251666,-0.72098505,-0.7202193,-0.7202193,-0.71905535,-0.71789134,-0.71709496,-0.71709496,-0.71709496,-0.71516526,-0.71283734,-0.7113058,-0.71050936,-0.7101418,-0.70857966,-0.7074157,-0.7070175,-0.7070175,-0.7074157,-0.7058535,-0.7039238,-0.7027598,-0.7027598,-0.7035562,-0.703158,-0.70199406,-0.7004319,-0.7000643,-0.69890034,-0.6961742,-0.6942445,-0.6938463,-0.69501024,-0.6961742,-0.69464266,-0.69151837,-0.6868931,-0.68223727,-0.6775814,-0.67136335,-0.6655742,-0.66208225,-0.66168404,-0.66168404,-0.6574264,-0.643857,-0.6213741,-0.59659386,-0.578001,-0.57254875,-0.5822587,-0.5981254,-0.612093,-0.61635065,-0.6116948,-0.60667133,-0.610929,-0.62952185,-0.65819216,-0.68649495,-0.7050878,-0.71246976,-0.7113058,-0.7074157,-0.703158,-0.70159584,-0.7023922,-0.7047202,-0.7070175,-0.7074157,-0.7070175,-0.7074157,-0.7093454,-0.7116734,-0.7174932,-0.72564095,-0.7147671,-0.64465344,-0.4776243,-0.20210129,0.14396429,0.48690534,0.7558428,0.8934357,0.8926394,0.7725059,0.55319023,0.2613716,-0.079241574,-0.42258096,-0.70857966,-0.8841241,-0.92869174,-0.8783043,-0.79731673,-0.73917973,-0.7229148,-0.73688245,-0.75856894,-0.7705761,-0.7717401,-0.7663185,-0.7601311,-0.7535455,-0.74539775,-0.7376481,-0.7306644,-0.7248446,-0.7198211,-0.71246976,-0.704322,-0.69693995,-0.69035435,-0.684167,-0.67718315,-0.67136335,-0.6671057,-0.662848,-0.65782464,-0.64851284,-0.6380372,-0.6283579,-0.6190768,-0.6093669,-0.5977578,-0.5868839,-0.57720464,-0.56868935,-0.5597758,-0.54620636,-0.5299415,-0.51171625,-0.49428737,-0.4776243,-0.460563,-0.44313413,-0.42530704,-0.40631604,-0.38459885,-0.36058438,-0.33693755,-0.31601673,-0.29858792,-0.28269058,-0.2667933,-0.2528563,-0.2439428,-0.2420131,-0.24354452,-0.24666893,-0.253622,-0.26912123,-0.29586178,-0.33460963,-0.37997365,-0.42916656,-0.47995222,-0.5318712,-0.5830245,-0.6302876,-0.6736913,-0.71246976,-0.7461635,-0.7744663,-0.7961528,-0.8128159,-0.82638526,