-0.3260597,-0.31516463,-0.30545974,-0.2945341,-0.28000736,-0.2666707,-0.25092316,-0.23029268,-0.21091342,-0.19394505,-0.18060857,-0.16605121,-0.14667195,-0.123630464,-0.10180974,-0.08484143,-0.063020706,-0.036378086,-0.004852414,0.023041487,0.04120004,0.055757284,0.070314646,0.08606231,0.10544157,0.1163671,0.12240982,0.12240982,0.1163671,0.106662154,0.0884732,0.06787312,0.053346395,0.040009856,0.023041487,-0.0036316514,-0.03756827,-0.07757801,-0.117587805,-0.15515614,-0.20120853,-0.24848169,-0.2969756,-0.3491012,-0.40485853,-0.4593951,-0.51152074,-0.5563524,-0.5951414,-0.63393044,-0.675161,-0.7151402,-0.74544513,-0.7708975,-0.7878658,-0.8048341,-0.8193915,-0.8290963,-0.832728,-0.8303171,-0.8303171,-0.8254646,-0.814539,-0.8012024,-0.7890866,-0.78060246,-0.77575,-0.76848656,-0.7563707,-0.74544513,-0.7357707,-0.7296976,-0.7212134,-0.7127292,-0.7030244,-0.698172,-0.69212925,-0.68242437,-0.6739402,-0.6666769,-0.66786706,-0.6715293,-0.6739402,-0.66786706,-0.65938294,-0.65453047,-0.65453047,-0.6557512,-0.6618244,-0.66545606,-0.67030853,-0.67030853,-0.6715293,-0.66908777,-0.66908777,-0.675161,-0.6787927,-0.6787927,-0.675161,-0.67030853,-0.66786706,-0.67030853,-0.6763512,-0.68120366,-0.6860561,-0.69090855,-0.68849754,-0.6800134,-0.67030853,-0.66423535,-0.6666769,-0.6715293,-0.6727195,-0.66545606,-0.6557512,-0.6508987,-0.6484878,-0.64726704,-0.6460463,-0.6448561,-0.6484878,-0.6497085,-0.6460463,-0.6351512,-0.6266671,-0.6278878,-0.63393044,-0.6387829,-0.63274026,-0.6205939,-0.6145512,-0.6121097,-0.6133305,-0.61577195,-0.6169622,-0.6205939,-0.6230354,-0.61940366,-0.6121097,-0.6072878,-0.6096988,-0.6109195,-0.6072878,-0.5987731,-0.5939512,-0.5951414,-0.59273046,-0.57817316,-0.55757314,-0.5357524,-0.5272683,-0.5272683,-0.5272683,-0.5248573,-0.5212256,-0.5175634,-0.5103,-0.49333167,-0.46787924,-0.43998533,-0.41819513,-0.39756465,-0.3794061,-0.36848044,-0.37696463,-0.40849024,-0.45698416,-0.5090792,-0.5503098,-0.5733207,-0.587878,-0.590289,-0.5866573,-0.5830256,-0.58424634,-0.590289,-0.5963622,-0.60121465,-0.60484636,-0.6133305,-0.62907803,-0.6387829,-0.6387829,-0.6205939,-0.55757314,-0.4315012,-0.2218085,0.052125692,0.33817565,0.5854671,0.74303424,0.824244,0.8691062,0.8581805,0.74666584,0.48121595,0.08243048,-0.35758537,-0.7127292,-0.89819026,-0.9321268,-0.8860744,-0.8072756,-0.72362435,-0.6484878,-0.5890988,-0.55149996,-0.5381939,-0.5381939,-0.5393841,-0.5369731,-0.52970976,-0.51637316,-0.4994049,-0.48362678,-0.4727317,-0.46302682,-0.450911,-0.4375744,-0.42182684,-0.41212195,-0.40363777,-0.39271218,-0.37696463,-0.35758537,-0.34302807,-0.32728046,-0.30787075,-0.2897122,-0.2751549,-0.263039,-0.2521134,-0.23758662,-0.21091342,-0.18301946,-0.1624195,-0.14423048,-0.12485123,-0.09939879,-0.070314646,-0.041199923,-0.013336599,0.0133366585,0.038789034,0.060609818,0.08120978,0.09576702,0.10788298,0.1163671,0.117587805,0.106662154,0.09576702,0.08484137,0.07394636,0.063020706,0.042420745,0.01696825,-0.008484125,-0.03393656,-0.06546217,-0.106662154,-0.15393537,-0.2024293,-0.25092316,-0.29819638,-0.35029143,-0.40604877,-0.45698416,-0.50788903,-0.55757314,-0.6072878,-0.6508987,-0.68727684,-0.7151402,-0.7394024,-0.7672658,-0.79515976,-0.814539,-0.8242439,-0.82665485,-0.8278756,-0.8315073,-0.8315073,-0.8254646,-0.8157597,-0.80849636,-0.8048341,-0.8000122,-0.79515976,-0.7890866,-0.7830439,-0.7697073,-0.75514996,-0.7381817,-0.7260659,-0.72362435,-0.72243416,-0.716361,-0.7006134,-0.68727684,-0.68120366,-0.6787927,-0.6800134,-0.67757195,-0.6739402,-0.6727195,-0.6715293,-0.6727195,-0.6763512,-0.68120366,-0.68727684,-0.68849754,-0.68242437,-0.6739402,-0.66908777,-0.6739402,-0.6800134,-0.6787927,-0.6739402,-0.66423535,-0.65938294,-0.66545606,-0.6715293,-0.67757195,-0.68120366,-0.68242437,-0.6787927,-0.6727195,-0.66545606,-0.6618244,-0.66545606,-0.67030853,-0.6715293,-0.66545606,-0.65938294,-0.65819263,-0.65697193,-0.6557512,-0.6484878,-0.6412244,-0.6400037,-0.6448561,-0.6484878,-0.6484878,-0.6460463,-0.6436354,-0.6412244,-0.6387829,-0.6351512,-0.6315195,-0.63029873,-0.6278878,-0.6205939,-0.6121097,-0.60606706,-0.6109195,-0.6218146,-0.6266671,-0.6254463,-0.6169622,-0.6121097,-0.6096988,-0.60847807,-0.60243535,-0.59758294,-0.5963622,-0.60121465,-0.59999394,-0.5963622,-0.590289,-0.590289,-0.59273046,-0.5963622,-0.5951414,-0.590289,-0.5890988,-0.5915097,-0.59273046,-0.5866573,-0.5733207,-0.5600146,-0.54667807,-0.5321207,-0.5212256,-0.5139317,-0.51152074,-0.51152074,-0.50666827,-0.49696344,-0.48362678,-0.46787924,-0.450911,-0.43031096,-0.40485853,-0.38059628,-0.36362803,-0.35999632,-0.37211215,-0.39515364,-0.43516344,-0.48362678,-0.5260475,-0.5551622,-0.57213044,-0.57576215,-0.57939386,-0.5830256,-0.5854671,-0.5866573,-0.590289,-0.5963622,-0.60243535,-0.60484636,-0.6036256,-0.60484636,-0.6133305,-0.6072878,-0.549089,-0.409711,-0.17816705,0.11151469,0.4048586,0.6497086,0.80968654,0.88970613,0.9187902,0.8824122,0.7394024,0.45091093,0.03756833,-0.40485853,-0.74544513,-0.9103061,-0.9212012,-0.8618122,-0.7878658,-0.71999264,-0.6521195,-0.5854671,-0.5369731,-0.51515245,-0.51515245,-0.5212256,-0.52000487,-0.5103,-0.4994049,-0.4872585,-0.4739524,-0.4606158,-0.44483775,-0.43516344,-0.4290902,-0.41938537,-0.402417,-0.38666952,-0.37455362,-0.36362803,-0.3515122,-0.33454394,-0.31516463,-0.29938656,-0.28727072,-0.27152318,-0.25333416,-0.23273414,-0.21695608,-0.19998783,-0.17453533,-0.15152436,-0.12607199,-0.10910368,-0.09454632,-0.072725594,-0.04486221,-0.012115836,0.015747666,0.040009856,0.063020706,0.083651304,0.09939885,0.10910368,0.11514628,0.11999881,0.12240982,0.121219516,0.10303056,0.079989076,0.055757284,0.035157323,0.015747666,-0.009704888,-0.038788974,-0.07150483,-0.1030305,-0.13940853,-0.18424022,-0.23273414,-0.28241825,-0.33332318,-0.38422805,-0.43998533,-0.49455243,-0.54182565,-0.5818049,-0.6169622,-0.65697193,-0.69698167,-0.7272866,-0.7515183,-0.76848656,-0.7830439,-0.793939,-0.8012024,-0.8072756,-0.8109073,-0.814539,-0.8157597,-0.80849636,-0.793939,-0.78060246,-0.77333903,-0.76848656,-0.76122314,-0.7490768,-0.7381817,-0.7296976,-0.7212134,-0.71028775,-0.7006134,-0.69212925,-0.6896878,-0.6896878,-0.6848353,-0.675161,-0.6666769,-0.6666769,-0.67030853,-0.6739402,-0.6727195,-0.66908777,-0.66908777,-0.6715293,-0.6727195,-0.67030853,-0.66545606,-0.66304517,-0.6618244,-0.66304517,-0.66423535,-0.66304517,-0.66304517,-0.6666769,-0.6666769,-0.6666769,-0.6666769,-0.66908777,-0.6727195,-0.675161,-0.6715293,-0.66423535,-0.66060364,-0.65819263,-0.65938294,-0.65938294,-0.65938294,-0.6618244,-0.66423535,-0.66060364,-0.65453047,-0.6497085,-0.6497085,-0.6521195,-0.6497085,-0.6412244,-0.6351512,-0.6351512,-0.6387829,-0.6400037,-0.6351512,-0.6266671,-0.6254463,-0.62907803,-0.6315195,-0.6278878,-0.6205939,-0.6181829,-0.6181829,-0.6181829,-0.6145512,-0.60847807,-0.60484636,-0.6036256,-0.6036256,-0.60243535,-0.60484636,-0.60606706,-0.60606706,-0.5987731,-0.587878,-0.5806147,-0.5818049,-0.5854671,-0.587878,-0.5854671,-0.5806147,-0.5818049,-0.5854671,-0.5866573,-0.58424634,-0.57454145,-0.5684988,-0.56968904,-0.56968904,-0.57454145,-0.57576215,-0.57213044,-0.567278,-0.55757314,-0.5539415,-0.55272067,-0.5539415,-0.55757314,-0.5551622,-0.5551622,-0.5587939,-0.56483656,-0.56968904,-0.5636463,-0.55149996,-0.5321207,-0.51637316,-0.5030366,-0.49333167,-0.4860683,-0.47999507,-0.47999507,-0.48121583,-0.47636342,-0.46665847,-0.450911,-0.4315012,-0.40726948,-0.3781854,-0.34788042,-0.3260597,-0.324839,-0.3393963,-0.36848044,-0.40604877,-0.450911,-0.49455243,-0.5260475,-0.54182565,-0.5393841,-0.5321207,-0.5272683,-0.5272683,-0.5309,-0.5393841,-0.549089,-0.5636463,-0.5733207,-0.57817316,-0.57454145,-0.57090974,-0.56483656,-0.5236366,-0.41819513,-0.23392439,0.014557242,0.28119755,0.4994048,0.6460463,0.7260659,0.78060246,0.8157598,0.76970744,0.57576215,0.21576583,-0.23758662,-0.6315195,-0.8569597,-0.9066744,-0.8509171,-0.7708975,-0.7006134,-0.63393044,-0.5660573,-0.5090792,-0.47636342,-0.47151095,-0.47636342,-0.47636342,-0.4691,-0.45698416,-0.44483775,-0.43031096,-0.41697437,-0.40485853,-0.39756465,-0.39515364,-0.39271218,-0.3794061,-0.35999632,-0.34061706,-0.3236488,-0.31516463,-0.3030182,-0.2884915,-0.27152318,-0.25696588,-0.24243903,-0.22666097,-0.21213412,-0.19272435,-0.17453533,-0.15637684,-0.13211459,-0.11392552,-0.09817803,-0.087282896,-0.07150483,-0.046052456,-0.015747488,0.010895133,0.032715917,0.046052456,0.06183052,0.079989076,0.09213543,0.09576702,0.09454644,0.09213543,0.0884732,0.079989076,0.063020706,0.04120004,0.021820784,0.0,-0.019379258,-0.04486221,-0.072725594,-0.09695727,-0.12726218,-0.1624195,-0.20969266,-0.25818658,-0.3030182,-0.34424877,-0.38544875,-0.4315012,-0.47999507,-0.5248573,-0.5624256,-0.59999394,-0.63756216,-0.6727195,-0.6993927,-0.7151402,-0.7260659,-0.7394024,-0.75514996,-0.7672658,-0.7708975,-0.7721183,-0.77333903,-0.7697073,-0.76000243,-0.74666584,-0.73455,-0.7309183,-0.72847676,-0.7212134,-0.70546585,-0.68727684,-0.675161,-0.67030853,-0.66908777,-0.66545606,-0.65938294,-0.65697193,-0.65453047,-0.6497085,-0.6436354,-0.63393044,-0.6230354,-0.61577195,-0.6121097,-0.61577195,-0.6254463,-0.63756216,-0.6387829,-0.63274026,-0.6254463,-0.6205939,-0.6266671,-0.63274026,-0.63756216,-0.6387829,-0.6387829,-0.6412244,-0.6412244,-0.63637197,-0.63274026,-0.6278878,-0.63029873,-0.63637197,-0.6400037,-0.6412244,-0.6412244,-0.6448561,-0.6484878,-0.6497085,-0.6484878,-0.6448561,-0.6448561,-0.6448561,-0.6412244,-0.6351512,-0.6278878,-0.6278878,-0.62907803,-0.63029873,-0.62907803,-0.6266671,-0.6278878,-0.63029873,-0.6266671,-0.6205939,-0.6133305,-0.6145512,-0.6169622,-0.61577195,-0.6096988,-0.60243535,-0.59999394,-0.6036256,-0.60847807,-0.6096988,-0.60484636,-0.5987731,-0.59273046,-0.587878,-0.5854671,-0.5866573,-0.5963622,-0.60121465,-0.5987731,-0.5915097,-0.5830256,-0.57939386,-0.5806147,-0.57939386,-0.5733207,-0.567278,-0.5660573,-0.56968904,-0.5733207,-0.57090974,-0.56968904,-0.5733207,-0.5769829,-0.57576215,-0.5624256,-0.54301584,-0.52970976,-0.5224159,-0.52000487,-0.51152074,-0.5018158,-0.49696344,-0.49211097,-0.4872585,-0.47636342,-0.4521317,-0.4254585,-0.39878535,-0.37455362,-0.35877556,-0.35758537,-0.37455362,-0.40363777,-0.43998533,-0.47758418,-0.51152074,-0.5381939,-0.5563524,-0.5636463,-0.56483656,-0.5660573,-0.57090974,-0.57213044,-0.57090974,-0.567278,-0.567278,-0.5769829,-0.5890988,-0.5939512,-0.5915097,-0.5830256,-0.5587939,-0.48484755,-0.34665972,-0.14181948,0.10544157,0.33332312,0.49696338,0.60121465,0.6666769,0.7272866,0.7418134,0.63637197,0.36243784,-0.049684107,-0.47636342,-0.78182316,-0.90786463,-0.8884854,-0.80968654,-0.72847676,-0.6618244,-0.60484636,-0.54667807,-0.5030366,-0.47636342,-0.4739524,-0.48121583,-0.48243654,-0.47029024,-0.45332193,-0.4387951,-0.42667925,-0.4145329,-0.39878535,-0.38422805,-0.37574387,-0.3660695,-0.35636467,-0.34424877,-0.33213294,-0.3260597,-0.31635487,-0.29819638,-0.2763756,-0.2557451,-0.24485004,-0.23758662,-0.22425002,-0.20120853,-0.17453533,-0.15271461,-0.13574636,-0.11877805,-0.09939879,-0.076357305,-0.053346336,-0.029084146,-0.0036316514,0.021820784,0.04486227,0.063020706,0.07879877,0.09576702,0.11151469,0.121219516,0.12240982,0.121219516,0.117587805,0.110293865,0.09939885,0.07879877,0.056978106,0.035157323,0.01696825,-0.0024110079,-0.031525552,-0.06424147,-0.09939879,-0.13696712,-0.18060857,-0.23514515,-0.29212314,-0.34788042,-0.3963744,-0.4412061,-0.4872585,-0.53453165,-0.57817316,-0.6181829,-0.6557512,-0.69576097,-0.7296976,-0.752739,-0.7697073,-0.77697074,-0.7890866,-0.8000122,-0.80605483,-0.80605483,-0.8048341,-0.8024231,-0.79879147,-0.79152805,-0.78060246,-0.7721183,-0.76848656,-0.7660756,-0.7563707,-0.7430341,-0.7272866,-0.716361,-0.7115085,-0.70546585,-0.7006134,-0.69454026,-0.68849754,-0.6787927,-0.66786706,-0.65697193,-0.65453047,-0.66060364,-0.66786706,-0.6666769,-0.65819263,-0.6484878,-0.6484878,-0.6557512,-0.6618244,-0.66423535,-0.65697193,-0.6521195,-0.6521195,-0.65453047,-0.65819263,-0.66060364,-0.66423535,-0.6666769,-0.66545606,-0.66423535,-0.66304517,-0.6666769,-0.67030853,-0.6715293,-0.6715293,-0.66908777,-0.6715293,-0.66908777,-0.6666769,-0.66304517,-0.65819263,-0.66060364,-0.6618244,-0.65819263,-0.6521195,-0.6484878,-0.6521195,-0.65819263,-0.65938294,-0.65453047,-0.6508987,-0.6484878,-0.6497085,-0.6497085,-0.6436354,-0.63756216,-0.6351512,-0.63393044,-0.63029873,-0.62425613,-0.61940366,-0.6218146,-0.6266671,-0.6278878,-0.6218146,-0.6133305,-0.6072878,-0.6109195,-0.6145512,-0.6145512,-0.6096988,-0.60243535,-0.59758294,-0.5963622,-0.59758294,-0.5987731,-0.60121465,-0.59999394,-0.5951414,-0.5915097,-0.590289,-0.5939512,-0.5963622,-0.5963622,-0.5890988,-0.57939386,-0.57454145,-0.57817316,-0.5854671,-0.5915097,-0.5939512,-0.587878,-0.5733207,-0.5551622,-0.5369731,-0.5260475,-0.5248573,-0.5248573,-0.5212256,-0.51637316,-0.50666827,-0.49818414,-0.48484755,-0.4606158,-0.43031096,-0.402417,-0.3830378,-0.3697012,-0.36725968,-0.37333292,-0.38908046,-0.41938537,-0.4545427,-0.49211097,-0.5236366,-0.549089,-0.56968904,-0.57939386,-0.5818049,-0.5830256,-0.58424634,-0.5890988,-0.59273046,-0.59999394,-0.60484636,-0.6121097,-0.6205939,-0.6230354,-0.61940366,-0.5987731,-0.528489,-0.39271218,-0.17334509,0.10544157,0.38789022,0.62303543,0.76970744,0.8484756,0.892117,0.87392807,0.74303424,0.45332193,0.032715917,-0.40849024,-0.7381817,-0.89574873,-0.90908533,-0.8557695,-0.77819145,-0.7030244,-0.6351512,-0.5806147,-0.5454573,-0.5272683,-0.5236366,-0.5236366,-0.5272683,-0.5224159,-0.5090792,-0.4872585,-0.4654683,-0.4521317,-0.44483775,-0.43516344,-0.42060608,-0.40726948,-0.39756465,-0.39030117,-0.37696463,-0.36121708,-0.34061706,-0.324839,-0.3127231,-0.29938656,-0.283639,-0.26789147,-0.2521134,-0.23758662,-0.21817678,-0.19879758,-0.17938781,-0.1624195,-0.14181948,-0.11999875,-0.089693904,-0.060609758,-0.035157323,-0.014557302,0.007263422,0.030304909,0.052125692,0.06909394,0.08484137,0.096957445,0.106662154,0.110293865,0.10303056,0.089693904,0.076357245,0.06546223,0.053346395,0.032715917,0.0048525333,-0.026673198,-0.056978047,-0.087282896,-0.1224097,-0.16000855,-0.19998783,-0.24243903,-0.29090238,-0.34665972,-0.402417,-0.45332193,-0.49818414,-0.5381939,-0.5806147,-0.6254463,-0.66786706,-0.70546585,-0.7357707,-0.76122314,-0.78545487,-0.80364394,-0.8157597,-0.8242439,-0.8315073,-0.83635974,-0.8375805,-0.8315073,-0.8218329,-0.81331825,-0.8048341,-0.7975707,-0.7878658,-0.77455974,-0.7660756,-0.75392926,-0.74544513,-0.736961,-0.72847676,-0.72243416,-0.7151402,-0.7066561,-0.698172,-0.68849754,-0.6836451,-0.6787927,-0.6715293,-0.66545606,-0.66423535,-0.6666769,-0.6715293,-0.67030853,-0.66786706,-0.66786706,-0.67030853,-0.67030853,-0.66908777,-0.6666769,-0.66786706,-0.675161,-0.6836451,-0.6848353,-0.6787927,-0.6715293,-0.6666769,-0.6666769,-0.6666769,-0.6666769,-0.66423535,-0.6666769,-0.66908777,-0.6727195,-0.675161,-0.6715293,-0.66786706,-0.6666769,-0.66304517,-0.65819263,-0.6557512,-0.65697193,-0.66060364,-0.6618244,-0.65938294,-0.6521195,-0.6497085,-0.6484878,-0.6460463,-0.6448561,-0.6436354,-0.6460463,-0.6460463,-0.64241457,-0.6351512,-0.6278878,-0.6278878,-0.62907803,-0.62907803,-0.6278878,-0.6254463,-0.6266671,-0.62425613,-0.6181829,-0.60847807,-0.60484636,-0.6096988,-0.6145512,-0.6181829,-0.6145512,-0.6096988,-0.60847807,-0.6109195,-0.6096988,-0.60484636,-0.6036256,-0.6072878,-0.6072878,-0.59999394,-0.587878,-0.5806147,-0.5830256,-0.590289,-0.5951414,-0.5915097,-0.5854671,-0.5890988,-0.5951414,-0.59999394,-0.5987731,-0.5915097,-0.5866573,-0.5830256,-0.57213044,-0.5539415,-0.5369731,-0.5272683,-0.5236366,-0.5248573,-0.52000487,-0.5103,-0.50666827,-0.5018158,-0.49574268,-0.48484755,-0.4654683,-0.44364756,-0.41575366,-0.38544875,-0.35999632,-0.34665972,-0.35999632,-0.38544875,-0.41819513,-0.45576346,-0.49211097,-0.5272683,-0.5551622,-0.57213044,-0.57576215,-0.5733207,-0.57576215,-0.57939386,-0.5818049,-0.5830256,-0.58424634,-0.59273046,-0.60243535,-0.6072878,-0.60847807,-0.60606706,-0.5866573,-0.5139317,-0.36121708,-0.123630464,0.16968298,0.45454264,0.68001354,0.8193915,0.892117,0.9163487,0.86666465,0.69331944,0.37333286,-0.056978047,-0.4860683,-0.7975707,-0.9321268,-0.93090606,-0.8654439,-0.78060246,-0.698172,-0.62425613,-0.5587939,-0.5212256,-0.51152074,-0.5212256,-0.528489,-0.5248573,-0.50788903,-0.4872585,-0.4727317,-0.46424758,-0.45698416,-0.4460585,-0.43272197,-0.42182684,-0.4133427,-0.40000612,-0.38666952,-0.37455362,-0.3660695,-0.35877556,-0.34424877,-0.31879634,-0.29212314,-0.27393413,-0.26059753,-0.25333416,-0.2387768,-0.21817678,-0.19998783,-0.17816705,-0.15152436,-0.123630464,-0.09454632,-0.072725594,-0.053346336,-0.03393656,-0.008484125,0.02060008,0.043641448,0.063020706,0.07757807,0.0884732,0.096957445,0.10180974,0.10425115,0.10544157,0.10180974,0.093325615,0.07272565,0.048493862,0.026673198,0.007263422,-0.014557302,-0.046052456,-0.08243054,-0.12485123,-0.16486096,-0.20606095,-0.25333416,-0.30060732,-0.3491012,-0.39393288,-0.43998533,-0.48969996,-0.5369731,-0.57939386,-0.6169622,-0.6508987,-0.69331944,-0.7321085,-0.76363415,-0.7866756,-0.8000122,-0.81331825,-0.8218329,-0.82302314,-0.8218329,-0.8206122,-0.82302314,-0.81817067,-0.8072756,-0.78545487,-0.76848656,-0.76363415,-0.76363415,-0.76122314,-0.752739,-0.7381817,-0.7260659,-0.71395,-0.7006134,-0.69212925,-0.6848353,-0.6848353,-0.6860561,-0.6836451,-0.6800134,-0.675161,-0.6715293,-0.67030853,-0.6666769,-0.66304517,-0.66060364,-0.66423535,-0.66786706,-0.6715293,-0.6739402,-0.6763512,-0.6800134,-0.6787927,-0.6727195,-0.66545606,-0.66304517,-0.66908777,-0.6763512,-0.67757195,-0.6727195,-0.6666769,-0.66545606,-0.6666769,-0.66545606,-0.66545606,-0.6666769,-0.6727195,-0.67757195,-0.6763512,-0.66908777,-0.6618244,-0.65819263,-0.65938294,-0.65938294,-0.65697193,-0.65453047,-0.65697193,-0.66060364,-0.65938294,-0.65697193,-0.6497085,-0.64241457,-0.63637197,-0.63029873,-0.6254463,-0.62425613,-0.6266671,-0.6278878,-0.6230354,-0.6145512,-0.6109195,-0.61577195,-0.6254463,-0.62907803,-0.6254463,-0.6205939,-0.6181829,-0.6169622,-0.6145512,-0.60847807,-0.60121465,-0.59999394,-0.59999394,-0.5951414,-0.5890988,-0.5854671,-0.5866573,-0.59273046,-0.5915097,-0.58424634,-0.57817316,-0.57939386,-0.5830256,-0.587878,-0.5854671,-0.5830256,-0.5830256,-0.5830256,-0.58424634,-0.5818049,-0.5769829,-0.57817316,-0.57817316,-0.5733207,-0.5660573,-0.5587939,-0.5600146,-0.5587939,-0.549089,-0.5333414,-0.5139317,-0.5030366,-0.5005951,-0.49696344,-0.49455243,-0.4884792,-0.4872585,-0.48484755,-0.4739524,-0.44849998,-0.41819513,-0.38422805,-0.35395366,-0.3381756,-0.33695483,-0.35636467,-0.39878535,-0.450911,-0.4994049,-0.53453165,-0.5563524,-0.56483656,-0.57090974,-0.56968904,-0.56483656,-0.5624256,-0.56120485,-0.5624256,-0.5684988,-0.57454145,-0.5818049,-0.5854671,-0.58424634,-0.5769829,-0.5503098,-0.4691,-0.3284707,-0.11273533,0.15271461,0.4048586,0.5878781,0.69454026,0.74788666,0.7890867,0.77819157,0.6460463,0.34061718,-0.09817803,-0.5309,-0.8218329,-0.9284951,-0.9054537,-0.8339488,-0.75392926,-0.6800134,-0.6072878,-0.5454573,-0.5042573,-0.4872585,-0.48121583,-0.47877437,-0.47877437,-0.4727317,-0.4593951,-0.43998533,-0.42301702,-0.41697437,-0.41212195,-0.40485853,-0.39030117,-0.37333292,-0.35999632,-0.35029143,-0.34061706,-0.3260597,-0.30545974,-0.29334384,-0.28000736,-0.2666707,-0.2521134,-0.23636585,-0.2218085,-0.20728171,-0.18546093,-0.1624195,-0.13696712,-0.117587805,-0.09939879,-0.07879877,-0.059388995,-0.040009737,-0.021820724,-0.0024110079,0.023041487,0.049684167,0.07150483,0.08243048,0.09091461,0.10425115,0.11514628,0.121219516,0.117587805,0.10544157,0.09091461,0.07757807,0.059388995,0.0278939,-0.0012207627,-0.03393656,-0.060609758,-0.08484143,-0.117587805,-0.15271461,-0.18787193,-0.22788167,-0.27152318,-0.3236488,-0.3781854,-0.4290902,-0.4739524,-0.51637316,-0.5563524,-0.5951414,-0.6315195,-0.66423535,-0.69576097,-0.7248451,-0.7490768,-0.76122314,-0.7672658,-0.77455974,-0.78182316,-0.79030734,-0.79152805,-0.78545487,-0.7793817,-0.77333903,-0.76848656,-0.76122314,-0.75029755,-0.736961,-0.7272866,-0.7151402,-0.7018036,-0.69090855,-0.68242437,-0.68120366,-0.68120366,-0.6739402,-0.66304517,-0.6521195,-0.6484878,-0.6521195,-0.65453047,-0.65453047,-0.6484878,-0.6436354,-0.64241457,-0.6436354,-0.64726704,-0.6484878,-0.6521195,-0.6497085,-0.6412244,-0.6315195,-0.63029873,-0.6351512,-0.6436354,-0.6460463,-0.6448561,-0.6412244,-0.6460463,-0.6484878,-0.6497085,-0.6521195,-0.6521195,-0.65453047,-0.65453047,-0.64726704,-0.63756216,-0.6315195,-0.63274026,-0.63756216,-0.6412244,-0.6412244,-0.6351512,-0.62907803,-0.6266671,-0.6254463,-0.6278878,-0.63274026,-0.63637197,-0.63756216,-0.63393044,-0.62425613,-0.6181829,-0.6181829,-0.6205939,-0.6218146,-0.61577195,-0.60606706,-0.59999394,-0.5987731,-0.5987731,-0.5987731,-0.5987731,-0.59999394,-0.60243535,-0.6036256,-0.59999394,-0.5951414,-0.59273046,-0.59273046,-0.5939512,-0.5915097,-0.587878,-0.5854671,-0.5854671,-0.5854671,-0.5818049,-0.5806147,-0.57939386,-0.57939386,-0.57939386,-0.5769829,-0.5806147,-0.5830256,-0.57939386,-0.56483656,-0.54182565,-0.5236366,-0.51515245,-0.5175634,-0.5187841,-0.51274145,-0.50788903,-0.5042573,-0.49818414,-0.48484755,-0.46302682,-0.4375744,-0.41575366,-0.39152193,-0.3697012,-0.3551439,-0.35999632,-0.38908046,-0.43635362,-0.48243654,-0.51274145,-0.5357524,-0.5539415,-0.567278,-0.5769829,-0.5769829,-0.57090974,-0.5733207,-0.57939386,-0.5854671,-0.587878,-0.5915097,-0.59758294,-0.59758294,-0.5915097,-0.57817316,-0.53453165,-0.44242686,-0.29334384,-0.07879877,0.16605115,0.37574387,0.51515245,0.59636223,0.65334034,0.7090975,0.7066561,0.5563524,0.23392439,-0.20606095,-0.6121097,-0.86303294,-0.9381695,-0.89455855,-0.81331825,-0.7357707,-0.66423535,-0.60243535,-0.54786825,-0.50666827,-0.4860683,-0.48243654,-0.49092072,-0.49818414,-0.49333167,-0.47514266,-0.4521317,-0.43394268,-0.42182684,-0.41575366,-0.40849024,-0.40000612,-0.39030117,-0.37574387,-0.3551439,-0.33695483,-0.3236488,-0.31635487,-0.30909145,-0.29819638,-0.28000736,-0.25818658,-0.23758662,-0.21576583,-0.19394505,-0.17212439,-0.15756708,-0.14789271,-0.13574636,-0.11636704,-0.09213537,-0.063020706,-0.038788974,-0.015747488,0.012115836,0.04486227,0.07150483,0.0884732,0.09576702,0.09817803,0.10425115,0.106662154,0.09939885,0.09091461,0.083651304,0.07879877,0.07272565,0.05453658,0.0278939,-0.0024110079,-0.031525552,-0.060609758,-0.09576702,-0.13333535,-0.17212439,-0.21817678,-0.2703024,-0.33091217,-0.38908046,-0.4387951,-0.47999507,-0.5224159,-0.56968904,-0.6145512,-0.65697193,-0.6896878,-0.71999264,-0.752739,-0.78423417,-0.80605483,-0.81817067,-0.8206122,-0.82302314,-0.82665485,-0.8278756,-0.8278756,-0.8254646,-0.82302314,-0.81331825,-0.7975707,-0.7793817,-0.7660756,-0.76122314,-0.76000243,-0.75392926,-0.7418134,-0.7272866,-0.71758175,-0.70909756,-0.6993927,-0.68849754,-0.6860561,-0.68727684,-0.69090855,-0.6896878,-0.68242437,-0.6739402,-0.6715293,-0.67030853,-0.67030853,-0.6666769,-0.66304517,-0.66545606,-0.66786706,-0.6666769,-0.66060364,-0.65697193,-0.66060364,-0.66786706,-0.6763512,-0.6787927,-0.675161,-0.6715293,-0.6715293,-0.6715293,-0.66908777,-0.6666769,-0.66786706,-0.6666769,-0.66423535,-0.66060364,-0.65938294,-0.66304517,-0.66786706,-0.66423535,-0.6557512,-0.6497085,-0.6521195,-0.65819263,-0.6618244,-0.65819263,-0.64726704,-0.6448561,-0.6448561,-0.6436354,-0.63756216,-0.63029873,-0.6315195,-0.63393044,-0.6351512,-0.63274026,-0.6278878,-0.62425613,-0.6230354,-0.6230354,-0.6205939,-0.6169622,-0.61940366,-0.6205939,-0.6169622,-0.6109195,-0.60606706,-0.60484636,-0.60243535,-0.60121465,-0.59758294,-0.5963622,-0.59758294,-0.5987731,-0.60121465,-0.59758294,-0.5939512,-0.59273046,-0.5890988,-0.5830256,-0.57576215,-0.5733207,-0.57939386,-0.5890988,-0.5939512,-0.5866573,-0.57576215,-0.5636463,-0.549089,-0.5357524,-0.5187841,-0.50788903,-0.5103,-0.51515245,-0.51515245,-0.50666827,-0.49455243,-0.48484755,-0.4727317,-0.4521317,-0.42301702,-0.39271218,-0.3660695,-0.3491012,-0.3418073,-0.3491012,-0.37211215,-0.4133427,-0.4654683,-0.5103,-0.5393841,-0.5587939,-0.56968904,-0.57576215,-0.57817316,-0.57454145,-0.57090974,-0.5733207,-0.5818049,-0.5915097,-0.59999394,-0.60484636,-0.60847807,-0.6121097,-0.60847807,-0.5684988,-0.4593951,-0.26908165,-0.0024110079,0.29212308,0.5575732,0.7381817,0.83272815,0.8824122,0.8872647,0.80727565,0.5842463,0.20728171,-0.24362928,-0.63393044,-0.86425364,-0.9272744,-0.8933378,-0.8157597,-0.7321085,-0.6521195,-0.5830256,-0.5406049,-0.5236366,-0.5236366,-0.5260475,-0.5224159,-0.51637316,-0.50666827,-0.49211097,-0.4739524,-0.45698416,-0.44483775,-0.43516344,-0.42667925,-0.4145329,-0.40122682,-0.39271218,-0.38059628,-0.36243778,-0.34302807,-0.32728046,-0.31757557,-0.3127231,-0.29938656,-0.27756584,-0.25455487,-0.23636585,-0.22425002,-0.20969266,-0.1890927,-0.1624195,-0.13696712,-0.11392552,-0.089693904,-0.063020706,-0.035157323,-0.012115836,0.008484125,0.029084206,0.052125692,0.07513654,0.09454644,0.10788298,0.117587805,0.123630404,0.12240982,0.11273527,0.096957445,0.07879877,0.063020706,0.046052456,0.021820784,-0.0036316514,-0.032715797,-0.063020706,-0.09454632,-0.13574636,-0.18301946,-0.23029268,-0.28000736,-0.32728046,-0.3781854,-0.4315012,-0.48362678,-0.52970976,-0.57213044,-0.6145512,-0.6533402,-0.69212925,-0.7248451,-0.7515183,-0.77455974,-0.79515976,-0.80968654,-0.8193915,-0.82302314,-0.82665485,-0.8254646,-0.8218329,-0.814539,-0.80605483,-0.8012024,-0.79515976,-0.7866756,-0.77575,-0.7624134,-0.7515183,-0.74059266,-0.7260659,-0.7115085,-0.7006134,-0.698172,-0.69454026,-0.69090855,-0.68120366,-0.67030853,-0.66908777,-0.66908777,-0.66908777,-0.6666769,-0.6618244,-0.66423535,-0.66786706,-0.6715293,-0.6727195,-0.6715293,-0.66908777,-0.66545606,-0.66060364,-0.65697193,-0.65938294,-0.66908777,-0.67757195,-0.67757195,-0.6727195,-0.6666769,-0.6666769,-0.66908777,-0.6727195,-0.6727195,-0.67030853,-0.67030853,-0.675161,-0.6800134,-0.68242437,-0.68242437,-0.6800134,-0.675161,-0.6715293,-0.66786706,-0.66304517,-0.66060364,-0.65819263,-0.6521195,-0.6484878,-0.6460463,-0.64726704,-0.64726704,-0.6436354,-0.6387829,-0.63637197,-0.6400037,-0.6460463,-0.6460463,-0.6412244,-0.63393044,-0.63274026,-0.63274026,-0.6315195,-0.6254463,-0.6205939,-0.61940366,-0.6181829,-0.6169622,-0.61577195,-0.6169622,-0.61940366,-0.6205939,-0.6133305,-0.60243535,-0.5915097,-0.5939512,-0.60121465,-0.6096988,-0.6072878,-0.5987731,-0.59273046,-0.590289,-0.590289,-0.5890988,-0.5890988,-0.590289,-0.590289,-0.5890988,-0.5854671,-0.57939386,-0.57939386,-0.5806147,-0.5818049,-0.57939386,-0.57939386,-0.57817316,-0.57090974,-0.5563524,-0.5357524,-0.5187841,-0.5103,-0.50666827,-0.5054475,-0.4994049,-0.49333167,-0.49092072,-0.48243654,-0.46302682,-0.43394268,-0.402417,-0.37574387,-0.3551439,-0.34546953,-0.3491012,-0.36725968,-0.40363777,-0.4521317,-0.49574268,-0.52970976,-0.5551622,-0.57090974,-0.57817316,-0.57576215,-0.5684988,-0.5636463,-0.56968904,-0.5830256,-0.5963622,-0.60243535,-0.60606706,-0.6096988,-0.6133305,-0.6133305,-0.57939386,-0.47999507,-0.3030182,-0.046052456,0.24848175,0.5333415,0.74788666,0.87029636,0.92968535,0.9393903,0.86544394,0.6557512,0.29212308,-0.16486096,-0.5806147,-0.8460646,-0.9333476,-0.9103061,-0.84121215,-0.7587817,-0.6800134,-0.60847807,-0.5563524,-0.5272683,-0.52000487,-0.5212256,-0.52000487,-0.51515245,-0.5030366,-0.48362678,-0.46665847,-0.4521317,-0.44849998,-0.4460585,-0.4375744,-0.42301702,-0.40363777,-0.39030117,-0.3794061,-0.3660695,-0.35029143,-0.33454394,-0.3236488,-0.31394386,-0.30060732,-0.2787866,-0.2557451,-0.2387768,-0.22425002,-0.20847195,-0.18424022,-0.15637684,-0.13333535,-0.11273533,-0.09454632,-0.06909388,-0.041199923,-0.014557302,0.012115836,0.036378026,0.060609818,0.08484137,0.10303056,0.11877811,0.12726223,0.13211453,0.13089395,0.121219516,0.106662154,0.093325615,0.079989076,0.063020706,0.040009856,0.010895133,-0.015747488,-0.043641448,-0.07394636,-0.11151463,-0.15515614,-0.19998783,-0.24848169,-0.29819638,-0.3527329,-0.40726948,-0.45698416,-0.5030366,-0.55149996,-0.6036256,-0.6508987,-0.6860561,-0.71395,-0.7394024,-0.76848656,-0.7975707,-0.8193915,-0.8315073,-0.8375805,-0.84484386,-0.84969634,-0.8472854,-0.8388012,-0.82302314,-0.80849636,-0.7927183,-0.77819145,-0.7672658,-0.76122314,-0.76122314,-0.7587817,-0.74666584,-0.72847676,-0.7127292,-0.7066561,-0.7066561,-0.70546585,-0.7006134,-0.69331944,-0.69090855,-0.68727684,-0.6836451,-0.675161,-0.66908777,-0.67030853,-0.6739402,-0.6787927,-0.6800134,-0.6787927,-0.68242437,-0.6860561,-0.69090855,-0.69090855,-0.69212925,-0.69212925,-0.68727684,-0.6800134,-0.66908777,-0.66423535,-0.67030853,-0.675161,-0.6787927,-0.67757195,-0.6727195,-0.6739402,-0.67757195,-0.6787927,-0.6787927,-0.67757195,-0.6787927,-0.6800134,-0.68242437,-0.6763512,-0.66908777,-0.66423535,-0.65938294,-0.66060364,-0.66304517,-0.6666769,-0.6727195,-0.6727195,-0.6666769,-0.65697193,-0.6484878,-0.64726704,-0.6448561,-0.6436354,-0.6400037,-0.6387829,-0.6436354,-0.6460463,-0.6460463,-0.6400037,-0.6351512,-0.63393044,-0.63637197,-0.63756216,-0.6351512,-0.63274026,-0.63274026,-0.63029873,-0.6254463,-0.6181829,-0.6133305,-0.61577195,-0.61940366,-0.61940366,-0.6181829,-0.6145512,-0.6133305,-0.6145512,-0.6109195,-0.60484636,-0.59758294,-0.5987731,-0.6036256,-0.6072878,-0.60847807,-0.6072878,-0.6072878,-0.60606706,-0.59999394,-0.59273046,-0.5866573,-0.5866573,-0.5890988,-0.587878,-0.5818049,-0.5769829,-0.5769829,-0.5733207,-0.5636463,-0.549089,-0.5333414,-0.5248573,-0.5236366,-0.5212256,-0.51637316,-0.5103,-0.50666827,-0.4994049,-0.48243654,-0.45576346,-0.42667925,-0.3963744,-0.3709219,-0.3527329,-0.34546953,-0.35999632,-0.39515364,-0.4472792,-0.49818414,-0.5369731,-0.5624256,-0.57576215,-0.5806147,-0.57939386,-0.5769829,-0.5769829,-0.5818049,-0.5866573,-0.5890988,-0.590289,-0.5951414,-0.60484636,-0.6133305,-0.6205939,-0.60606706,-0.5357524,-0.39878535,-0.18182933,0.09817803,0.384228,0.618183,0.76970744,0.8484756,0.8908963,0.8763696,0.75151837,0.4654683,0.03756833,-0.42182684,-0.7672658,-0.9333476,-0.94665366,-0.8824122,-0.8012024,-0.7248451,-0.6497085,-0.587878,-0.54182565,-0.51637316,-0.5090792,-0.5103,-0.51152074,-0.50666827,-0.49211097,-0.4727317,-0.45817435,-0.44849998,-0.4387951,-0.4254585,-0.40849024,-0.39515364,-0.38789028,-0.38181704,-0.36848044,-0.3515122,-0.33091217,-0.31635487,-0.3030182,-0.2897122,-0.27393413,-0.25696588,-0.24485004,-0.23151338,-0.21091342,-0.18546093,-0.16000855,-0.14059871,-0.123630464,-0.10544139,-0.079989016,-0.052125573,-0.03030485,-0.0072633624,0.019379258,0.048493862,0.07272565,0.08606231,0.09213543,0.096957445,0.10303056,0.10788298,0.10425115,0.096957445,0.089693904,0.08484137,0.07150483,0.046052456,0.0133366585,-0.018189013,-0.04727322,-0.076357305,-0.11273533,-0.15637684,-0.2024293,-0.24726093,-0.29090238,-0.34061706,-0.39271218,-0.4412061,-0.4884792,-0.53453165,-0.5806147,-0.6218146,-0.6533402,-0.68242437,-0.7115085,-0.7490768,-0.78545487,-0.8109073,-0.8206122,-0.8193915,-0.8206122,-0.82302314,-0.8278756,-0.8303171,-0.8242439,-0.8193915,-0.80849636,-0.793939,-0.7793817,-0.7672658,-0.7624134,-0.75756097,-0.74666584,-0.7296976,-0.7115085,-0.7018036,-0.6993927,-0.69576097,-0.68727684,-0.6800134,-0.6763512,-0.67757195,-0.67757195,-0.6727195,-0.66908777,-0.66908777,-0.6715293,-0.6727195,-0.66786706,-0.6618244,-0.66060364,-0.66304517,-0.66304517,-0.66060364,-0.65819263,-0.66060364,-0.66545606,-0.6666769,-0.66304517,-0.66060364,-0.6618244,-0.6666769,-0.6715293,-0.67030853,-0.6666769,-0.66545606,-0.66423535,-0.66423535,-0.66060364,-0.65697193,-0.6557512,-0.65697193,-0.65697193,-0.6533402,-0.6533402,-0.65697193,-0.66304517,-0.66545606,-0.65938294,-0.6521195,-0.6484878,-0.6460463,-0.6448561,-0.6412244,-0.63637197,-0.63637197,-0.63756216,-0.6351512,-0.63029873,-0.6266671,-0.62425613,-0.6218146,-0.6169622,-0.61577195,-0.6145512,-0.6169622,-0.6205939,-0.6181829,-0.60847807,-0.60484636,-0.6072878,-0.60847807,-0.6072878,-0.59999394,-0.5939512,-0.5915097,-0.5939512,-0.5951414,-0.5963622,-0.5951414,-0.59758294,-0.5963622,-0.5915097,-0.5854671,-0.57817316,-0.57939386,-0.58424634,-0.5854671,-0.5866573,-0.5854671,-0.5866573,-0.5818049,-0.57454145,-0.5624256,-0.5503098,-0.54423654,-0.5381939,-0.5357524,-0.52970976,-0.5212256,-0.5139317,-0.5054475,-0.49696344,-0.4884792,-0.47999507,-0.47029024,-0.450911,-0.4242378,-0.39030117,-0.36243778,-0.3515122,-0.36121708,-0.38181704,-0.409711,-0.44969022,-0.4860683,-0.5212256,-0.54667807,-0.55149996,-0.5503098,-0.5539415,-0.56120485,-0.567278,-0.57454145,-0.5769829,-0.5854671,-0.5915097,-0.5939512,-0.5866573,-0.57939386,-0.5769829,-0.56120485,-0.5005951,-0.37696463,-0.18668169,0.04727316,0.27878654,0.45213175,0.56364644,0.62666714,0.6824243,0.71636105,0.6545305,0.42667925,0.031525612,-0.41575366,-0.7624134,-0.92605364,-0.92242193,-0.84362316,-0.76000243,-0.6860561,-0.6230354,-0.5636463,-0.52000487,-0.4994049,-0.49092072,-0.48484755,-0.47636342,-0.4654683,-0.45698416,-0.44849998,-0.4375744,-0.4242378,-0.40849024,-0.40000612,-0.39152193,-0.38059628,-0.36848044,-0.3551439,-0.34546953,-0.33695483,-0.32120728,-0.29938656,-0.2763756,-0.26059753,-0.24726093,-0.23514515,-0.21817678,-0.19516581,-0.1757561,-0.16119874,-0.14789271,-0.12970364,-0.10788292,-0.08606213,-0.063020706,-0.03756827,-0.009704888,0.01696825,0.04120004,0.060609818,0.07757807,0.093325615,0.106662154,0.113925695,0.117587805,0.11999881,0.123630404,0.12240982,0.11151469,0.093325615,0.070314646,0.046052456,0.02060008,-0.009704888,-0.040009737,-0.070314646,-0.10180974,-0.14059871,-0.18546093,-0.23392439,-0.283639,-0.33213294,-0.3830378,-0.43998533,-0.49818414,-0.5454573,-0.5854671,-0.61940366,-0.65819263,-0.6993927,-0.7357707,-0.7660756,-0.78423417,-0.79879147,-0.80849636,-0.8169805,-0.82302314,-0.82665485,-0.8278756,-0.82302314,-0.8157597,-0.8048341,-0.79515976,-0.7878658,-0.7793817,-0.7660756,-0.7515183,-0.7418134,-0.7357707,-0.73455,-0.72847676,-0.7151402,-0.7018036,-0.69454026,-0.69090855,-0.6860561,-0.6763512,-0.66786706,-0.66423535,-0.66423535,-0.66423535,-0.66304517,-0.65938294,-0.66304517,-0.66545606,-0.66545606,-0.65938294,-0.65453047,-0.65697193,-0.6618244,-0.66786706,-0.675161,-0.68120366,-0.6836451,-0.6848353,-0.68120366,-0.67757195,-0.6763512,-0.6800134,-0.68242437,-0.68120366,-0.67757195,-0.6763512,-0.6787927,-0.68120366,-0.68120366,-0.6800134,-0.67757195,-0.6800134,-0.6800134,-0.6763512,-0.67030853,-0.66545606,-0.66786706,-0.67030853,-0.6727195,-0.67030853,-0.66304517,-0.65697193,-0.6521195,-0.64726704,-0.6436354,-0.64241457,-0.6460463,-0.6497085,-0.6508987,-0.64726704,-0.6387829,-0.63393044,-0.6315195,-0.6278878,-0.6278878,-0.6278878,-0.6315195,-0.63393044,-0.63274026,-0.6266671,-0.6169622,-0.6145512,-0.6133305,-0.6133305,-0.6133305,-0.6133305,-0.6145512,-0.61577195,-0.6121097,-0.6072878,-0.6036256,-0.6036256,-0.6036256,-0.60243535,-0.59758294,-0.5939512,-0.5963622,-0.59758294,-0.59758294,-0.59273046,-0.590289,-0.587878,-0.5818049,-0.57213044,-0.5563524,-0.5381939,-0.528489,-0.5224159,-0.5175634,-0.51152074,-0.50788903,-0.5030366,-0.49696344,-0.48362678,-0.4606158,-0.43031096,-0.40122682,-0.37455362,-0.3551439,-0.35395366,-0.3697012,-0.40122682,-0.44364756,-0.4860683,-0.51637316,-0.5454573,-0.57090974,-0.5854671,-0.5939512,-0.5915097,-0.58424634,-0.5818049,-0.5818049,-0.5866573,-0.59273046,-0.60121465,-0.60847807,-0.6109195,-0.6096988,-0.59273046,-0.5309,-0.40363777,-0.19516581,0.07757807,0.36362803,0.60362554,0.7600025,0.8460647,0.89696956,0.8908963,0.77575004,0.50303674,0.0884732,-0.35877556,-0.7078768,-0.8860744,-0.91634876,-0.8654439,-0.7878658,-0.7066561,-0.63393044,-0.5769829,-0.54182565,-0.5248573,-0.52000487,-0.51637316,-0.51515245,-0.50788903,-0.49455243,-0.47636342,-0.4593951,-0.44969022,-0.4412061,-0.4290902,-0.4133427,-0.39515364,-0.3830378,-0.37455362,-0.36362803,-0.3515122,-0.3393963,-0.32728046,-0.31394386,-0.2969756,-0.2763756,-0.25818658,-0.24121827,-0.22666097,-0.21213412,-0.19150364,-0.16968286,-0.15271461,-0.13089389,-0.10544139,-0.07394636,-0.040009737,-0.012115836,0.012115836,0.038789034,0.06546223,0.089693904,0.106662154,0.1163671,0.12240982,0.13089395,0.13455606,0.13211453,0.12607193,0.11877811,0.11273527,0.09817803,0.07150483,0.038789034,0.007263422,-0.021820724,-0.046052456,-0.079989016,-0.1224097,-0.17090362,-0.22061831,-0.27152318,-0.3236488,-0.3794061,-0.43272197,-0.4860683,-0.5393841,-0.5915097,-0.63756216,-0.6727195,-0.6993927,-0.7248451,-0.7515183,-0.77575,-0.79879147,-0.8109073,-0.81817067,-0.82665485,-0.8303171,-0.82665485,-0.8193915,-0.8109073,-0.80605483,-0.8000122,-0.793939,-0.78182316,-0.7708975,-0.76363415,-0.7563707,-0.7430341,-0.7260659,-0.71028775,-0.7006134,-0.69576097,-0.6896878,-0.6800134,-0.6715293,-0.67030853,-0.6715293,-0.67030853,-0.66545606,-0.65819263,-0.65453047,-0.6557512,-0.65697193,-0.6557512,-0.65453047,-0.65697193,-0.65697193,-0.6557512,-0.6557512,-0.6557512,-0.65938294,-0.6618244,-0.65819263,-0.6508987,-0.6460463,-0.6497085,-0.65697193,-0.66060364,-0.65938294,-0.65453047,-0.6533402,-0.65697193,-0.65697193,-0.6533402,-0.6508987,-0.6533402,-0.65697193,-0.66060364,-0.65938294,-0.65453047,-0.6521195,-0.6484878,-0.6448561,-0.6387829,-0.63029873,-0.62907803,-0.63029873,-0.63274026,-0.63393044,-0.63029873,-0.6266671,-0.62425613,-0.6218146,-0.6218146,-0.62425613,-0.6278878,-0.6266671,-0.61940366,-0.6109195,-0.60484636,-0.60847807,-0.6145512,-0.61577195,-0.6109195,-0.59999394,-0.5963622,-0.5963622,-0.59758294,-0.5987731,-0.5963622,-0.59758294,-0.5987731,-0.59758294,-0.5939512,-0.5890988,-0.5890988,-0.590289,-0.590289,-0.5890988,-0.5854671,-0.5806147,-0.5769829,-0.57213044,-0.5684988,-0.56968904,-0.5733207,-0.5769829,-0.57576215,-0.57213044,-0.567278,-0.5684988,-0.57090974,-0.5684988,-0.5624256,-0.55757314,-0.5600146,-0.5660573,-0.5660573,-0.55757314,-0.5393841,-0.5224159,-0.5090792,-0.49818414,-0.4860683,-0.47877437,-0.47514266,-0.47636342,-0.47636342,-0.4727317,-0.46302682,-0.4460585,-0.42182684,-0.39152193,-0.35999632,-0.33213294,-0.3236488,-0.33332318,-0.35877556,-0.39393288,-0.43635362,-0.47758418,-0.5103,-0.5321207,-0.5393841,-0.54182565,-0.54667807,-0.5539415,-0.56120485,-0.56483656,-0.5660573,-0.56968904,-0.57454145,-0.5818049,-0.58424634,-0.5866573,-0.5915097,-0.57454145,-0.49818414,-0.3381756,-0.09091467,0.20484018,0.49333167,0.72121346,0.8594012,0.9309062,0.9551377,0.9030427,0.7309183,0.40726948,-0.031525552,-0.46665847,-0.77455974,-0.9006012,-0.8933378,-0.8254646,-0.74666584,-0.675161,-0.60484636,-0.54423654,-0.5054475,-0.49574268,-0.5018158,-0.50788903,-0.5054475,-0.49696344,-0.48484755,-0.47029024,-0.4545427,-0.4375744,-0.42182684,-0.4145329,-0.40726948,-0.39515364,-0.38059628,-0.3648488,-0.35395366,-0.34302807,-0.3260597,-0.3066805,-0.2884915,-0.27756584,-0.2666707,-0.25092316,-0.22910243,-0.20969266,-0.19635606,-0.18424022,-0.16486096,-0.13696712,-0.104251206,-0.07757801,-0.055757344,-0.032715797,-0.004852414,0.023041487,0.043641448,0.06546223,0.0884732,0.11273527,0.13574636,0.14545119,0.14789271,0.14545119,0.14423048,0.13696706,0.12240982,0.10180974,0.07513654,0.048493862,0.023041487,-0.0072633624,-0.03756827,-0.06665242,-0.09939879,-0.13696712,-0.18424022,-0.23636585,-0.2897122,-0.3381756,-0.38422805,-0.43272197,-0.47999507,-0.5260475,-0.57213044,-0.61577195,-0.66304517,-0.70546585,-0.74059266,-0.7672658,-0.7866756,-0.8048341,-0.8206122,-0.8290963,-0.8303171,-0.8290963,-0.8315073,-0.8315073,-0.8278756,-0.81817067,-0.8072756,-0.79634994,-0.7830439,-0.76848656,-0.75392926,-0.7418134,-0.7381817,-0.73332924,-0.72243416,-0.70909756,-0.69576097,-0.6896878,-0.6860561,-0.68242437,-0.67757195,-0.6715293,-0.67030853,-0.66908777,-0.66545606,-0.66304517,-0.66423535,-0.66786706,-0.66908777,-0.6666769,-0.65938294,-0.65453047,-0.65697193,-0.66060364,-0.66423535,-0.66423535,-0.66423535,-0.66545606,-0.66545606,-0.66304517,-0.66060364,-0.65938294,-0.66304517,-0.66545606,-0.66304517,-0.65819263,-0.6557512,-0.66060364,-0.66304517,-0.66304517,-0.66060364,-0.65819263,-0.65453047,-0.65453047,-0.6497085,-0.6436354,-0.64241457,-0.6484878,-0.65453047,-0.65453047,-0.6508987,-0.64726704,-0.6497085,-0.6497085,-0.6484878,-0.64241457,-0.6387829,-0.6412244,-0.64241457,-0.6387829,-0.63029873,-0.6218146,-0.6218146,-0.62425613,-0.62425613,-0.61940366,-0.6145512,-0.6121097,-0.6133305,-0.6109195,-0.60847807,-0.60606706,-0.6072878,-0.60847807,-0.6072878,-0.6036256,-0.59999394,-0.60121465,-0.60243535,-0.59999394,-0.5963622,-0.5915097,-0.5915097,-0.59273046,-0.587878,-0.5818049,-0.57576215,-0.57454145,-0.5769829,-0.57939386,-0.5806147,-0.5818049,-0.587878,-0.590289,-0.5854671,-0.5769829,-0.5684988,-0.56968904,-0.5769829,-0.57817316,-0.57454145,-0.567278,-0.5636463,-0.56483656,-0.56483656,-0.5600146,-0.55149996,-0.549089,-0.5503098,-0.5539415,-0.5503098,-0.5406049,-0.5309,-0.51637316,-0.5042573,-0.49455243,-0.4860683,-0.4872585,-0.4884792,-0.48121583,-0.46787924,-0.4460585,-0.42060608,-0.39030117,-0.35758537,-0.3284707,-0.31394386,-0.324839,-0.35395366,-0.39152193,-0.4375744,-0.47877437,-0.51274145,-0.5357524,-0.5454573,-0.5454573,-0.54423654,-0.5503098,-0.5551622,-0.5563524,-0.5551622,-0.5563524,-0.5660573,-0.57817316,-0.5854671,-0.5866573,-0.5854671,-0.5636463,-0.48243654,-0.32120728,-0.07879877,0.20606112,0.4666586,0.65697193,0.7721182,0.83394885,0.8751488,0.8460647,0.6824243,0.35758543,-0.089693904,-0.5272683,-0.8242439,-0.9321268,-0.9042329,-0.8193915,-0.7309183,-0.65819263,-0.5963622,-0.54423654,-0.50788903,-0.4884792,-0.48243654,-0.47758418,-0.4691,-0.45698416,-0.4472792,-0.4412061,-0.43394268,-0.4242378,-0.41090125,-0.40000612,-0.39271218,-0.38544875,-0.37696463,-0.36243778,-0.34665972,-0.33576465,-0.3260597,-0.30909145,-0.28604996,-0.25940734,-0.2387768,-0.22425002,-0.21213412,-0.19998783,-0.18301946,-0.16486096,-0.14423048,-0.11999875,-0.093325555,-0.07150483,-0.05453658,-0.038788974,-0.01696825,0.0097049475,0.04120004,0.063020706,0.08120978,0.09817803,0.11151469,0.124851346,0.12970364,0.12607193,0.11999881,0.110293865,0.09817803,0.083651304,0.06546223,0.046052456,0.021820784,-0.0072633624,-0.043641448,-0.07757801,-0.110293925,-0.14304024,-0.18182933,-0.23273414,-0.28727072,-0.3381756,-0.38422805,-0.4254585,-0.4727317,-0.5212256,-0.56483656,-0.60243535,-0.63393044,-0.6666769,-0.69212925,-0.71758175,-0.7418134,-0.76363415,-0.7878658,-0.8024231,-0.8048341,-0.8000122,-0.7927183,-0.793939,-0.793939,-0.7878658,-0.77333903,-0.75756097,-0.7490768,-0.7430341,-0.736961,-0.7272866,-0.71395,-0.70546585,-0.69576097,-0.6848353,-0.66908777,-0.65697193,-0.6533402,-0.6557512,-0.65697193,-0.65453047,-0.6484878,-0.64726704,-0.6460463,-0.6460463,-0.64241457,-0.6400037,-0.6400037,-0.64241457,-0.6436354,-0.6448561,-0.6448561,-0.6436354,-0.63756216,-0.6315195,-0.6315195,-0.63637197,-0.64726704,-0.65697193,-0.6533402,-0.64726704,-0.6412244,-0.6448561,-0.6521195,-0.6533402,-0.64726704,-0.6400037,-0.6387829,-0.6460463,-0.6508987,-0.6497085,-0.6460463,-0.6448561,-0.6484878,-0.64726704,-0.6412244,-0.63274026,-0.6278878,-0.62907803,-0.6315195,-0.63274026,-0.6278878,-0.62425613,-0.6230354,-0.62425613,-0.62425613,-0.62425613,-0.6205939,-0.6169622,-0.6121097,-0.6096988,-0.60847807,-0.6109195,-0.6109195,-0.6036256,-0.5951414,-0.590289,-0.59273046,-0.5963622,-0.59758294,-0.5915097,-0.58424634,-0.5806147,-0.5806147,-0.57817316,-0.57454145,-0.5769829,-0.58424634,-0.59273046,-0.59273046,-0.5818049,-0.5684988,-0.5600146,-0.5600146,-0.56120485,-0.5660573,-0.56968904,-0.57213044,-0.57090974,-0.5660573,-0.5600146,-0.5551622,-0.5563524,-0.56120485,-0.56120485,-0.5600146,-0.5551622,-0.549089,-0.5357524,-0.52000487,-0.50788903,-0.5005951,-0.5030366,-0.5042573,-0.49818414,-0.4872585,-0.4739524,-0.46787924,-0.4545427,-0.43272197,-0.40363777,-0.37696463,-0.36362803,-0.36121708,-0.3648488,-0.37455362,-0.39515364,-0.43031096,-0.47151095,-0.50666827,-0.5321207,-0.54301584,-0.54786825,-0.5503098,-0.55149996,-0.5551622,-0.5624256,-0.57454145,-0.5830256,-0.5830256,-0.57939386,-0.5769829,-0.57454145,-0.57454145,-0.567278,-0.5236366,-0.42182684,-0.2618183,-0.041199923,0.19879758,0.39637446,0.5272682,0.59877324,0.65819275,0.71636105,0.70180357,0.5333415,0.18182933,-0.27271336,-0.66060364,-0.8751488,-0.9151585,-0.85454875,-0.77575,-0.7066561,-0.6448561,-0.5830256,-0.52970976,-0.49455243,-0.47514266,-0.47029024,-0.47151095,-0.4727317,-0.47029024,-0.46180606,-0.44483775,-0.42667925,-0.4133427,-0.402417,-0.38908046,-0.37696463,-0.3660695,-0.35877556,-0.3527329,-0.3418073,-0.3260597,-0.30787075,-0.29090238,-0.27756584,-0.263039,-0.24485004,-0.22666097,-0.21576583,-0.20365,-0.18668169,-0.16486096,-0.14059871,-0.11999875,-0.10180974,-0.07757801,-0.049684107,-0.018189013,0.0060731173,0.025452375,0.042420745,0.059388995,0.07513654,0.09213543,0.106662154,0.11999881,0.12848294,0.12607193,0.11273527,0.096957445,0.08243048,0.06909394,0.05453658,0.031525612,0.0048525333,-0.024231672,-0.052125573,-0.08606213,-0.12607199,-0.16849267,-0.21576583,-0.26545,-0.31635487,-0.37211215,-0.4278695,-0.4739524,-0.51637316,-0.55757314,-0.60243535,-0.64726704,-0.68727684,-0.71999264,-0.7442549,-0.76363415,-0.7793817,-0.79030734,-0.79879147,-0.80605483,-0.81331825,-0.8206122,-0.82302314,-0.81817067,-0.80968654,-0.8012024,-0.79030734,-0.77819145,-0.7697073,-0.7624134,-0.7587817,-0.7515183,-0.7381817,-0.72243416,-0.71028775,-0.70546585,-0.7030244,-0.69698167,-0.6860561,-0.6727195,-0.66423535,-0.65819263,-0.6508987,-0.6508987,-0.6521195,-0.65819263,-0.66423535,-0.66304517,-0.65453047,-0.64726704,-0.64241457,-0.6412244,-0.6436354,-0.6497085,-0.6533402,-0.65819263,-0.65819263,-0.65453047,-0.6508987,-0.6497085,-0.6533402,-0.65938294,-0.66304517,-0.66545606,-0.66545606,-0.66304517,-0.66060364,-0.65938294,-0.65819263,-0.6557512,-0.65697193,-0.65453047,-0.6521195,-0.65453047,-0.65819263,-0.66060364,-0.66060364,-0.6521195,-0.6436354,-0.6400037,-0.6448561,-0.6508987,-0.6508987,-0.6460463,-0.63756216,-0.63637197,-0.63637197,-0.63756216,-0.63637197,-0.63393044,-0.63274026,-0.63029873,-0.6254463,-0.6181829,-0.61577195,-0.6181829,-0.61940366,-0.6169622,-0.6109195,-0.60847807,-0.6109195,-0.6145512,-0.6121097,-0.6072878,-0.60243535,-0.60243535,-0.60484636,-0.60243535,-0.59758294,-0.5951414,-0.5963622,-0.60121465,-0.60121465,-0.59999394,-0.59999394,-0.60121465,-0.5987731,-0.5951414,-0.587878,-0.5854671,-0.590289,-0.5951414,-0.59273046,-0.5806147,-0.5624256,-0.54786825,-0.5357524,-0.5272683,-0.5236366,-0.5224159,-0.5236366,-0.5224159,-0.5139317,-0.4994049,-0.47877437,-0.45576346,-0.4290902,-0.3963744,-0.36848044,-0.35636467,-0.36725968,-0.3963744,-0.4290902,-0.46424758,-0.49818414,-0.5309,-0.5600146,-0.57817316,-0.5830256,-0.5830256,-0.58424634,-0.5866573,-0.587878,-0.5890988,-0.5915097,-0.5963622,-0.60484636,-0.6109195,-0.61577195,-0.6218146,-0.61940366,-0.56968904,-0.44483775,-0.23392439,0.042420745,0.3236488,0.5612049,0.72121346,0.80968654,0.86425364,0.87029636,0.78182316,0.54423666,0.15878785,-0.2897122,-0.6715293,-0.8860744,-0.9321268,-0.8836329,-0.80364394,-0.72847676,-0.66423535,-0.6036256,-0.5587939,-0.5369731,-0.5357524,-0.5406049,-0.5369731,-0.5272683,-0.5139317,-0.5042573,-0.49455243,-0.48243654,-0.4654683,-0.44969022,-0.4375744,-0.42667925,-0.41212195,-0.40122682,-0.39152193,-0.38666952,-0.3794061,-0.36121708,-0.3393963,-0.31516463,-0.29938656,-0.2897122,-0.2751549,-0.25818658,-0.2387768,-0.21817678,-0.19757682,-0.16968286,-0.13818783,-0.11151463,-0.09454632,-0.079989016,-0.06183052,-0.038788974,-0.004852414,0.025452375,0.05090487,0.07272565,0.087282896,0.09576702,0.09817803,0.09939885,0.10180974,0.10180974,0.09576702,0.07879877,0.056978106,0.035157323,0.008484125,-0.020599961,-0.05453658,-0.089693904,-0.11999875,-0.14908284,-0.1890927,-0.23758662,-0.29575485,-0.3527329,-0.40604877,-0.45576346,-0.5054475,-0.5539415,-0.59758294,-0.63756216,-0.67757195,-0.71999264,-0.76000243,-0.7890866,-0.81212807,-0.82665485,-0.8388012,-0.8484756,-0.8484756,-0.8460646,-0.8424329,-0.84121215,-0.84484386,-0.83999145,-0.8315073,-0.81817067,-0.8048341,-0.793939,-0.7793817,-0.7648549,-0.75392926,-0.7490768,-0.74544513,-0.7394024,-0.7296976,-0.71758175,-0.70909756,-0.7018036,-0.69090855,-0.6836451,-0.6800134,-0.68242437,-0.6860561,-0.68242437,-0.6739402,-0.66545606,-0.66545606,-0.66908777,-0.6715293,-0.6715293,-0.6739402,-0.6787927,-0.6836451,-0.6848353,-0.68242437,-0.6787927,-0.6800134,-0.6848353,-0.6836451,-0.68120366,-0.6763512,-0.675161,-0.6739402,-0.6739402,-0.675161,-0.675161,-0.67757195,-0.67757195,-0.6715293,-0.66423535,-0.65819263,-0.65697193,-0.65819263,-0.66060364,-0.66545606,-0.66908777,-0.6727195,-0.67030853,-0.65938294,-0.6497085,-0.6436354,-0.6448561,-0.6460463,-0.6412244,-0.6387829,-0.6412244,-0.6460463,-0.6460463,-0.6387829,-0.6266671,-0.6169622,-0.6181829,-0.62425613,-0.6254463,-0.62425613,-0.6218146,-0.62425613,-0.62907803,-0.6278878,-0.6230354,-0.6169622,-0.6145512,-0.6133305,-0.6121097,-0.60847807,-0.6036256,-0.60484636,-0.6072878,-0.60606706,-0.60243535,-0.59758294,-0.5963622,-0.5963622,-0.59273046,-0.587878,-0.5866573,-0.590289,-0.59273046,-0.5915097,-0.5890988,-0.5866573,-0.5890988,-0.59273046,-0.590289,-0.5854671,-0.5806147,-0.58424634,-0.587878,-0.5854671,-0.5769829,-0.5587939,-0.54301584,-0.528489,-0.5175634,-0.51274145,-0.51152074,-0.51274145,-0.50788903,-0.49574268,-0.48484755,-0.4727317,-0.45817435,-0.43635362,-0.40485853,-0.3709219,-0.34665972,-0.34424877,-0.36121708,-0.38666952,-0.42182684,-0.46424758,-0.5030366,-0.5381939,-0.56120485,-0.57090974,-0.57213044,-0.57090974,-0.57213044,-0.57213044,-0.57817316,-0.5866573,-0.5951414,-0.6036256,-0.6036256,-0.59999394,-0.6036256,-0.60606706,-0.57454145,-0.47029024,-0.2751549,-0.0012207627,0.29819643,0.56968904,0.7684866,0.8848537,0.9454634,0.9442427,0.8412123,0.59877324,0.21454525,-0.23758662,-0.63029873,-0.8618122,-0.92364264,-0.88485366,-0.80849636,-0.73332924,-0.66060364,-0.5915097,-0.54301584,-0.52000487,-0.5236366,-0.5333414,-0.5309,-0.51515245,-0.49574268,-0.48362678,-0.47514266,-0.46665847,-0.4545427,-0.43998533,-0.42667925,-0.4145329,-0.39878535,-0.38422805,-0.3709219,-0.36243778,-0.3527329,-0.33576465,-0.31879634,-0.30423898,-0.29334384,-0.28241825,-0.263039,-0.23758662,-0.21454507,-0.19635606,-0.18301946,-0.16364026,-0.14059871,-0.11392552,-0.08847314,-0.06183052,-0.031525552,-0.0036316514,0.021820784,0.040009856,0.055757284,0.07757807,0.10180974,0.123630404,0.12970364,0.12726223,0.12240982,0.11514628,0.106662154,0.09091461,0.07150483,0.05453658,0.036378026,0.0133366585,-0.01696825,-0.05090481,-0.083651245,-0.117587805,-0.15756708,-0.20606095,-0.26059753,-0.3115024,-0.35999632,-0.409711,-0.46424758,-0.52000487,-0.567278,-0.60847807,-0.6460463,-0.6860561,-0.72362435,-0.75029755,-0.7721183,-0.79030734,-0.8109073,-0.82665485,-0.832728,-0.8339488,-0.8315073,-0.832728,-0.8339488,-0.82302314,-0.8072756,-0.793939,-0.7866756,-0.78060246,-0.7697073,-0.75392926,-0.74059266,-0.73332924,-0.7272866,-0.71758175,-0.7066561,-0.69698167,-0.69331944,-0.6896878,-0.6800134,-0.67030853,-0.66423535,-0.66545606,-0.66786706,-0.6666769,-0.66423535,-0.66304517,-0.66545606,-0.66908777,-0.66786706,-0.66545606,-0.66060364,-0.66423535,-0.66908777,-0.6715293,-0.6739402,-0.6739402,-0.6763512,-0.67757195,-0.6763512,-0.6763512,-0.6739402,-0.6763512,-0.6800134,-0.6800134,-0.68120366,-0.68120366,-0.6848353,-0.6860561,-0.68120366,-0.6739402,-0.66786706,-0.6727195,-0.6763512,-0.6763512,-0.66786706,-0.65697193,-0.6533402,-0.6557512,-0.65697193,-0.65938294,-0.65938294,-0.66060364,-0.6618244,-0.65819263,-0.6521195,-0.6460463,-0.64241457,-0.6400037,-0.63637197,-0.6351512,-0.63756216,-0.6412244,-0.64241457,-0.6351512,-0.6278878,-0.62425613,-0.6266671,-0.6278878,-0.6218146,-0.6133305,-0.6096988,-0.6145512,-0.6205939,-0.61577195,-0.60484636,-0.5963622,-0.5987731,-0.60847807,-0.6133305,-0.6109195,-0.60121465,-0.59273046,-0.5890988,-0.5866573,-0.5866573,-0.587878,-0.5915097,-0.5939512,-0.5915097,-0.5890988,-0.5854671,-0.587878,-0.587878,-0.5866573,-0.5818049,-0.57817316,-0.57939386,-0.5818049,-0.5818049,-0.57817316,-0.57576215,-0.57576215,-0.57576215,-0.57090974,-0.567278,-0.5660573,-0.5660573,-0.5624256,-0.5454573,-0.5248573,-0.5054475,-0.5030366,-0.5090792,-0.51152074,-0.5090792,-0.49818414,-0.4884792,-0.47877437,-0.46302682,-0.44242686,-0.41575366,-0.38544875,-0.35877556,-0.3393963,-0.34061706,-0.35999632,-0.40000612,-0.450911,-0.49333167,-0.5248573,-0.54667807,-0.5587939,-0.5636463,-0.5624256,-0.56120485,-0.56483656,-0.57576215,-0.5866573,-0.59273046,-0.590289,-0.587878,-0.5915097,-0.5987731,-0.60121465,-0.5818049,-0.5030366,-0.35395366,-0.12607199,0.15756702,0.4351635,0.65334034,0.78304386,0.8509171,0.88970613,0.86303294,0.71272933,0.39393306,-0.05453658,-0.5005951,-0.81331825,-0.94061095,-0.9272744,-0.8557695,-0.7708975,-0.69090855,-0.6230354,-0.5660573,-0.528489,-0.5103,-0.5054475,-0.5042573,-0.5030366,-0.49696344,-0.48243654,-0.46787924,-0.4545427,-0.44483775,-0.43272197,-0.4145329,-0.39756465,-0.38666952,-0.38059628,-0.3781854,-0.3660695,-0.35029143,-0.33332318,-0.31757557,-0.30423898,-0.2884915,-0.26789147,-0.2497024,-0.23514515,-0.22061831,-0.20484018,-0.1890927,-0.16968286,-0.14908284,-0.12485123,-0.09091467,-0.055757344,-0.02789396,-0.008484125,0.007263422,0.026673198,0.04727316,0.06787312,0.08484137,0.09454644,0.106662154,0.113925695,0.110293865,0.09817803,0.08243048,0.06787312,0.055757284,0.046052456,0.031525612,0.012115836,-0.009704888,-0.03756827,-0.07150483,-0.11392552,-0.15756708,-0.20120853,-0.24362928,-0.28604996,-0.33213294,-0.3830378,-0.4278695,-0.4727317,-0.5187841,-0.5636463,-0.6096988,-0.6497085,-0.6860561,-0.71758175,-0.74788654,-0.7708975,-0.7866756,-0.79515976,-0.8000122,-0.80849636,-0.81212807,-0.80968654,-0.8024231,-0.79030734,-0.78060246,-0.77333903,-0.76848656,-0.7660756,-0.76000243,-0.752739,-0.7418134,-0.7248451,-0.71028775,-0.70546585,-0.7030244,-0.6993927,-0.6896878,-0.6739402,-0.6618244,-0.65819263,-0.65938294,-0.65697193,-0.6521195,-0.64726704,-0.64726704,-0.6497085,-0.6448561,-0.6387829,-0.6351512,-0.63637197,-0.6436354,-0.6484878,-0.6484878,-0.6497085,-0.65453047,-0.65938294,-0.65819263,-0.6557512,-0.6533402,-0.6533402,-0.65819263,-0.6521195,-0.64726704,-0.6448561,-0.6460463,-0.64726704,-0.6448561,-0.6412244,-0.6400037,-0.6448561,-0.6484878,-0.6448561,-0.6400037,-0.63756216,-0.63756216,-0.6400037,-0.63637197,-0.6315195,-0.6278878,-0.62907803,-0.6266671,-0.6218146,-0.61577195,-0.61577195,-0.6218146,-0.6278878,-0.6254463,-0.6205939,-0.61577195,-0.6181829,-0.61940366,-0.6121097,-0.60243535,-0.5951414,-0.5951414,-0.5987731,-0.5987731,-0.5987731,-0.5987731,-0.60243535,-0.60606706,-0.60243535,-0.5939512,-0.5830256,-0.5769829,-0.5806147,-0.58424634,-0.590289,-0.59273046,-0.590289,-0.5854671,-0.57817316,-0.5733207,-0.57454145,-0.5769829,-0.5806147,-0.57576215,-0.56968904,-0.567278,-0.567278,-0.56968904,-0.56968904,-0.567278,-0.56483656,-0.56483656,-0.5636463,-0.55757314,-0.5503098,-0.5381939,-0.5260475,-0.51515245,-0.5030366,-0.49818414,-0.49696344,-0.49818414,-0.49818414,-0.4884792,-0.47636342,-0.46180606,-0.4412061,-0.4145329,-0.3830378,-0.3527329,-0.33213294,-0.33332318,-0.35029143,-0.3794061,-0.41938537,-0.4606158,-0.49818414,-0.5248573,-0.53453165,-0.5393841,-0.54182565,-0.54667807,-0.5503098,-0.5503098,-0.549089,-0.5539415,-0.5624256,-0.5733207,-0.57576215,-0.5733207,-0.56968904,-0.5624256,-0.5248573,-0.43031096,-0.27152318,-0.05090481,0.19150364,0.39756465,0.5406048,0.6205939,0.6739402,0.7175816,0.70180357,0.5551622,0.2387768,-0.19272435,-0.5963622,-0.84969634,-0.92364264,-0.8763695,-0.79152805,-0.71395,-0.6460463,-0.5818049,-0.5272683,-0.49211097,-0.47758418,-0.47636342,-0.47514266,-0.4691,-0.46180606,-0.45698416,-0.450911,-0.4375744,-0.42301702,-0.409711,-0.39756465,-0.38544875,-0.36848044,-0.35029143,-0.3381756,-0.33213294,-0.32728046,-0.31394386,-0.29819638,-0.27756584,-0.2618183,-0.2497024,-0.23151338,-0.21332431,-0.19635606,-0.18182933,-0.16849267,-0.15152436,-0.12970364,-0.106662154,-0.083651245,-0.060609758,-0.03393656,-0.008484125,0.014557242,0.0339365,0.05453658,0.07757807,0.100619555,0.1163671,0.11999881,0.1163671,0.113925695,0.10910368,0.09939885,0.083651304,0.06424153,0.04727316,0.030304909,0.0097049475,-0.019379258,-0.053346336,-0.08606213,-0.1224097,-0.1624195,-0.20847195,-0.25696588,-0.3030182,-0.35029143,-0.402417,-0.45576346,-0.50788903,-0.5503098,-0.5890988,-0.6266671,-0.66545606,-0.7030244,-0.7309183,-0.752739,-0.7708975,-0.7878658,-0.8012024,-0.80968654,-0.81331825,-0.8157597,-0.8157597,-0.81212807,-0.8024231,-0.79152805,-0.78060246,-0.7721183,-0.7660756,-0.75756097,-0.74788654,-0.736961,-0.7272866,-0.716361,-0.7042451,-0.69576097,-0.6896878,-0.68727684,-0.6836451,-0.675161,-0.66545606,-0.66060364,-0.6618244,-0.6666769,-0.66786706,-0.66786706,-0.66545606,-0.66423535,-0.66060364,-0.6557512,-0.65453047,-0.6557512,-0.66060364,-0.6666769,-0.66545606,-0.6618244,-0.66060364,-0.66304517,-0.6666769,-0.66545606,-0.66304517,-0.66060364,-0.66060364,-0.66423535,-0.66304517,-0.66304517,-0.66545606,-0.66908777,-0.6727195,-0.6727195,-0.6715293,-0.67030853,-0.6715293,-0.6715293,-0.66545606,-0.65819263,-0.6521195,-0.6533402,-0.65453047,-0.6508987,-0.6497085,-0.6460463,-0.6448561,-0.6436354,-0.63756216,-0.6315195,-0.63029873,-0.63637197,-0.6412244,-0.63756216,-0.63029873,-0.62425613,-0.6218146,-0.62425613,-0.6218146,-0.61577195,-0.6121097,-0.6109195,-0.6121097,-0.6109195,-0.6072878,-0.6072878,-0.60847807,-0.6096988,-0.6072878,-0.60484636,-0.60484636,-0.6072878,-0.60847807,-0.60121465,-0.5939512,-0.590289,-0.59273046,-0.59999394,-0.5987731,-0.5963622,-0.59273046,-0.5915097,-0.59273046,-0.5890988,-0.5866573,-0.58424634,-0.5854671,-0.5890988,-0.5866573,-0.5806147,-0.5684988,-0.5551622,-0.5406049,-0.5260475,-0.5175634,-0.51637316,-0.5175634,-0.5187841,-0.5103,-0.49818414,-0.48243654,-0.46424758,-0.4412061,-0.41090125,-0.38181704,-0.36243778,-0.36121708,-0.37455362,-0.39515364,-0.4242378,-0.4593951,-0.49818414,-0.52970976,-0.5503098,-0.5600146,-0.5684988,-0.57817316,-0.5854671,-0.58424634,-0.57939386,-0.57817316,-0.58424634,-0.5951414,-0.60243535,-0.6036256,-0.60243535,-0.6036256,-0.5854671,-0.5103,-0.35758537,-0.123630464,0.16000855,0.4375744,0.66545606,0.80968654,0.8872647,0.9212012,0.8860744,0.7345501,0.43272197,0.0097049475,-0.4242378,-0.7442549,-0.8872646,-0.89574873,-0.8375805,-0.76122314,-0.68849754,-0.61577195,-0.5563524,-0.52000487,-0.50788903,-0.51274145,-0.51515245,-0.51515245,-0.5103,-0.5005951,-0.48484755,-0.46180606,-0.44242686,-0.4290902,-0.42301702,-0.41819513,-0.40604877,-0.39030117,-0.37333292,-0.35999632,-0.3491012,-0.33576465,-0.3236488,-0.3115024,-0.2969756,-0.2787866,-0.2557451,-0.23392439,-0.21695608,-0.20484018,-0.19272435,-0.17090362,-0.14908284,-0.12726218,-0.106662154,-0.083651245,-0.05090481,-0.018189013,0.0097049475,0.031525612,0.048493862,0.07150483,0.09213543,0.110293865,0.11877811,0.123630404,0.12726223,0.12848294,0.124851346,0.11273527,0.09576702,0.07757807,0.05453658,0.030304909,0.0024110079,-0.029084146,-0.058168292,-0.089693904,-0.12848294,-0.17334509,-0.22302926,-0.26789147,-0.31757557,-0.37211215,-0.4278695,-0.48484755,-0.52970976,-0.567278,-0.6072878,-0.6497085,-0.69212925,-0.7248451,-0.7515183,-0.7708975,-0.7878658,-0.8024231,-0.80849636,-0.81212807,-0.81212807,-0.81212807,-0.8109073,-0.8024231,-0.7927183,-0.78182316,-0.77333903,-0.7660756,-0.7563707,-0.74666584,-0.736961,-0.7260659,-0.716361,-0.7042451,-0.69454026,-0.6896878,-0.6848353,-0.68242437,-0.6715293,-0.65938294,-0.6508987,-0.64726704,-0.6508987,-0.6508987,-0.6508987,-0.6521195,-0.6557512,-0.65938294,-0.65697193,-0.6508987,-0.6448561,-0.6436354,-0.6460463,-0.6460463,-0.6448561,-0.6460463,-0.6508987,-0.65697193,-0.65819263,-0.6557512,-0.6533402,-0.6521195,-0.6533402,-0.6497085,-0.6484878,-0.6460463,-0.6484878,-0.6533402,-0.6508987,-0.6497085,-0.6497085,-0.6497085,-0.6508987,-0.64726704,-0.6436354,-0.6412244,-0.6436354,-0.64726704,-0.64241457,-0.63637197,-0.6315195,-0.6315195,-0.6315195,-0.63029873,-0.6266671,-0.6218146,-0.6205939,-0.6205939,-0.6169622,-0.6133305,-0.6133305,-0.61577195,-0.61577195,-0.6096988,-0.60121465,-0.5951414,-0.5963622,-0.5987731,-0.5951414,-0.59273046,-0.5890988,-0.5890988,-0.5890988,-0.58424634,-0.5806147,-0.57939386,-0.5806147,-0.5830256,-0.5806147,-0.57817316,-0.5806147,-0.58424634,-0.5866573,-0.5818049,-0.5733207,-0.567278,-0.5636463,-0.5636463,-0.56120485,-0.56120485,-0.5600146,-0.5624256,-0.5636463,-0.5636463,-0.5636463,-0.56120485,-0.5587939,-0.55272067,-0.54301584,-0.5406049,-0.54182565,-0.549089,-0.5563524,-0.5539415,-0.54667807,-0.52970976,-0.51274145,-0.49696344,-0.48362678,-0.47877437,-0.47877437,-0.47999507,-0.47636342,-0.46302682,-0.44849998,-0.4315012,-0.4145329,-0.39152193,-0.36243778,-0.33332318,-0.31879634,-0.3260597,-0.35029143,-0.38059628,-0.41697437,-0.45576346,-0.48969996,-0.5175634,-0.53453165,-0.5393841,-0.54301584,-0.5454573,-0.5503098,-0.54786825,-0.54667807,-0.54786825,-0.5563524,-0.5684988,-0.57454145,-0.57817316,-0.5830256,-0.5806147,-0.52970976,-0.3963744,-0.17453533,0.1163671,0.4145329,0.66423535,0.83272815,0.92242205,0.96243167,0.9333476,0.7975708,0.5163733,0.10303056,-0.34061706,-0.69698167,-0.8824122,-0.9103061,-0.8569597,-0.77455974,-0.69331944,-0.61940366,-0.5551622,-0.51274145,-0.49818414,-0.5030366,-0.5090792,-0.5054475,-0.49455243,-0.47999507,-0.4654683,-0.450911,-0.43516344,-0.42301702,-0.41212195,-0.40726948,-0.40122682,-0.38789028,-0.37211215,-0.35636467,-0.3418073,-0.33213294,-0.31879634,-0.30545974,-0.2897122,-0.27152318,-0.25333416,-0.23392439,-0.21695608,-0.20365,-0.18787193,-0.16968286,-0.14545125,-0.11877805,-0.09576702,-0.07394636,-0.05090481,-0.021820724,0.008484125,0.032715917,0.052125692,0.06665242,0.087282896,0.10788298,0.123630404,0.13211453,0.12970364,0.12848294,0.12240982,0.11273527,0.096957445,0.07757807,0.058168292,0.032715917,0.0060731173,-0.025452435,-0.056978047,-0.08484143,-0.11877805,-0.16119874,-0.21332431,-0.26908165,-0.31998658,-0.36725968,-0.41819513,-0.4691,-0.5175634,-0.56120485,-0.60121465,-0.64241457,-0.68120366,-0.7151402,-0.7381817,-0.7587817,-0.77819145,-0.79879147,-0.8157597,-0.8206122,-0.81817067,-0.814539,-0.81331825,-0.81331825,-0.8072756,-0.7975707,-0.7866756,-0.7793817,-0.77333903,-0.7624134,-0.7490768,-0.73455,-0.72243416,-0.71028775,-0.69698167,-0.6896878,-0.6860561,-0.68849754,-0.69090855,-0.6836451,-0.6739402,-0.66304517,-0.65819263,-0.65938294,-0.65938294,-0.6618244,-0.66423535,-0.66786706,-0.6715293,-0.66786706,-0.66304517,-0.66060364,-0.66060364,-0.66304517,-0.66060364,-0.66060364,-0.66304517,-0.66545606,-0.66908777,-0.66545606,-0.66304517,-0.66060364,-0.66304517,-0.66545606,-0.6618244,-0.65938294,-0.6618244,-0.6666769,-0.6715293,-0.66908777,-0.66423535,-0.65938294,-0.65697193,-0.65697193,-0.6533402,-0.6484878,-0.6448561,-0.6460463,-0.64726704,-0.6436354,-0.6400037,-0.63637197,-0.63274026,-0.63029873,-0.6266671,-0.6266671,-0.62907803,-0.63393044,-0.6351512,-0.6254463,-0.6145512,-0.60847807,-0.60847807,-0.6109195,-0.6096988,-0.6072878,-0.60484636,-0.6036256,-0.60484636,-0.59999394,-0.59758294,-0.5963622,-0.5963622,-0.5951414,-0.59273046,-0.59273046,-0.5951414,-0.59758294,-0.5963622,-0.5866573,-0.57817316,-0.5733207,-0.5733207,-0.57454145,-0.57213044,-0.56968904,-0.56968904,-0.57090974,-0.57454145,-0.57213044,-0.567278,-0.5660573,-0.56483656,-0.5636463,-0.5587939,-0.5563524,-0.5600146,-0.56483656,-0.5684988,-0.56483656,-0.55757314,-0.5539415,-0.5539415,-0.55757314,-0.5539415,-0.5503098,-0.549089,-0.54667807,-0.5393841,-0.5224159,-0.50666827,-0.49333167,-0.4884792,-0.48484755,-0.4739524,-0.4654683,-0.4593951,-0.4545427,-0.4460585,-0.42182684,-0.38908046,-0.35999632,-0.33454394,-0.3236488,-0.3236488,-0.33695483,-0.35999632,-0.39393288,-0.43394268,-0.46665847,-0.49574268,-0.5175634,-0.528489,-0.53453165,-0.53453165,-0.5393841,-0.5454573,-0.5551622,-0.5624256,-0.56120485,-0.55757314,-0.5587939,-0.56483656,-0.5733207,-0.5769829,-0.55757314,-0.47877437,-0.3260597,-0.09817803,0.18060851,0.44850004,0.6497086,0.7708976,0.8351389,0.8775903,0.8557695,0.7102878,0.40122676,-0.035157323,-0.47029024,-0.7793817,-0.90786463,-0.89819026,-0.8290963,-0.7430341,-0.6666769,-0.59758294,-0.5406049,-0.5018158,-0.48243654,-0.47758418,-0.4739524,-0.4691,-0.4593951,-0.44364756,-0.4290902,-0.42182684,-0.41819513,-0.4145329,-0.40604877,-0.39393288,-0.38059628,-0.3660695,-0.35395366,-0.33454394,-0.31635487,-0.3030182,-0.29334384,-0.28604996,-0.2703024,-0.2497024,-0.22666097,-0.20728171,-0.19272435,-0.1769768,-0.15878779,-0.14059871,-0.121219516,-0.100619555,-0.076357305,-0.04849392,-0.024231672,-0.0012207627,0.01696825,0.038789034,0.06183052,0.083651304,0.09939885,0.10788298,0.117587805,0.12240982,0.12240982,0.1163671,0.10180974,0.089693904,0.076357245,0.060609818,0.042420745,0.02060008,-0.0024110079,-0.026673198,-0.055757344,-0.09213537,-0.13455611,-0.17816705,-0.22788167,-0.2763756,-0.3260597,-0.37455362,-0.41697437,-0.4593951,-0.5054475,-0.55149996,-0.5963622,-0.63393044,-0.6666769,-0.69576097,-0.72362435,-0.75029755,-0.7697073,-0.7830439,-0.79152805,-0.79879147,-0.8012024,-0.7975707,-0.7927183,-0.7890866,-0.78545487,-0.7793817,-0.76848656,-0.75514996,-0.74666584,-0.7442549,-0.7430341,-0.73332924,-0.71880245,-0.7030244,-0.69090855,-0.6836451,-0.675161,-0.6715293,-0.66786706,-0.66786706,-0.66786706,-0.6618244,-0.65453047,-0.6484878,-0.64726704,-0.64726704,-0.6460463,-0.64726704,-0.6497085,-0.6533402,-0.6557512,-0.6497085,-0.6448561,-0.6412244,-0.6436354,-0.6497085,-0.6521195,-0.6521195,-0.6533402,-0.6557512,-0.65819263,-0.65453047,-0.6497085,-0.64726704,-0.6508987,-0.65819263,-0.65938294,-0.65938294,-0.65938294,-0.66060364,-0.66060364,-0.65697193,-0.65453047,-0.6533402,-0.65453047,-0.6521195,-0.6448561,-0.6351512,-0.63029873,-0.6315195,-0.63393044,-0.6315195,-0.6266671,-0.62425613,-0.62425613,-0.6266671,-0.6230354,-0.6205939,-0.6181829,-0.6169622,-0.61577195,-0.6121097,-0.6109195,-0.6121097,-0.6169622,-0.61940366,-0.6121097,-0.60484636,-0.60121465,-0.6036256,-0.60606706,-0.6036256,-0.59758294,-0.59273046,-0.59273046,-0.5951414,-0.5963622,-0.59758294,-0.59758294,-0.5987731,-0.59999394,-0.5951414,-0.5915097,-0.5915097,-0.5939512,-0.5951414,-0.590289,-0.5854671,-0.5830256,-0.5854671,-0.5890988,-0.587878,-0.5854671,-0.5818049,-0.57939386,-0.57817316,-0.57213044,-0.5684988,-0.56120485,-0.55272067,-0.54423654,-0.52970976,-0.5187841,-0.5139317,-0.51274145,-0.51274145,-0.5042573,-0.4884792,-0.46665847,-0.43998533,-0.4133427,-0.38544875,-0.3709219,-0.3709219,-0.3830378,-0.402417,-0.41819513,-0.43635362,-0.46665847,-0.5005951,-0.53453165,-0.5587939,-0.57090974,-0.57576215,-0.5806147,-0.58424634,-0.5830256,-0.5830256,-0.5890988,-0.5987731,-0.6109195,-0.6145512,-0.6096988,-0.60606706,-0.59999394,-0.56483656,-0.46665847,-0.29938656,-0.06424147,0.19635606,0.42545855,0.5915097,0.69212925,0.7527391,0.7890867,0.75029755,0.57576215,0.2387768,-0.20606095,-0.6169622,-0.87759024,-0.95757926,-0.9187902,-0.8424329,-0.76363415,-0.69090855,-0.6205939,-0.56120485,-0.528489,-0.5224159,-0.5309,-0.5309,-0.5236366,-0.5103,-0.49574268,-0.48243654,-0.46787924,-0.4545427,-0.44242686,-0.43272197,-0.4242378,-0.41212195,-0.40000612,-0.38908046,-0.3794061,-0.36725968,-0.34788042,-0.3284707,-0.31394386,-0.3018281,-0.2897122,-0.27152318,-0.25333416,-0.2399975,-0.22788167,-0.21454507,-0.1890927,-0.1624195,-0.13574636,-0.11392552,-0.09454632,-0.070314646,-0.04486221,-0.020599961,0.003631711,0.026673198,0.05090487,0.07150483,0.083651304,0.0884732,0.0884732,0.089693904,0.0884732,0.08243048,0.070314646,0.053346395,0.03756833,0.015747666,-0.009704888,-0.038788974,-0.070314646,-0.09939879,-0.13455611,-0.17816705,-0.22788167,-0.28000736,-0.32728046,-0.37455362,-0.4242378,-0.47877437,-0.5309,-0.57817316,-0.6205939,-0.6618244,-0.7018036,-0.7381817,-0.7660756,-0.7866756,-0.80605483,-0.82302314,-0.8388012,-0.84484386,-0.8484756,-0.8472854,-0.84362316,-0.8388012,-0.8303171,-0.82302314,-0.81817067,-0.81331825,-0.8048341,-0.79152805,-0.77697074,-0.7672658,-0.76122314,-0.75514996,-0.7442549,-0.7321085,-0.72362435,-0.71880245,-0.7127292,-0.7030244,-0.69454026,-0.6896878,-0.68849754,-0.6896878,-0.6860561,-0.6800134,-0.6763512,-0.6763512,-0.6787927,-0.67757195,-0.67757195,-0.68120366,-0.6848353,-0.68849754,-0.68849754,-0.6848353,-0.6860561,-0.6896878,-0.69331944,-0.69090855,-0.68849754,-0.6860561,-0.68727684,-0.69090855,-0.68849754,-0.6860561,-0.6848353,-0.68727684,-0.69212925,-0.69090855,-0.6896878,-0.68849754,-0.68727684,-0.6860561,-0.68242437,-0.67757195,-0.6763512,-0.67757195,-0.67757195,-0.6715293,-0.6666769,-0.66423535,-0.66423535,-0.66423535,-0.65938294,-0.65453047,-0.6533402,-0.6557512,-0.65697193,-0.6533402,-0.6484878,-0.6448561,-0.6460463,-0.6484878,-0.6460463,-0.6412244,-0.6387829,-0.63756216,-0.6387829,-0.63274026,-0.6266671,-0.6254463,-0.63029873,-0.63393044,-0.6315195,-0.6254463,-0.6181829,-0.6145512,-0.6145512,-0.6133305,-0.6121097,-0.6109195,-0.6133305,-0.6145512,-0.6096988,-0.60606706,-0.60606706,-0.6096988,-0.6121097,-0.6072878,-0.60121465,-0.59758294,-0.5987731,-0.60243535,-0.59999394,-0.5963622,-0.59273046,-0.5915097,-0.59273046,-0.590289,-0.5890988,-0.5890988,-0.590289,-0.590289,-0.58424634,-0.5769829,-0.56483656,-0.55149996,-0.5393841,-0.5248573,-0.51515245,-0.51274145,-0.51152074,-0.5103,-0.4994049,-0.48362678,-0.4654683,-0.44242686,-0.41697437,-0.39030117,-0.3709219,-0.36725968,-0.3794061,-0.40000612,-0.41575366,-0.43272197,-0.4545427,-0.48484755,-0.51637316,-0.54182565,-0.56120485,-0.57454145,-0.5830256,-0.5890988,-0.5866573,-0.5854671,-0.587878,-0.5951414,-0.6036256,-0.60847807,-0.6096988,-0.6109195,-0.6169622,-0.60847807,-0.5406049,-0.39756465,-0.16968286,0.117587805,0.40726948,0.6508988,0.80968654,0.8908963,0.92605364,0.89333785,0.7527391,0.45698416,0.031525612,-0.41819513,-0.76000243,-0.920011,-0.9321268,-0.8727378,-0.79515976,-0.7212134,-0.6460463,-0.5818049,-0.5406049,-0.5272683,-0.52970976,-0.52970976,-0.5248573,-0.5139317,-0.5018158,-0.48969996,-0.4727317,-0.45817435,-0.4460585,-0.4387951,-0.43272197,-0.42060608,-0.40726948,-0.39393288,-0.3830378,-0.3697012,-0.35395366,-0.33695483,-0.32120728,-0.30787075,-0.29334384,-0.27393413,-0.25333416,-0.23758662,-0.22425002,-0.20728171,-0.18182933,-0.15515614,-0.12848294,-0.10544139,-0.08484143,-0.058168292,-0.032715797,-0.009704888,0.010895133,0.029084206,0.052125692,0.07394636,0.09091461,0.10180974,0.10788298,0.11273527,0.11151469,0.10303056,0.0884732,0.07150483,0.056978106,0.03756833,0.0133366585,-0.014557302,-0.04486221,-0.07150483,-0.100619555,-0.13818783,-0.18182933,-0.23151338,-0.2787866,-0.3260597,-0.37696463,-0.43272197,-0.4860683,-0.5333414,-0.57576215,-0.6169622,-0.65819263,-0.698172,-0.7296976,-0.75514996,-0.77819145,-0.7975707,-0.81331825,-0.8206122,-0.8242439,-0.82665485,-0.8290963,-0.82665485,-0.81817067,-0.80849636,-0.8012024,-0.79515976,-0.79030734,-0.77819145,-0.7660756,-0.75392926,-0.74544513,-0.7381817,-0.7248451,-0.71395,-0.70546585,-0.7006134,-0.698172,-0.6896878,-0.68242437,-0.67757195,-0.6763512,-0.6787927,-0.675161,-0.66908777,-0.66423535,-0.6618244,-0.66304517,-0.66060364,-0.66060364,-0.66060364,-0.6618244,-0.6618244,-0.65938294,-0.65697193,-0.65819263,-0.6618244,-0.66545606,-0.66423535,-0.65938294,-0.65938294,-0.6618244,-0.66545606,-0.66304517,-0.66060364,-0.65938294,-0.66060364,-0.66423535,-0.65938294,-0.6533402,-0.6508987,-0.6508987,-0.6533402,-0.6497085,-0.6448561,-0.6400037,-0.63756216,-0.63637197,-0.63274026,-0.62907803,-0.6278878,-0.6278878,-0.62907803,-0.62425613,-0.6205939,-0.6181829,-0.6181829,-0.6205939,-0.6169622,-0.6121097,-0.6096988,-0.6109195,-0.6109195,-0.6072878,-0.60121465,-0.59758294,-0.5951414,-0.5939512,-0.5915097,-0.590289,-0.590289,-0.5915097,-0.59273046,-0.5866573,-0.5806147,-0.5769829,-0.5769829,-0.57817316,-0.57454145,-0.57213044,-0.57213044,-0.57576215,-0.57939386,-0.57576215,-0.57213044,-0.5684988,-0.5684988,-0.567278,-0.56120485,-0.5551622,-0.5551622,-0.55757314,-0.5624256,-0.5600146,-0.5551622,-0.55149996,-0.55149996,-0.5551622,-0.5503098,-0.5454573,-0.5406049,-0.5393841,-0.54182565,-0.5393841,-0.5369731,-0.5369731,-0.5406049,-0.54423654,-0.54301584,-0.5406049,-0.5381939,-0.5369731,-0.5321207,-0.51515245,-0.49574268,-0.47999507,-0.47151095,-0.4691,-0.4654683,-0.4593951,-0.45332193,-0.44483775,-0.43031096,-0.402417,-0.36725968,-0.33576465,-0.31635487,-0.30909145,-0.3103122,-0.32242805,-0.3393963,-0.36243778,-0.38422805,-0.40726948,-0.43516344,-0.4654683,-0.49696344,-0.5212256,-0.5321207,-0.5333414,-0.5333414,-0.5321207,-0.5333414,-0.5333414,-0.5369731,-0.5454573,-0.55757314,-0.567278,-0.57090974,-0.57090974,-0.54301584,-0.45332193,-0.28241825,-0.023041427,0.27756584,0.5648365,0.78060246,0.9090854,0.97817934,0.9939269,0.9151586,0.698172,0.32969153,-0.12485123,-0.5393841,-0.80605483,-0.89819026,-0.8751488,-0.8024231,-0.7212134,-0.6436354,-0.5733207,-0.5175634,-0.48243654,-0.47029024,-0.47514266,-0.47999507,-0.47877437,-0.46424758,-0.4460585,-0.43031096,-0.42060608,-0.41212195,-0.39878535,-0.3830378,-0.36725968,-0.35877556,-0.3515122,-0.3381756,-0.3236488,-0.30909145,-0.29575485,-0.283639,-0.26545,-0.24726093,-0.23151338,-0.21695608,-0.20365,-0.18301946,-0.16000855,-0.13574636,-0.11392552,-0.093325555,-0.06909388,-0.04486221,-0.024231672,-0.0024110079,0.018189073,0.046052456,0.07272565,0.09454644,0.11151469,0.124851346,0.1430403,0.15756702,0.16605115,0.16605115,0.15878785,0.15152442,0.1418196,0.12607193,0.10544157,0.07879877,0.055757284,0.0278939,-0.0024110079,-0.036378086,-0.07394636,-0.106662154,-0.14423048,-0.18787193,-0.2387768,-0.2945341,-0.34546953,-0.39393288,-0.44242686,-0.4884792,-0.53453165,-0.57454145,-0.6121097,-0.6484878,-0.68242437,-0.71395,-0.736961,-0.75514996,-0.7721183,-0.7830439,-0.79030734,-0.7878658,-0.7830439,-0.78060246,-0.77819145,-0.77333903,-0.76363415,-0.7490768,-0.736961,-0.7272866,-0.71999264,-0.70909756,-0.698172,-0.68849754,-0.6800134,-0.6727195,-0.66060364,-0.6521195,-0.64726704,-0.64241457,-0.6387829,-0.63029873,-0.62425613,-0.62425613,-0.6278878,-0.6315195,-0.6254463,-0.61940366,-0.6169622,-0.6181829,-0.6218146,-0.6218146,-0.6205939,-0.6218146,-0.6254463,-0.6315195,-0.6315195,-0.6315195,-0.63274026,-0.63393044,-0.63637197,-0.63393044,-0.6315195,-0.63274026,-0.63637197,-0.6400037,-0.63756216,-0.63393044,-0.63029873,-0.62907803,-0.6278878,-0.62425613,-0.6230354,-0.62425613,-0.6266671,-0.6254463,-0.61940366,-0.6121097,-0.6096988,-0.6133305,-0.6181829,-0.61577195,-0.6109195,-0.60606706,-0.6036256,-0.60484636,-0.60121465,-0.5987731,-0.5987731,-0.60121465,-0.60484636,-0.60243535,-0.5987731,-0.5963622,-0.5939512,-0.59273046,-0.5866573,-0.5818049,-0.57939386,-0.5818049,-0.5854671,-0.5830256,-0.57939386,-0.5769829,-0.57454145,-0.5733207,-0.5684988,-0.56483656,-0.5624256,-0.5636463,-0.56483656,-0.5624256,-0.5587939,-0.56120485,-0.5624256,-0.5636463,-0.5600146,-0.5539415,-0.549089,-0.549089,-0.5503098,-0.54786825,-0.54667807,-0.54786825,-0.549089,-0.549089,-0.54423654,-0.5393841,-0.5381939,-0.54182565,-0.5454573,-0.54301584,-0.5406049,-0.5393841,-0.5406049,-0.54301584,-0.5406049,-0.5357524,-0.5321207,-0.5309,-0.5321207,-0.5260475,-0.5187841,-0.5090792,-0.49696344,-0.4860683,-0.47029024,-0.4593951,-0.45576346,-0.4545427,-0.45332193,-0.4412061,-0.42182684,-0.39515364,-0.36725968,-0.34061706,-0.31757557,-0.30787075,-0.31635487,-0.33454394,-0.35395366,-0.3697012,-0.38908046,-0.42182684,-0.4593951,-0.49696344,-0.5187841,-0.5272683,-0.5309,-0.5357524,-0.54301584,-0.54301584,-0.54423654,-0.54786825,-0.55272067,-0.5587939,-0.5624256,-0.5624256,-0.56483656,-0.55757314,-0.5005951,-0.3660695,-0.1503036,0.12726223,0.40971088,0.6424147,0.7987914,0.8812219,0.92364275,0.9090854,0.7866757,0.50907934,0.0884732,-0.3697012,-0.7260659,-0.901822,-0.91152686,-0.84362316,-0.7624134,-0.68727684,-0.6181829,-0.5539415,-0.5054475,-0.48121583,-0.47877437,-0.48362678,-0.47877437,-0.47029024,-0.4593951,-0.4460585,-0.43272197,-0.41575366,-0.39878535,-0.38666952,-0.3781854,-0.3697012,-0.3551439,-0.34061706,-0.32969147,-0.3236488,-0.31879634,-0.3066805,-0.2897122,-0.27271336,-0.25455487,-0.23758662,-0.21576583,-0.19635606,-0.17938781,-0.16364026,-0.14789271,-0.123630464,-0.09939879,-0.07757801,-0.060609758,-0.042420685,-0.018189013,0.008484125,0.035157323,0.056978106,0.076357245,0.096957445,0.11514628,0.124851346,0.124851346,0.11877811,0.1163671,0.11151469,0.10303056,0.0884732,0.06787312,0.048493862,0.0278939,0.003631711,-0.025452435,-0.060609758,-0.093325555,-0.12848294,-0.16968286,-0.21576583,-0.263039,-0.30787075,-0.3527329,-0.40000612,-0.44969022,-0.5018158,-0.54667807,-0.5890988,-0.6315195,-0.6715293,-0.7078768,-0.7357707,-0.7563707,-0.77455974,-0.79152805,-0.80605483,-0.814539,-0.81817067,-0.8193915,-0.81817067,-0.8169805,-0.80968654,-0.8012024,-0.793939,-0.7866756,-0.77697074,-0.7648549,-0.7515183,-0.74059266,-0.7321085,-0.7272866,-0.716361,-0.7078768,-0.7006134,-0.69331944,-0.68727684,-0.6763512,-0.67030853,-0.67030853,-0.675161,-0.6800134,-0.6763512,-0.67030853,-0.66908777,-0.67030853,-0.675161,-0.675161,-0.6715293,-0.67030853,-0.6715293,-0.675161,-0.6727195,-0.67030853,-0.6715293,-0.6763512,-0.68120366,-0.6800134,-0.675161,-0.6739402,-0.6739402,-0.6787927,-0.67757195,-0.675161,-0.675161,-0.6787927,-0.68242437,-0.6787927,-0.6739402,-0.66908777,-0.66908777,-0.6727195,-0.6739402,-0.6727195,-0.67030853,-0.66786706,-0.6666769,-0.66304517,-0.65938294,-0.65697193,-0.65697193,-0.65697193,-0.6521195,-0.6497085,-0.6521195,-0.6557512,-0.6557512,-0.6497085,-0.64241457,-0.63756216,-0.6387829,-0.6400037,-0.63393044,-0.62907803,-0.62907803,-0.6315195,-0.63637197,-0.6315195,-0.6254463,-0.6205939,-0.61940366,-0.6205939,-0.6181829,-0.61577195,-0.6133305,-0.6145512,-0.6133305,-0.6072878,-0.60243535,-0.60243535,-0.6072878,-0.6121097,-0.6109195,-0.60606706,-0.60243535,-0.60121465,-0.6036256,-0.60121465,-0.5987731,-0.5987731,-0.60243535,-0.60484636,-0.60243535,-0.5987731,-0.5951414,-0.5951414,-0.5963622,-0.59273046,-0.590289,-0.5915097,-0.5963622,-0.6036256,-0.60121465,-0.59273046,-0.5769829,-0.55757314,-0.54182565,-0.528489,-0.5224159,-0.5236366,-0.5236366,-0.5224159,-0.5103,-0.49574268,-0.47758418,-0.4545427,-0.42667925,-0.39515364,-0.37455362,-0.3709219,-0.3830378,-0.40363777,-0.41938537,-0.4387951,-0.47029024,-0.50666827,-0.54182565,-0.56483656,-0.5733207,-0.57817316,-0.5854671,-0.59273046,-0.5939512,-0.5939512,-0.5951414,-0.60121465,-0.6096988,-0.6133305,-0.6121097,-0.6109195,-0.6072878,-0.57454145,-0.47758418,-0.3103122,-0.07879877,0.1781671,0.40241718,0.5612049,0.6557512,0.7151402,0.7600025,0.7369609,0.576983,0.24362922,-0.20969266,-0.63274026,-0.9006012,-0.9781793,-0.9321268,-0.8460646,-0.76363415,-0.69331944,-0.6254463,-0.57090974,-0.5369731,-0.5248573,-0.5248573,-0.52000487,-0.5139317,-0.5042573,-0.49455243,-0.48362678,-0.46787924,-0.4545427,-0.44483775,-0.4375744,-0.43031096,-0.4133427,-0.39756465,-0.38181704,-0.3709219,-0.36121708,-0.34665972,-0.33091217,-0.31635487,-0.3030182,-0.2897122,-0.27152318,-0.2521134,-0.23392439,-0.21695608,-0.19998783,-0.17816705,-0.15515614,-0.13455611,-0.117587805,-0.09939879,-0.07394636,-0.046052456,-0.018189013,0.003631711,0.02060008,0.04120004,0.056978106,0.06787312,0.07272565,0.07394636,0.079989076,0.08120978,0.07513654,0.059388995,0.038789034,0.019379258,0.0,-0.023041427,-0.04849392,-0.07879877,-0.106662154,-0.13940853,-0.17816705,-0.22425002,-0.2751549,-0.32120728,-0.3697012,-0.42060608,-0.4739524,-0.5272683,-0.5733207,-0.6169622,-0.65819263,-0.6993927,-0.736961,-0.76363415,-0.7866756,-0.80849636,-0.8278756,-0.84484386,-0.85332805,-0.8557695,-0.8557695,-0.85454875,-0.85332805,-0.8472854,-0.84121215,-0.8375805,-0.832728,-0.82665485,-0.81331825,-0.79879147,-0.7866756,-0.77819145,-0.7721183,-0.76122314,-0.7515183,-0.7442549,-0.7394024,-0.73332924,-0.72243416,-0.7127292,-0.7078768,-0.7078768,-0.70909756,-0.70546585,-0.6993927,-0.69454026,-0.69454026,-0.69576097,-0.69576097,-0.69576097,-0.698172,-0.7018036,-0.7030244,-0.698172,-0.69454026,-0.69331944,-0.698172,-0.7030244,-0.7030244,-0.7018036,-0.7018036,-0.7042451,-0.70546585,-0.7006134,-0.69454026,-0.69331944,-0.698172,-0.70546585,-0.7066561,-0.7030244,-0.6993927,-0.6993927,-0.6993927,-0.69576097,-0.69212925,-0.69090855,-0.69090855,-0.69090855,-0.6848353,-0.68120366,-0.68120366,-0.6836451,-0.6848353,-0.6787927,-0.6727195,-0.66908777,-0.66908777,-0.67030853,-0.6666769,-0.66304517,-0.66304517,-0.66423535,-0.6666769,-0.66304517,-0.65819263,-0.65697193,-0.65938294,-0.6618244,-0.65819263,-0.6521195,-0.64726704,-0.6460463,-0.6484878,-0.6460463,-0.6436354,-0.64241457,-0.6436354,-0.6448561,-0.6400037,-0.63393044,-0.62907803,-0.6266671,-0.6230354,-0.6181829,-0.6169622,-0.61940366,-0.6266671,-0.6315195,-0.6266671,-0.6205939,-0.61577195,-0.61577195,-0.6169622,-0.6121097,-0.60847807,-0.60484636,-0.60484636,-0.60606706,-0.60243535,-0.59999394,-0.5987731,-0.60121465,-0.60243535,-0.59758294,-0.59273046,-0.5915097,-0.59273046,-0.5963622,-0.5915097,-0.5806147,-0.56483656,-0.5503098,-0.5357524,-0.5212256,-0.51274145,-0.5090792,-0.5090792,-0.50666827,-0.49333167,-0.47151095,-0.44483775,-0.41819513,-0.39515364,-0.37696463,-0.3709219,-0.37574387,-0.39030117,-0.40604877,-0.41938537,-0.4375744,-0.4691,-0.50666827,-0.54182565,-0.56483656,-0.5769829,-0.58424634,-0.590289,-0.5939512,-0.5915097,-0.5866573,-0.5854671,-0.590289,-0.59999394,-0.6072878,-0.6133305,-0.61940366,-0.6096988,-0.54423654,-0.39393288,-0.15878779,0.13211453,0.42301702,0.65938294,0.8145391,0.89574885,0.9321269,0.89455855,0.7381817,0.43635368,0.010895133,-0.4315012,-0.76363415,-0.920011,-0.9272744,-0.86303294,-0.7793817,-0.7030244,-0.63274026,-0.57213044,-0.5333414,-0.5212256,-0.5260475,-0.5309,-0.5248573,-0.5103,-0.49455243,-0.48243654,-0.47151095,-0.45698416,-0.4412061,-0.43031096,-0.42301702,-0.41575366,-0.40122682,-0.38666952,-0.37211215,-0.36243778,-0.3527329,-0.3381756,-0.32242805,-0.3066805,-0.29334384,-0.28000736,-0.26059753,-0.24121827,-0.2218085,-0.20484018,-0.1890927,-0.16849267,-0.14423048,-0.11877805,-0.09576702,-0.07394636,-0.04486221,-0.01696825,0.008484125,0.032715917,0.05453658,0.07879877,0.096957445,0.10788298,0.10910368,0.10425115,0.10425115,0.100619555,0.09454644,0.079989076,0.060609818,0.042420745,0.021820784,-0.0036316514,-0.035157323,-0.070314646,-0.10180974,-0.13696712,-0.1757561,-0.2218085,-0.27271336,-0.31879634,-0.36725968,-0.41697437,-0.46787924,-0.5175634,-0.56120485,-0.59999394,-0.63756216,-0.6739402,-0.7078768,-0.73332924,-0.75756097,-0.78060246,-0.8024231,-0.81817067,-0.8218329,-0.8218329,-0.8206122,-0.8193915,-0.81817067,-0.80968654,-0.8012024,-0.7927183,-0.78545487,-0.77697074,-0.7624134,-0.7490768,-0.7394024,-0.7321085,-0.7248451,-0.7115085,-0.698172,-0.6896878,-0.6848353,-0.68120366,-0.6739402,-0.6666769,-0.66060364,-0.65819263,-0.65697193,-0.6521195,-0.6508987,-0.6521195,-0.65819263,-0.6618244,-0.65938294,-0.65819263,-0.65819263,-0.66060364,-0.66304517,-0.65938294,-0.65453047,-0.6533402,-0.65453047,-0.65697193,-0.6533402,-0.6484878,-0.6460463,-0.6460463,-0.6484878,-0.6460463,-0.6448561,-0.6448561,-0.6460463,-0.64726704,-0.6436354,-0.6412244,-0.6412244,-0.6436354,-0.6448561,-0.6400037,-0.63393044,-0.63274026,-0.63393044,-0.63637197,-0.63274026,-0.62907803,-0.6266671,-0.6278878,-0.62907803,-0.6230354,-0.6169622,-0.6121097,-0.6133305,-0.61577195,-0.6133305,-0.6096988,-0.60606706,-0.60484636,-0.60484636,-0.59999394,-0.5939512,-0.5915097,-0.590289,-0.5915097,-0.5866573,-0.58424634,-0.58424634,-0.5854671,-0.587878,-0.5818049,-0.57576215,-0.57213044,-0.5733207,-0.57576215,-0.57454145,-0.57213044,-0.57213044,-0.5733207,-0.57454145,-0.56968904,-0.5636463,-0.5600146,-0.5600146,-0.5624256,-0.5587939,-0.5551622,-0.5539415,-0.5551622,-0.5563524,-0.5539415,-0.5503098,-0.549089,-0.5503098,-0.55149996,-0.549089,-0.5454573,-0.54423654,-0.5454573,-0.54667807,-0.54301584,-0.5406049,-0.5393841,-0.54182565,-0.54423654,-0.5393841,-0.52970976,-0.51515245,-0.4994049,-0.4872585,-0.4739524,-0.46787924,-0.46665847,-0.46787924,-0.46424758,-0.44969022,-0.4278695,-0.40122682,-0.3709219,-0.34546953,-0.32120728,-0.30787075,-0.3115024,-0.3284707,-0.3515122,-0.37333292,-0.39878535,-0.4315012,-0.46787924,-0.5030366,-0.5248573,-0.5357524,-0.54182565,-0.54667807,-0.5503098,-0.5503098,-0.5503098,-0.5551622,-0.5624256,-0.56968904,-0.56968904,-0.5684988,-0.57213044,-0.567278,-0.5175634,-0.38666952,-0.16849267,0.117587805,0.4145329,0.6666769,0.83758044,0.92486346,0.96243167,0.9381695,0.8048341,0.5272682,0.11151469,-0.34424877,-0.7066561,-0.8897061,-0.90908533,-0.8484756,-0.7672658,-0.69212925,-0.6218146,-0.55272067,-0.5042573,-0.48243654,-0.48243654,-0.49092072,-0.4884792,-0.47636342,-0.4606158,-0.4472792,-0.43516344,-0.41938537,-0.40604877,-0.39515364,-0.38666952,-0.3781854,-0.36362803,-0.3491012,-0.33695483,-0.32728046,-0.31998658,-0.30423898,-0.28604996,-0.26908165,-0.2521134,-0.23758662,-0.21695608,-0.19635606,-0.17816705,-0.16000855,-0.14181948,-0.117587805,-0.093325555,-0.070314646,-0.052125573,-0.032715797,-0.0072633624,0.02060008,0.046052456,0.06787312,0.087282896,0.10910368,0.12970364,0.14545119,0.15271461,0.15515614,0.15637684,0.15515614,0.14667201,0.13089395,0.11151469,0.093325615,0.07150483,0.04486227,0.012115836,-0.021820724,-0.05090481,-0.083651245,-0.123630464,-0.17090362,-0.22061831,-0.26789147,-0.31516463,-0.3648488,-0.41938537,-0.4739524,-0.52000487,-0.5624256,-0.6036256,-0.6448561,-0.6848353,-0.7151402,-0.7394024,-0.75756097,-0.77333903,-0.7866756,-0.79515976,-0.8000122,-0.8048341,-0.8048341,-0.8012024,-0.7890866,-0.7793817,-0.7721183,-0.7672658,-0.76363415,-0.75029755,-0.7357707,-0.72362435,-0.71758175,-0.7115085,-0.7018036,-0.69212925,-0.68242437,-0.67757195,-0.675161,-0.6666769,-0.65938294,-0.6533402,-0.6521195,-0.6533402,-0.6508987,-0.6484878,-0.6484878,-0.6497085,-0.6508987,-0.6484878,-0.64726704,-0.6497085,-0.65453047,-0.65938294,-0.6557512,-0.6508987,-0.6497085,-0.6508987,-0.65453047,-0.6533402,-0.6508987,-0.6508987,-0.6533402,-0.65697193,-0.65453047,-0.6508987,-0.6521195,-0.65453047,-0.65697193,-0.65453047,-0.6521195,-0.6484878,-0.64726704,-0.64726704,-0.6436354,-0.6400037,-0.6400037,-0.6412244,-0.6412244,-0.6351512,-0.63029873,-0.6266671,-0.6278878,-0.62907803,-0.6254463,-0.6205939,-0.6181829,-0.6181829,-0.61940366,-0.6121097,-0.60606706,-0.6036256,-0.60484636,-0.6096988,-0.6096988,-0.60606706,-0.60243535,-0.59999394,-0.59999394,-0.5963622,-0.5915097,-0.590289,-0.590289,-0.590289,-0.5854671,-0.5806147,-0.57817316,-0.5806147,-0.5866573,-0.5866573,-0.58424634,-0.5830256,-0.5818049,-0.5830256,-0.5806147,-0.57817316,-0.57817316,-0.5806147,-0.58424634,-0.5818049,-0.5769829,-0.5733207,-0.56968904,-0.567278,-0.56120485,-0.55757314,-0.55757314,-0.56120485,-0.5660573,-0.5636463,-0.5587939,-0.5551622,-0.5551622,-0.55757314,-0.5551622,-0.5503098,-0.5406049,-0.528489,-0.51515245,-0.4994049,-0.49211097,-0.49092072,-0.49211097,-0.49092072,-0.48121583,-0.46787924,-0.4545427,-0.4375744,-0.41575366,-0.38666952,-0.35636467,-0.33332318,-0.3260597,-0.33454394,-0.35395366,-0.39030117,-0.43998533,-0.4860683,-0.5224159,-0.5406049,-0.5454573,-0.54667807,-0.5503098,-0.5551622,-0.5551622,-0.5539415,-0.5563524,-0.5636463,-0.57213044,-0.57817316,-0.5806147,-0.58424634,-0.587878,-0.5660573,-0.47999507,-0.31998658,-0.089693904,0.18060851,0.43272197,0.6205939,0.7357707,0.793939,0.8278756,0.80364394,0.65938294,0.34665978,-0.09817803,-0.5393841,-0.84121215,-0.9515061,-0.92364264,-0.8460646,-0.76848656,-0.69576097,-0.6205939,-0.55149996,-0.5054475,-0.4884792,-0.49092072,-0.49333167,-0.4872585,-0.47514266,-0.4593951,-0.44364756,-0.4254585,-0.41212195,-0.402417,-0.39515364,-0.38789028,-0.3781854,-0.36725968,-0.35636467,-0.34665972,-0.33332318,-0.3127231,-0.29334384,-0.2787866,-0.26545,-0.25092316,-0.23151338,-0.21091342,-0.19150364,-0.1757561,-0.1624195,-0.14059871,-0.11999875,-0.09939879,-0.07879877,-0.056978047,-0.029084146,-0.0024110079,0.023041487,0.04486227,0.06424153,0.087282896,0.106662154,0.11877811,0.124851346,0.12607193,0.12607193,0.123630404,0.1163671,0.10425115,0.0884732,0.07394636,0.055757284,0.0339365,0.008484125,-0.019379258,-0.04727322,-0.08243054,-0.12485123,-0.17212439,-0.22302926,-0.26545,-0.3103122,-0.35877556,-0.409711,-0.4606158,-0.5042573,-0.5454573,-0.5890988,-0.63393044,-0.6739402,-0.7042451,-0.7296976,-0.7515183,-0.77455974,-0.7927183,-0.8000122,-0.8024231,-0.8024231,-0.8048341,-0.80605483,-0.8000122,-0.7927183,-0.7866756,-0.78060246,-0.77455974,-0.76363415,-0.7515183,-0.7430341,-0.736961,-0.7296976,-0.716361,-0.7042451,-0.69698167,-0.69212925,-0.68849754,-0.6787927,-0.66786706,-0.6618244,-0.65938294,-0.6618244,-0.65938294,-0.65938294,-0.66060364,-0.66304517,-0.66423535,-0.66060364,-0.65819263,-0.65938294,-0.66060364,-0.6618244,-0.65697193,-0.65453047,-0.65453047,-0.66060364,-0.66545606,-0.6618244,-0.65697193,-0.6533402,-0.6557512,-0.6618244,-0.6618244,-0.66060364,-0.65938294,-0.65938294,-0.66060364,-0.65819263,-0.65697193,-0.6557512,-0.65819263,-0.66060364,-0.6557512,-0.6508987,-0.64726704,-0.6460463,-0.64726704,-0.6436354,-0.6400037,-0.6387829,-0.6400037,-0.64241457,-0.63756216,-0.63274026,-0.62907803,-0.62907803,-0.62907803,-0.6254463,-0.6205939,-0.6181829,-0.6181829,-0.61940366,-0.61577195,-0.6121097,-0.60847807,-0.6072878,-0.60606706,-0.59999394,-0.5963622,-0.5939512,-0.5963622,-0.59758294,-0.5915097,-0.5866573,-0.58424634,-0.5854671,-0.587878,-0.58424634,-0.5806147,-0.57939386,-0.5818049,-0.58424634,-0.5818049,-0.57817316,-0.5769829,-0.57817316,-0.5818049,-0.57939386,-0.57576215,-0.5733207,-0.56968904,-0.56120485,-0.54667807,-0.5309,-0.5224159,-0.5212256,-0.5236366,-0.5187841,-0.51152074,-0.5018158,-0.49211097,-0.47999507,-0.45576346,-0.4290902,-0.40122682,-0.37696463,-0.36121708,-0.35877556,-0.3709219,-0.40000612,-0.44483775,-0.49211097,-0.5260475,-0.55149996,-0.56483656,-0.57090974,-0.57576215,-0.5769829,-0.57817316,-0.5806147,-0.587878,-0.5963622,-0.59999394,-0.60606706,-0.6121097,-0.6169622,-0.6218146,-0.6109195,-0.5563524,-0.4375744,-0.2497024,-0.0012207627,0.2618183,0.47636342,0.6145513,0.68968785,0.7418134,0.77575004,0.72243416,0.5102999,0.13089395,-0.32969147,-0.71395,-0.92605364,-0.9684744,-0.9139378,-0.8315073,-0.74788654,-0.6715293,-0.6036256,-0.5563524,-0.5309,-0.52000487,-0.5187841,-0.5187841,-0.51515245,-0.50666827,-0.48969996,-0.4739524,-0.4606158,-0.4521317,-0.44483775,-0.4315012,-0.41697437,-0.40485853,-0.39515364,-0.38544875,-0.36848044,-0.35029143,-0.33332318,-0.31998658,-0.30909145,-0.29334384,-0.2763756,-0.25940734,-0.24362928,-0.22788167,-0.20728171,-0.18546093,-0.16486096,-0.14545125,-0.12485123,-0.09817803,-0.07150483,-0.04486221,-0.020599961,0.0024110079,0.029084206,0.05453658,0.07513654,0.089693904,0.09939885,0.110293865,0.117587805,0.1163671,0.10910368,0.09817803,0.087282896,0.07394636,0.05453658,0.029084206,0.0,-0.025452435,-0.053346336,-0.087282896,-0.12970364,-0.1769768,-0.22425002,-0.27393413,-0.32728046,-0.3830378,-0.4375744,-0.48484755,-0.5309,-0.5769829,-0.6230354,-0.67030853,-0.7078768,-0.74059266,-0.7708975,-0.8000122,-0.8242439,-0.84121215,-0.8521073,-0.8605914,-0.8654439,-0.86788535,-0.86303294,-0.85454875,-0.8484756,-0.84362316,-0.8375805,-0.82665485,-0.8157597,-0.8048341,-0.7975707,-0.79030734,-0.77575,-0.76122314,-0.7490768,-0.7394024,-0.73455,-0.7260659,-0.71758175,-0.7127292,-0.70909756,-0.7078768,-0.7018036,-0.69698167,-0.69454026,-0.69454026,-0.69576097,-0.69331944,-0.69090855,-0.6896878,-0.69331944,-0.69698167,-0.69576097,-0.69212925,-0.69090855,-0.69331944,-0.698172,-0.69698167,-0.69454026,-0.69454026,-0.69698167,-0.6993927,-0.69698167,-0.69576097,-0.69454026,-0.69698167,-0.7018036,-0.7006134,-0.698172,-0.69576097,-0.69698167,-0.698172,-0.69454026,-0.69090855,-0.68849754,-0.68849754,-0.68849754,-0.6836451,-0.6787927,-0.6763512,-0.67757195,-0.6787927,-0.6739402,-0.66908777,-0.66786706,-0.67030853,-0.6739402,-0.6727195,-0.66908777,-0.6666769,-0.66545606,-0.66545606,-0.66060364,-0.65697193,-0.6557512,-0.65819263,-0.66060364,-0.6557512,-0.6521195,-0.6508987,-0.6508987,-0.6533402,-0.6460463,-0.6387829,-0.63393044,-0.63393044,-0.63637197,-0.63393044,-0.6315195,-0.6278878,-0.62907803,-0.63029873,-0.6266671,-0.62425613,-0.6230354,-0.6230354,-0.6254463,-0.6230354,-0.61940366,-0.6133305,-0.60121465,-0.5866573,-0.5660573,-0.55149996,-0.54667807,-0.54786825,-0.54786825,-0.54182565,-0.5333414,-0.528489,-0.5224159,-0.5090792,-0.48243654,-0.44849998,-0.4145329,-0.39030117,-0.38422805,-0.39152193,-0.41575366,-0.45698416,-0.5090792,-0.5539415,-0.58424634,-0.60121465,-0.60847807,-0.6145512,-0.6205939,-0.6205939,-0.6205939,-0.62425613,-0.63274026,-0.64241457,-0.6497085,-0.65453047,-0.6557512,-0.65938294,-0.6557512,-0.6036256,-0.48121583,-0.27756584,-0.004852414,0.28727067,0.54786825,0.72847676,0.824244,0.87029636,0.86544394,0.77333903,0.53938425,0.15637684,-0.29819638,-0.69212925,-0.9212012,-0.98303175,-0.9454634,-0.8727378,-0.7927183,-0.7127292,-0.6400037,-0.587878,-0.56483656,-0.56483656,-0.56483656,-0.5624256,-0.5539415,-0.54301584,-0.5309,-0.51515245,-0.4994049,-0.4860683,-0.47514266,-0.46665847,-0.45332193,-0.4387951,-0.42667925,-0.41575366,-0.40363777,-0.38544875,-0.3697012,-0.3551439,-0.34424877,-0.33213294,-0.3115024,-0.29090238,-0.27152318,-0.25455487,-0.23758662,-0.21454507,-0.18787193,-0.16364026,-0.14181948,-0.11999875,-0.09454632,-0.06787312,-0.041199923,-0.01696825,0.008484125,0.036378026,0.063020706,0.08484137,0.096957445,0.10180974,0.106662154,0.106662154,0.10425115,0.09576702,0.08243048,0.06787312,0.048493862,0.024231791,-0.004852414,-0.036378086,-0.06665242,-0.09939879,-0.14059871,-0.18787193,-0.2387768,-0.28604996,-0.33332318,-0.38544875,-0.44483775,-0.5042573,-0.5563524,-0.6036256,-0.6484878,-0.69212925,-0.73332924,-0.7660756,-0.793939,-0.81817067,-0.84121215,-0.8594012,-0.8702963,-0.873928,-0.8751488,-0.87759024,-0.8763695,-0.86910605,-0.8594012,-0.8509171,-0.8460646,-0.83999145,-0.8278756,-0.81212807,-0.7975707,-0.7866756,-0.7793817,-0.76848656,-0.75756097,-0.74788654,-0.7418134,-0.73455,-0.72362435,-0.7127292,-0.70546585,-0.7030244,-0.7042451,-0.7018036,-0.698172,-0.69698167,-0.698172,-0.6993927,-0.69698167,-0.69331944,-0.69212925,-0.69454026,-0.698172,-0.69698167,-0.69454026,-0.69454026,-0.69698167,-0.7006134,-0.698172,-0.69454026,-0.69331944,-0.69454026,-0.69698167,-0.69454026,-0.69212925,-0.69090855,-0.69331944,-0.69576097,-0.69212925,-0.68849754,-0.68727684,-0.68849754,-0.69212925,-0.68727684,-0.68242437,-0.6787927,-0.67757195,-0.6787927,-0.6763512,-0.6727195,-0.6715293,-0.6727195,-0.6727195,-0.6666769,-0.65938294,-0.6557512,-0.65819263,-0.66060364,-0.6557512,-0.6484878,-0.6412244,-0.6387829,-0.6400037,-0.63756216,-0.63393044,-0.63393044,-0.6351512,-0.63637197,-0.6315195,-0.6266671,-0.6254463,-0.6266671,-0.6278878,-0.6254463,-0.6205939,-0.61940366,-0.61940366,-0.6205939,-0.6169622,-0.6121097,-0.6096988,-0.60847807,-0.6096988,-0.60606706,-0.60243535,-0.5987731,-0.5963622,-0.5951414,-0.590289,-0.5866573,-0.587878,-0.5915097,-0.5939512,-0.5915097,-0.5866573,-0.57939386,-0.5684988,-0.5563524,-0.5381939,-0.5224159,-0.51637316,-0.51637316,-0.51637316,-0.5103,-0.5005951,-0.49092072,-0.48243654,-0.46787924,-0.43998533,-0.40726948,-0.37333292,-0.3515122,-0.34665972,-0.35636467,-0.3830378,-0.42182684,-0.47151095,-0.5139317,-0.54182565,-0.56120485,-0.5684988,-0.5733207,-0.5769829,-0.57576215,-0.57576215,-0.57939386,-0.5866573,-0.5951414,-0.59999394,-0.6036256,-0.60847807,-0.61577195,-0.6169622,-0.57817316,-0.47029024,-0.28000736,-0.012115836,0.28727067,0.567278,0.7708976,0.8848537,0.93453777,0.9321269,0.8436233,0.615772,0.23636591,-0.22425002,-0.63274026,-0.8751488,-0.94302195,-0.9042329,-0.8303171,-0.75392926,-0.67757195,-0.60606706,-0.5503098,-0.5212256,-0.51515245,-0.51515245,-0.5139317,-0.50666827,-0.49818414,-0.4860683,-0.47029024,-0.45332193,-0.43998533,-0.4315012,-0.4254585,-0.41212195,-0.39878535,-0.38544875,-0.37455362,-0.36362803,-0.34788042,-0.33091217,-0.31394386,-0.30060732,-0.2884915,-0.2703024,-0.2521134,-0.23514515,-0.22061831,-0.20484018,-0.18182933,-0.15637684,-0.13089389,-0.106662154,-0.08484143,-0.058168292,-0.03030485,-0.0024110079,0.023041487,0.046052456,0.07150483,0.09454644,0.113925695,0.12848294,0.13818789,0.14789271,0.15152442,0.14667201,0.13455606,0.117587805,0.10303056,0.08606231,0.06546223,0.038789034,0.008484125,-0.019379258,-0.049684107,-0.08847314,-0.13574636,-0.18668169,-0.23636585,-0.28604996,-0.33576465,-0.38908046,-0.44364756,-0.49211097,-0.5406049,-0.587878,-0.63393044,-0.6787927,-0.7151402,-0.74666584,-0.77455974,-0.8012024,-0.8218329,-0.832728,-0.83635974,-0.8375805,-0.8375805,-0.8375805,-0.832728,-0.82665485,-0.8206122,-0.8169805,-0.8109073,-0.8000122,-0.7878658,-0.77575,-0.7660756,-0.7563707,-0.7418134,-0.7272866,-0.71758175,-0.7127292,-0.70909756,-0.7006134,-0.69331944,-0.6860561,-0.6836451,-0.68120366,-0.6763512,-0.67030853,-0.66908777,-0.6715293,-0.6739402,-0.6715293,-0.66908777,-0.66786706,-0.67030853,-0.6715293,-0.66908777,-0.66545606,-0.66545606,-0.67030853,-0.6763512,-0.6787927,-0.6787927,-0.6763512,-0.6739402,-0.6715293,-0.66786706,-0.66545606,-0.66786706,-0.6727195,-0.6763512,-0.6763512,-0.6739402,-0.67030853,-0.66908777,-0.66786706,-0.66545606,-0.66304517,-0.6618244,-0.66304517,-0.66423535,-0.65938294,-0.65697193,-0.6557512,-0.65697193,-0.65697193,-0.6508987,-0.6448561,-0.6412244,-0.64241457,-0.6436354,-0.6400037,-0.63274026,-0.6254463,-0.6230354,-0.6230354,-0.61940366,-0.6181829,-0.6169622,-0.61577195,-0.6169622,-0.6109195,-0.6072878,-0.60484636,-0.6072878,-0.6096988,-0.60606706,-0.60243535,-0.5987731,-0.59758294,-0.59758294,-0.5951414,-0.59273046,-0.5939512,-0.5951414,-0.5963622,-0.59273046,-0.5890988,-0.590289,-0.59273046,-0.5939512,-0.587878,-0.57939386,-0.57576215,-0.5769829,-0.5818049,-0.5806147,-0.5769829,-0.57454145,-0.57454145,-0.57454145,-0.567278,-0.5624256,-0.5600146,-0.5600146,-0.5587939,-0.5454573,-0.528489,-0.5139317,-0.50666827,-0.50666827,-0.5018158,-0.49574268,-0.48969996,-0.48362678,-0.47758418,-0.46180606,-0.4375744,-0.40726948,-0.3781854,-0.35029143,-0.3284707,-0.3236488,-0.34061706,-0.37455362,-0.42060608,-0.46302682,-0.49574268,-0.5236366,-0.54182565,-0.55149996,-0.55149996,-0.549089,-0.549089,-0.5539415,-0.5624256,-0.5660573,-0.57090974,-0.57576215,-0.58424634,-0.5890988,-0.5890988,-0.5806147,-0.52970976,-0.41212195,-0.21332431,0.06183052,0.35758543,0.6096988,0.77455974,0.86059153,0.9078646,0.9127171,0.8230232,0.576983,0.17090368,-0.29819638,-0.68849754,-0.9030427,-0.94424266,-0.8872646,-0.8012024,-0.71880245,-0.6448561,-0.5806147,-0.5321207,-0.5005951,-0.4860683,-0.48362678,-0.48121583,-0.4739524,-0.46180606,-0.4472792,-0.43516344,-0.42667925,-0.41819513,-0.40363777,-0.38789028,-0.37333292,-0.36362803,-0.3515122,-0.33576465,-0.31879634,-0.30423898,-0.2945341,-0.28604996,-0.26908165,-0.2497024,-0.23029268,-0.21454507,-0.20120853,-0.18182933,-0.16119874,-0.13818783,-0.11636704,-0.09576702,-0.07150483,-0.04727322,-0.021820724,0.0024110079,0.029084206,0.058168292,0.08484137,0.10544157,0.11999881,0.13333547,0.15030372,0.16241956,0.16968298,0.16727197,0.15878785,0.15271461,0.1418196,0.12607193,0.09939885,0.070314646,0.04486227,0.019379258,-0.008484125,-0.041199923,-0.07757801,-0.117587805,-0.16119874,-0.21213412,-0.26789147,-0.3260597,-0.37574387,-0.42182684,-0.46665847,-0.51274145,-0.5600146,-0.60121465,-0.6400037,-0.675161,-0.7078768,-0.736961,-0.7563707,-0.7721183,-0.78423417,-0.79515976,-0.8012024,-0.7975707,-0.7927183,-0.7878658,-0.7830439,-0.77819145,-0.7648549,-0.75029755,-0.7394024,-0.7321085,-0.7260659,-0.71395,-0.7006134,-0.68727684,-0.68242437,-0.6763512,-0.6666769,-0.65453047,-0.6448561,-0.6400037,-0.6387829,-0.63756216,-0.63393044,-0.6315195,-0.63029873,-0.6278878,-0.6218146,-0.6181829,-0.61577195,-0.61940366,-0.6230354,-0.6230354,-0.6218146,-0.6230354,-0.6266671,-0.62907803,-0.6266671,-0.6205939,-0.61940366,-0.6218146,-0.6254463,-0.62425613,-0.6230354,-0.6230354,-0.6266671,-0.63029873,-0.62907803,-0.6254463,-0.6218146,-0.6254463,-0.62907803,-0.6266671,-0.6230354,-0.6169622,-0.61577195,-0.61577195,-0.6109195,-0.60606706,-0.60243535,-0.60606706,-0.6096988,-0.60847807,-0.60484636,-0.5987731,-0.5987731,-0.5987731,-0.59758294,-0.5939512,-0.5890988,-0.5854671,-0.5806147,-0.57454145,-0.56968904,-0.56968904,-0.5733207,-0.57939386,-0.57576215,-0.57090974,-0.567278,-0.567278,-0.567278,-0.5636463,-0.5563524,-0.5503098,-0.54786825,-0.54786825,-0.5454573,-0.54301584,-0.54182565,-0.54301584,-0.5454573,-0.54301584,-0.5393841,-0.53453165,-0.5369731,-0.5406049,-0.5393841,-0.5381939,-0.5381939,-0.5381939,-0.5406049,-0.5369731,-0.5321207,-0.528489,-0.528489,-0.528489,-0.5175634,-0.5054475,-0.49333167,-0.4860683,-0.48484755,-0.48243654,-0.47636342,-0.47029024,-0.4654683,-0.4593951,-0.4460585,-0.42667925,-0.40122682,-0.37574387,-0.3491012,-0.32120728,-0.30423898,-0.30787075,-0.33332318,-0.37574387,-0.42182684,-0.45817435,-0.48484755,-0.5054475,-0.51515245,-0.5175634,-0.5187841,-0.52000487,-0.5260475,-0.5333414,-0.5357524,-0.5381939,-0.5393841,-0.54423654,-0.54786825,-0.5454573,-0.54182565,-0.5139317,-0.43516344,-0.29090238,-0.07513654,0.1769768,0.40241718,0.5575732,0.6460463,0.6993928,0.75514996,0.7660756,0.6484878,0.35758543,-0.07150483,-0.5054475,-0.8024231,-0.91634876,-0.8897061,-0.8048341,-0.71999264,-0.64726704,-0.5854671,-0.5321207,-0.4884792,-0.4654683,-0.45817435,-0.4606158,-0.46180606,-0.45332193,-0.4387951,-0.42301702,-0.41212195,-0.40363777,-0.39030117,-0.37696463,-0.3648488,-0.35758537,-0.3515122,-0.3381756,-0.324839,-0.30909145,-0.2969756,-0.28485972,-0.26789147,-0.2497024,-0.23273414,-0.21939754,-0.20606095,-0.18668169,-0.16364026,-0.14304024,-0.123630464,-0.10788292,-0.08606213,-0.060609758,-0.03393656,-0.009704888,0.012115836,0.035157323,0.058168292,0.079989076,0.096957445,0.113925695,0.13333547,0.14667201,0.15515614,0.15393531,0.1490829,0.1430403,0.13455606,0.12240982,0.10303056,0.07879877,0.056978106,0.031525612,0.0012207031,-0.032715797,-0.07150483,-0.11151463,-0.15393537,-0.2024293,-0.25696588,-0.3127231,-0.36362803,-0.4133427,-0.46302682,-0.5139317,-0.5624256,-0.60243535,-0.6412244,-0.67757195,-0.7151402,-0.74788654,-0.7708975,-0.7866756,-0.79879147,-0.80968654,-0.81817067,-0.8193915,-0.81817067,-0.8157597,-0.814539,-0.81212807,-0.80364394,-0.79030734,-0.77819145,-0.7708975,-0.7648549,-0.75514996,-0.7430341,-0.7296976,-0.71880245,-0.70909756,-0.69698167,-0.68727684,-0.68120366,-0.67757195,-0.675161,-0.6666769,-0.65819263,-0.6533402,-0.65453047,-0.65697193,-0.6533402,-0.6497085,-0.64726704,-0.6497085,-0.6557512,-0.65697193,-0.6557512,-0.6557512,-0.65938294,-0.66304517,-0.6618244,-0.66060364,-0.65819263,-0.65938294,-0.66304517,-0.6618244,-0.66060364,-0.66304517,-0.66786706,-0.6715293,-0.66908777,-0.6666769,-0.6666769,-0.67030853,-0.6739402,-0.6727195,-0.66786706,-0.66304517,-0.66304517,-0.66545606,-0.66423535,-0.66304517,-0.65938294,-0.65697193,-0.65453047,-0.6484878,-0.6436354,-0.6412244,-0.64241457,-0.6448561,-0.6400037,-0.6351512,-0.6315195,-0.63274026,-0.6351512,-0.63274026,-0.6278878,-0.62425613,-0.62425613,-0.6266671,-0.62425613,-0.6218146,-0.61940366,-0.61940366,-0.6205939,-0.6181829,-0.6145512,-0.6121097,-0.6133305,-0.6145512,-0.6109195,-0.6072878,-0.6036256,-0.60606706,-0.60847807,-0.60484636,-0.5987731,-0.5951414,-0.5963622,-0.59999394,-0.5987731,-0.5951414,-0.5915097,-0.5915097,-0.59273046,-0.5890988,-0.5830256,-0.57090974,-0.55757314,-0.5454573,-0.5309,-0.5224159,-0.52000487,-0.5212256,-0.5212256,-0.51515245,-0.5054475,-0.49333167,-0.48121583,-0.4606158,-0.4315012,-0.40000612,-0.3709219,-0.35877556,-0.36243778,-0.3781854,-0.40485853,-0.44364756,-0.4860683,-0.5236366,-0.54786825,-0.5587939,-0.56120485,-0.56483656,-0.5684988,-0.56968904,-0.56968904,-0.57213044,-0.57817316,-0.5866573,-0.59273046,-0.59758294,-0.60121465,-0.60606706,-0.590289,-0.51515245,-0.36243778,-0.12970364,0.15152442,0.42786956,0.6545305,0.80001223,0.8800012,0.9163487,0.8800012,0.7309183,0.42909014,0.003631711,-0.43516344,-0.76000243,-0.9054537,-0.9103061,-0.8472854,-0.76848656,-0.69454026,-0.6218146,-0.56120485,-0.5224159,-0.51152074,-0.51637316,-0.5175634,-0.51152074,-0.5005951,-0.48969996,-0.47877437,-0.46424758,-0.44969022,-0.43635362,-0.42667925,-0.41697437,-0.40363777,-0.38908046,-0.37455362,-0.36362803,-0.35395366,-0.3381756,-0.32120728,-0.3030182,-0.2884915,-0.2751549,-0.25818658,-0.24121827,-0.22425002,-0.20847195,-0.19272435,-0.16849267,-0.14304024,-0.117587805,-0.09695727,-0.076357305,-0.049684107,-0.021820724,0.0060731173,0.031525612,0.05453658,0.079989076,0.10303056,0.121219516,0.13089395,0.13574636,0.13940859,0.14059877,0.13696706,0.12607193,0.10910368,0.093325615,0.07394636,0.049684167,0.018189073,-0.015747488,-0.04849392,-0.08120978,-0.121219516,-0.16968286,-0.22302926,-0.2751549,-0.32728046,-0.3794061,-0.43635362,-0.49211097,-0.5406049,-0.5854671,-0.6266671,-0.6666769,-0.70546585,-0.736961,-0.7624134,-0.78545487,-0.8072756,-0.8242439,-0.8339488,-0.83635974,-0.835139,-0.83635974,-0.835139,-0.8278756,-0.8169805,-0.80605483,-0.7975707,-0.79152805,-0.7793817,-0.7660756,-0.752739,-0.7442549,-0.736961,-0.7248451,-0.7127292,-0.7006134,-0.69454026,-0.69212925,-0.6848353,-0.6763512,-0.66908777,-0.6666769,-0.6666769,-0.66304517,-0.65938294,-0.6557512,-0.65697193,-0.65938294,-0.65819263,-0.6557512,-0.65453047,-0.65819263,-0.65938294,-0.65697193,-0.6521195,-0.6497085,-0.6533402,-0.65819263,-0.65938294,-0.65697193,-0.6557512,-0.65819263,-0.6618244,-0.66060364,-0.65819263,-0.6557512,-0.65819263,-0.6618244,-0.6618244,-0.66060364,-0.65938294,-0.65938294,-0.65938294,-0.65453047,-0.6484878,-0.6436354,-0.6436354,-0.6448561,-0.6400037,-0.6351512,-0.63274026,-0.63393044,-0.63756216,-0.63637197,-0.6315195,-0.6266671,-0.6266671,-0.6278878,-0.6254463,-0.6205939,-0.6169622,-0.6169622,-0.6181829,-0.61577195,-0.6121097,-0.6096988,-0.6096988,-0.6121097,-0.6096988,-0.60606706,-0.6036256,-0.6036256,-0.60484636,-0.60243535,-0.59758294,-0.59273046,-0.59273046,-0.5939512,-0.5915097,-0.5890988,-0.5854671,-0.5854671,-0.5866573,-0.58424634,-0.5818049,-0.57817316,-0.57939386,-0.57939386,-0.57576215,-0.5733207,-0.57090974,-0.5733207,-0.57576215,-0.5733207,-0.56968904,-0.5660573,-0.5684988,-0.57213044,-0.56968904,-0.56483656,-0.5600146,-0.5600146,-0.56120485,-0.5600146,-0.5600146,-0.56120485,-0.5660573,-0.56968904,-0.5660573,-0.5600146,-0.5539415,-0.5454573,-0.5321207,-0.51515245,-0.4994049,-0.49092072,-0.49092072,-0.49211097,-0.4884792,-0.47877437,-0.4654683,-0.4521317,-0.43272197,-0.40485853,-0.37333292,-0.34788042,-0.33695483,-0.3418073,-0.3551439,-0.37574387,-0.40122682,-0.43635362,-0.4739524,-0.5042573,-0.528489,-0.54423654,-0.5539415,-0.56120485,-0.5624256,-0.5624256,-0.5636463,-0.5684988,-0.57454145,-0.57817316,-0.5806147,-0.5854671,-0.59273046,-0.59999394,-0.5806147,-0.5018158,-0.34302807,-0.104251206,0.18301952,0.47273183,0.7054659,0.8521074,0.92486346,0.94909513,0.89455855,0.71395004,0.3818171,-0.063020706,-0.49696344,-0.79634994,-0.91756946,-0.90908533,-0.8460646,-0.76848656,-0.69090855,-0.61577195,-0.5551622,-0.5224159,-0.51515245,-0.5187841,-0.5212256,-0.51637316,-0.50788903,-0.49696344,-0.48121583,-0.4654683,-0.4521317,-0.44364756,-0.43516344,-0.42301702,-0.40849024,-0.39515364,-0.38666952,-0.3781854,-0.36362803,-0.34424877,-0.324839,-0.3115024,-0.29938656,-0.283639,-0.26422924,-0.24485004,-0.22788167,-0.21091342,-0.19031346,-0.16849267,-0.14423048,-0.123630464,-0.10180974,-0.07513654,-0.04727322,-0.020599961,0.0024110079,0.024231791,0.048493862,0.07394636,0.09576702,0.10910368,0.117587805,0.124851346,0.12970364,0.12970364,0.11999881,0.10544157,0.093325615,0.079989076,0.063020706,0.038789034,0.0097049475,-0.018189013,-0.04849392,-0.08120978,-0.123630464,-0.17090362,-0.21695608,-0.263039,-0.3115024,-0.36362803,-0.41697437,-0.46424758,-0.5103,-0.5563524,-0.60484636,-0.6508987,-0.6896878,-0.7212134,-0.74666584,-0.77333903,-0.79634994,-0.81212807,-0.82302314,-0.8303171,-0.8375805,-0.84121215,-0.8375805,-0.8278756,-0.8169805,-0.80849636,-0.8000122,-0.7878658,-0.77575,-0.7624134,-0.75392926,-0.74666584,-0.7357707,-0.7248451,-0.71395,-0.70546585,-0.698172,-0.68849754,-0.6800134,-0.6727195,-0.6715293,-0.6715293,-0.66908777,-0.66786706,-0.66545606,-0.66786706,-0.6715293,-0.66908777,-0.66545606,-0.66304517,-0.66545606,-0.66908777,-0.66786706,-0.66423535,-0.6618244,-0.66423535,-0.66908777,-0.67030853,-0.67030853,-0.66908777,-0.6727195,-0.6763512,-0.6739402,-0.66908777,-0.66423535,-0.66545606,-0.66908777,-0.67030853,-0.67030853,-0.67030853,-0.6739402,-0.67757195,-0.6763512,-0.6727195,-0.66786706,-0.6666769,-0.66545606,-0.66060364,-0.6557512,-0.6521195,-0.6533402,-0.65453047,-0.6508987,-0.64726704,-0.6436354,-0.6448561,-0.6460463,-0.6436354,-0.6400037,-0.63637197,-0.63637197,-0.6387829,-0.63637197,-0.63393044,-0.6315195,-0.6315195,-0.63274026,-0.6278878,-0.6230354,-0.6181829,-0.6181829,-0.6181829,-0.6169622,-0.6133305,-0.6109195,-0.6133305,-0.6145512,-0.6109195,-0.60606706,-0.60243535,-0.6036256,-0.60606706,-0.60484636,-0.59999394,-0.5951414,-0.5939512,-0.5939512,-0.5915097,-0.5890988,-0.587878,-0.5915097,-0.5951414,-0.5939512,-0.5915097,-0.587878,-0.587878,-0.5890988,-0.5866573,-0.58424634,-0.5818049,-0.58424634,-0.5830256,-0.57939386,-0.57454145,-0.57090974,-0.5733207,-0.5769829,-0.57576215,-0.5733207,-0.567278,-0.567278,-0.5660573,-0.5624256,-0.5624256,-0.5624256,-0.567278,-0.5684988,-0.5563524,-0.5369731,-0.5187841,-0.50788903,-0.5042573,-0.49818414,-0.4884792,-0.47636342,-0.46665847,-0.45576346,-0.4315012,-0.40000612,-0.3660695,-0.34424877,-0.33695483,-0.34302807,-0.35758537,-0.37574387,-0.3963744,-0.41938537,-0.4472792,-0.47758418,-0.50788903,-0.5357524,-0.55272067,-0.55757314,-0.55757314,-0.5587939,-0.56483656,-0.57090974,-0.5733207,-0.5733207,-0.57454145,-0.5818049,-0.5866573,-0.587878,-0.5830256,-0.55272067,-0.4691,-0.3103122,-0.070314646,0.21576583,0.48606825,0.68849766,0.81090736,0.8787805,0.9078646,0.8594012,0.6703086,0.3212074,-0.13089389,-0.55757314,-0.83635974,-0.9381695,-0.91271704,-0.8303171,-0.7418134,-0.6618244,-0.5951414,-0.54301584,-0.5103,-0.49574268,-0.49455243,-0.49818414,-0.49696344,-0.4860683,-0.4691,-0.4521317,-0.4412061,-0.4315012,-0.42060608,-0.40604877,-0.39152193,-0.38181704,-0.3709219,-0.35758537,-0.34302807,-0.32728046,-0.31635487,-0.30909145,-0.2969756,-0.283639,-0.26545,-0.2497024,-0.23151338,-0.20847195,-0.18787193,-0.16849267,-0.15393537,-0.13696712,-0.11514628,-0.087282896,-0.059388995,-0.03756827,-0.01696825,0.0060731173,0.0278939,0.05090487,0.070314646,0.0884732,0.106662154,0.12240982,0.12970364,0.12848294,0.11999881,0.110293865,0.10180974,0.089693904,0.07150483,0.049684167,0.026673198,0.0024110079,-0.023041427,-0.056978047,-0.093325555,-0.13211459,-0.17212439,-0.21213412,-0.25818658,-0.3066805,-0.3527329,-0.39878535,-0.44483775,-0.49574268,-0.54301584,-0.58424634,-0.61940366,-0.6521195,-0.68727684,-0.71999264,-0.74544513,-0.76363415,-0.77575,-0.7878658,-0.7975707,-0.8000122,-0.7975707,-0.79030734,-0.7878658,-0.78423417,-0.77575,-0.7660756,-0.7563707,-0.74788654,-0.7394024,-0.7260659,-0.7115085,-0.698172,-0.69331944,-0.6896878,-0.68242437,-0.6727195,-0.66304517,-0.65697193,-0.6533402,-0.6484878,-0.6436354,-0.63637197,-0.63756216,-0.6387829,-0.63756216,-0.6351512,-0.6315195,-0.6315195,-0.63393044,-0.6351512,-0.6351512,-0.63637197,-0.6387829,-0.6412244,-0.6412244,-0.6400037,-0.6400037,-0.6436354,-0.6460463,-0.6448561,-0.6412244,-0.63756216,-0.6387829,-0.6400037,-0.63756216,-0.63393044,-0.62907803,-0.6315195,-0.63637197,-0.63756216,-0.6351512,-0.63274026,-0.63274026,-0.63274026,-0.63029873,-0.62907803,-0.6278878,-0.6315195,-0.63274026,-0.6278878,-0.6205939,-0.6133305,-0.6133305,-0.61577195,-0.6145512,-0.6096988,-0.60606706,-0.6072878,-0.60606706,-0.6036256,-0.59999394,-0.5963622,-0.59758294,-0.5987731,-0.5963622,-0.5890988,-0.5830256,-0.58424634,-0.5854671,-0.5854671,-0.5830256,-0.5806147,-0.5818049,-0.5830256,-0.57939386,-0.5733207,-0.567278,-0.567278,-0.5684988,-0.567278,-0.5636463,-0.5600146,-0.56120485,-0.5636463,-0.5636463,-0.5624256,-0.5600146,-0.56120485,-0.56120485,-0.5587939,-0.55272067,-0.54786825,-0.54786825,-0.549089,-0.54786825,-0.5454573,-0.54423654,-0.54786825,-0.5503098,-0.549089,-0.54423654,-0.5393841,-0.5381939,-0.5321207,-0.52000487,-0.5054475,-0.49455243,-0.49333167,-0.49455243,-0.48969996,-0.47999507,-0.46665847,-0.45698416,-0.44969022,-0.43272197,-0.40726948,-0.37696463,-0.3515122,-0.33454394,-0.33091217,-0.3393963,-0.35999632,-0.39515364,-0.43998533,-0.47514266,-0.5018158,-0.5187841,-0.5260475,-0.5309,-0.5333414,-0.5321207,-0.5333414,-0.5393841,-0.54786825,-0.55272067,-0.5551622,-0.5587939,-0.5636463,-0.5660573,-0.5636463,-0.5381939,-0.46302682,-0.32969147,-0.13211459,0.10910368,0.33817565,0.5054475,0.60362554,0.65938294,0.71395004,0.7309183,0.62907803,0.3527329,-0.06909388,-0.5018158,-0.8024231,-0.91756946,-0.8933378,-0.8109073,-0.7248451,-0.6484878,-0.5818049,-0.528489,-0.49211097,-0.4739524,-0.46665847,-0.4654683,-0.4654683,-0.46302682,-0.4521317,-0.4387951,-0.4242378,-0.41575366,-0.40726948,-0.39515364,-0.3794061,-0.36362803,-0.3527329,-0.34546953,-0.33576465,-0.3236488,-0.3103122,-0.29819638,-0.28485972,-0.26908165,-0.25092316,-0.23273414,-0.22061831,-0.20847195,-0.19031346,-0.16849267,-0.14423048,-0.12607199,-0.10788292,-0.087282896,-0.06183052,-0.03393656,-0.012115836,0.0097049475,0.031525612,0.053346395,0.07394636,0.0884732,0.100619555,0.11273527,0.12240982,0.12848294,0.12607193,0.11877811,0.110293865,0.09817803,0.08243048,0.056978106,0.030304909,0.0048525333,-0.020599961,-0.04727322,-0.08243054,-0.123630464,-0.16486096,-0.20847195,-0.25455487,-0.30423898,-0.35395366,-0.402417,-0.44969022,-0.49696344,-0.54786825,-0.5951414,-0.63756216,-0.6727195,-0.7030244,-0.73455,-0.76000243,-0.77819145,-0.79152805,-0.8012024,-0.8109073,-0.8169805,-0.8169805,-0.81212807,-0.80605483,-0.8048341,-0.8000122,-0.7890866,-0.77455974,-0.7624134,-0.75756097,-0.75392926,-0.74666584,-0.73332924,-0.71880245,-0.7115085,-0.70546585,-0.698172,-0.68727684,-0.6763512,-0.67030853,-0.66545606,-0.65938294,-0.6533402,-0.64726704,-0.64726704,-0.6484878,-0.6484878,-0.64726704,-0.64726704,-0.65453047,-0.66304517,-0.66545606,-0.66423535,-0.66060364,-0.66060364,-0.6618244,-0.66304517,-0.66304517,-0.66304517,-0.6666769,-0.66908777,-0.66908777,-0.6666769,-0.66545606,-0.67030853,-0.6739402,-0.6727195,-0.66786706,-0.66545606,-0.66786706,-0.67030853,-0.66908777,-0.66304517,-0.65697193,-0.65697193,-0.65819263,-0.65938294,-0.65819263,-0.6557512,-0.6557512,-0.6557512,-0.6533402,-0.6497085,-0.64726704,-0.64726704,-0.64726704,-0.6436354,-0.6387829,-0.63637197,-0.6387829,-0.6412244,-0.6387829,-0.63274026,-0.6266671,-0.6278878,-0.6315195,-0.63274026,-0.62907803,-0.6218146,-0.61940366,-0.61940366,-0.61940366,-0.61577195,-0.6133305,-0.6169622,-0.61940366,-0.61940366,-0.61577195,-0.6109195,-0.6109195,-0.6121097,-0.6096988,-0.6036256,-0.5987731,-0.5987731,-0.60121465,-0.60243535,-0.5987731,-0.5951414,-0.5951414,-0.5963622,-0.59758294,-0.5963622,-0.5939512,-0.5951414,-0.590289,-0.5769829,-0.55757314,-0.5381939,-0.528489,-0.5248573,-0.5224159,-0.5175634,-0.51274145,-0.5103,-0.50666827,-0.49574268,-0.4739524,-0.4472792,-0.42060608,-0.39393288,-0.3709219,-0.35999632,-0.36725968,-0.39756465,-0.4412061,-0.4872585,-0.5236366,-0.55149996,-0.5733207,-0.5854671,-0.587878,-0.58424634,-0.5818049,-0.5854671,-0.59273046,-0.5987731,-0.6036256,-0.6072878,-0.6133305,-0.6169622,-0.6181829,-0.6072878,-0.55272067,-0.43272197,-0.23392439,0.035157323,0.3151647,0.5527208,0.7078769,0.7915281,0.8412123,0.842433,0.7442548,0.4921111,0.100619555,-0.34061706,-0.6993927,-0.8908963,-0.9284951,-0.87759024,-0.79634994,-0.71395,-0.64241457,-0.587878,-0.5503098,-0.52970976,-0.5236366,-0.5224159,-0.5236366,-0.5187841,-0.50666827,-0.48969996,-0.4727317,-0.46180606,-0.44969022,-0.43635362,-0.42060608,-0.40849024,-0.40363777,-0.40122682,-0.39271218,-0.3794061,-0.36362803,-0.35029143,-0.33695483,-0.32120728,-0.3018281,-0.283639,-0.2703024,-0.25455487,-0.23514515,-0.21213412,-0.19031346,-0.17453533,-0.15878779,-0.13818783,-0.11151463,-0.08243054,-0.058168292,-0.035157323,-0.010895133,0.015747666,0.040009856,0.059388995,0.07513654,0.087282896,0.100619555,0.10910368,0.10788298,0.100619555,0.09213543,0.08120978,0.06787312,0.046052456,0.021820784,-0.004852414,-0.03030485,-0.056978047,-0.09213537,-0.13211459,-0.1769768,-0.2218085,-0.26908165,-0.31998658,-0.3697012,-0.41819513,-0.46424758,-0.51152074,-0.5636463,-0.6133305,-0.65819263,-0.69331944,-0.72243416,-0.75392926,-0.7830439,-0.80364394,-0.8169805,-0.8254646,-0.83635974,-0.8460646,-0.8509171,-0.84969634,-0.84484386,-0.84121215,-0.835139,-0.8242439,-0.80968654,-0.79515976,-0.7866756,-0.7793817,-0.76848656,-0.75392926,-0.74059266,-0.73332924,-0.7260659,-0.71758175,-0.7042451,-0.69212925,-0.68849754,-0.68849754,-0.68727684,-0.6848353,-0.6800134,-0.6787927,-0.6787927,-0.67757195,-0.675161,-0.675161,-0.68120366,-0.6860561,-0.6860561,-0.6836451,-0.68120366,-0.6836451,-0.68849754,-0.68849754,-0.6836451,-0.67757195,-0.675161,-0.6739402,-0.6739402,-0.6739402,-0.6739402,-0.6787927,-0.68242437,-0.68242437,-0.6800134,-0.67757195,-0.6787927,-0.68120366,-0.6800134,-0.6763512,-0.6727195,-0.675161,-0.6763512,-0.6763512,-0.6727195,-0.66908777,-0.6715293,-0.6715293,-0.66908777,-0.66304517,-0.65697193,-0.65697193,-0.65819263,-0.6557512,-0.6497085,-0.6436354,-0.6448561,-0.6460463,-0.6448561,-0.6387829,-0.63393044,-0.6351512,-0.63637197,-0.6351512,-0.62907803,-0.62425613,-0.62425613,-0.6230354,-0.6230354,-0.6205939,-0.6169622,-0.6181829,-0.6181829,-0.6133305,-0.6096988,-0.60847807,-0.6133305,-0.6205939,-0.6205939,-0.6133305,-0.60484636,-0.60121465,-0.60121465,-0.60121465,-0.5987731,-0.5963622,-0.59758294,-0.59758294,-0.5951414,-0.590289,-0.5866573,-0.587878,-0.5915097,-0.590289,-0.5866573,-0.5830256,-0.58424634,-0.587878,-0.5854671,-0.5733207,-0.5539415,-0.5381939,-0.5260475,-0.52000487,-0.51637316,-0.51274145,-0.5103,-0.5054475,-0.49818414,-0.4860683,-0.47151095,-0.45332193,-0.43031096,-0.40000612,-0.36725968,-0.34302807,-0.3418073,-0.36121708,-0.3963744,-0.4387951,-0.48243654,-0.52000487,-0.5503098,-0.56968904,-0.5733207,-0.5733207,-0.57576215,-0.57817316,-0.57939386,-0.57939386,-0.5806147,-0.587878,-0.59999394,-0.6109195,-0.6169622,-0.61940366,-0.6109195,-0.54786825,-0.40604877,-0.17816705,0.10910368,0.39637446,0.62907803,0.77938175,0.8569597,0.8908963,0.8557695,0.7090975,0.4145329,-0.0012207627,-0.4387951,-0.7721183,-0.93090606,-0.9418317,-0.8763695,-0.7927183,-0.7151402,-0.64241457,-0.5769829,-0.5309,-0.5103,-0.51274145,-0.5212256,-0.5224159,-0.5103,-0.49211097,-0.47877437,-0.46665847,-0.45576346,-0.44364756,-0.43031096,-0.42060608,-0.41090125,-0.40122682,-0.38789028,-0.37455362,-0.3648488,-0.35636467,-0.34302807,-0.324839,-0.30423898,-0.2884915,-0.27393413,-0.25818658,-0.2387768,-0.21939754,-0.20365,-0.18546093,-0.16486096,-0.13940853,-0.11273533,-0.09091467,-0.06787312,-0.042420685,-0.012115836,0.015747666,0.036378026,0.05453658,0.07394636,0.093325615,0.10910368,0.1163671,0.117587805,0.113925695,0.110293865,0.10303056,0.0884732,0.06909394,0.048493862,0.0278939,0.003631711,-0.026673198,-0.059388995,-0.09454632,-0.12726218,-0.16605121,-0.21332431,-0.26545,-0.31635487,-0.36362803,-0.40726948,-0.45332193,-0.5005951,-0.54667807,-0.5915097,-0.6315195,-0.6727195,-0.71028775,-0.74059266,-0.7624134,-0.78182316,-0.79879147,-0.81331825,-0.82302314,-0.8254646,-0.82665485,-0.82665485,-0.8242439,-0.81817067,-0.80849636,-0.79879147,-0.79515976,-0.7890866,-0.7793817,-0.76363415,-0.74666584,-0.73455,-0.7260659,-0.71758175,-0.70546585,-0.69454026,-0.68849754,-0.6848353,-0.68120366,-0.675161,-0.66786706,-0.6666769,-0.6666769,-0.66545606,-0.6618244,-0.65938294,-0.6618244,-0.66423535,-0.66545606,-0.6618244,-0.66060364,-0.66423535,-0.67030853,-0.6739402,-0.6715293,-0.66786706,-0.66786706,-0.66786706,-0.66908777,-0.6666769,-0.6666769,-0.66908777,-0.66908777,-0.6666769,-0.66060364,-0.65697193,-0.65938294,-0.66423535,-0.66786706,-0.6666769,-0.66423535,-0.66786706,-0.6715293,-0.66908777,-0.6618244,-0.6533402,-0.6497085,-0.6484878,-0.6484878,-0.64241457,-0.63756216,-0.63756216,-0.63756216,-0.6387829,-0.63637197,-0.63393044,-0.63393044,-0.6315195,-0.6266671,-0.6181829,-0.6133305,-0.6133305,-0.6145512,-0.61577195,-0.6109195,-0.60484636,-0.60243535,-0.60243535,-0.60484636,-0.60484636,-0.60121465,-0.60121465,-0.59999394,-0.59758294,-0.5939512,-0.590289,-0.587878,-0.5866573,-0.5866573,-0.58424634,-0.5818049,-0.58424634,-0.5854671,-0.5854671,-0.5818049,-0.5769829,-0.57817316,-0.57817316,-0.57576215,-0.5684988,-0.5624256,-0.5600146,-0.5624256,-0.5636463,-0.5636463,-0.5636463,-0.56483656,-0.56483656,-0.5600146,-0.55272067,-0.549089,-0.5539415,-0.5587939,-0.55757314,-0.54786825,-0.5321207,-0.5175634,-0.5054475,-0.49333167,-0.48484755,-0.48121583,-0.48362678,-0.4860683,-0.48243654,-0.47151095,-0.45698416,-0.4387951,-0.41697437,-0.38789028,-0.35636467,-0.33091217,-0.32242805,-0.33213294,-0.35395366,-0.3830378,-0.42301702,-0.46424758,-0.4994049,-0.5248573,-0.53453165,-0.5393841,-0.54423654,-0.549089,-0.5503098,-0.549089,-0.549089,-0.5551622,-0.56120485,-0.5660573,-0.567278,-0.567278,-0.56968904,-0.54667807,-0.45698416,-0.28485972,-0.032715797,0.25211334,0.51274145,0.6993928,0.80605495,0.8569597,0.87392807,0.81817067,0.63274026,0.2945341,