-0.21676964,-0.20213526,-0.18584418,-0.16958374,-0.15415174,-0.13786066,-0.12080252,-0.10125941,-0.08094919,-0.062234342,-0.049226105,-0.037843764,-0.024804771,-0.009372771,0.0077160597,0.021552682,0.029682994,0.034561157,0.038610816,0.0418936,0.041065216,0.036187172,0.026430845,0.010170579,-0.011796415,-0.040267467,-0.0727883,-0.10776353,-0.14356709,-0.18259215,-0.22489983,-0.26717693,-0.30540425,-0.33795577,-0.36480075,-0.39001977,-0.4144104,-0.4347512,-0.45180935,-0.46484834,-0.47297853,-0.47865433,-0.47865433,-0.47297853,-0.46727204,-0.46564603,-0.46484834,-0.46484834,-0.46322232,-0.45831347,-0.45588976,-0.45263773,-0.44855726,-0.44450748,-0.44205308,-0.44288146,-0.4412554,-0.43800336,-0.4298731,-0.42336893,-0.42091453,-0.4200862,-0.42171222,-0.41928852,-0.41603643,-0.4152081,-0.41846013,-0.42336893,-0.42904478,-0.4347512,-0.43962938,-0.44042706,-0.438801,-0.4339229,-0.4306708,-0.43149918,-0.4347512,-0.43800336,-0.43800336,-0.43800336,-0.44288146,-0.44855726,-0.45101166,-0.44938564,-0.4461335,-0.44450748,-0.44775957,-0.45018333,-0.44938564,-0.44530517,-0.44205308,-0.44205308,-0.44288146,-0.44530517,-0.44775957,-0.45180935,-0.45588976,-0.45751584,-0.45831347,-0.45506144,-0.45343536,-0.45263773,-0.45343536,-0.45343536,-0.45668745,-0.46159625,-0.46810043,-0.47135252,-0.46972644,-0.46564603,-0.46322232,-0.46402,-0.46727204,-0.4705242,-0.4705242,-0.47135252,-0.46972644,-0.46972644,-0.4705242,-0.4721502,-0.47135252,-0.46972644,-0.46889812,-0.46972644,-0.47135252,-0.4754023,-0.4746046,-0.4705242,-0.46727204,-0.46402,-0.46239394,-0.45914185,-0.45018333,-0.43800336,-0.42662102,-0.41846013,-0.41683412,-0.4225406,-0.42336893,-0.41846013,-0.40302813,-0.37943518,-0.35341847,-0.3363297,-0.32982558,-0.33470368,-0.3420055,-0.35096407,-0.36234635,-0.3818589,-0.40953225,-0.44042706,-0.4705242,-0.49249107,-0.5103775,-0.5266379,-0.542929,-0.55836105,-0.5729954,-0.5860344,-0.5941646,-0.5990428,-0.5990428,-0.59741676,-0.59741676,-0.60392094,-0.6120511,-0.6128488,-0.60309255,-0.5697434,-0.50307566,-0.3843133,-0.21026552,0.014220238,0.26067293,0.46727216,0.58275187,0.5754192,0.43067098,0.15574718,-0.19075298,-0.542929,-0.81944805,-0.97073126,-1.0,-0.9503904,-0.87801623,-0.81294394,-0.76250595,-0.72348094,-0.6933838,-0.671417,-0.65840864,-0.65027845,-0.6454003,-0.6413199,-0.6364417,-0.6307659,-0.6226357,-0.61122274,-0.6014665,-0.5933363,-0.5884582,-0.58115625,-0.5721978,-0.56161314,-0.55105925,-0.542929,-0.5363941,-0.52989,-0.5242142,-0.5185077,-0.51362956,-0.5095798,-0.50307566,-0.49654078,-0.4876129,-0.4746046,-0.45914185,-0.4436791,-0.4282471,-0.4152081,-0.40545183,-0.39652395,-0.38756537,-0.3786068,-0.36642683,-0.34854037,-0.3265735,-0.30215222,-0.28263968,-0.26637924,-0.25337088,-0.23548448,-0.21514362,-0.19400513,-0.1744619,-0.15820146,-0.14436477,-0.13298249,-0.122428596,-0.1142984,-0.10696584,-0.10046172,-0.09720963,-0.099633396,-0.106137514,-0.1142984,-0.12568069,-0.14356709,-0.17041218,-0.20781112,-0.24849284,-0.28589177,-0.32006925,-0.35341847,-0.3867677,-0.4225406,-0.45588976,-0.4884106,-0.51362956,-0.5307183,-0.5413029,-0.54455507,-0.54780716,-0.55268526,-0.55836105,-0.56161314,-0.5599871,-0.55268526,-0.54697883,-0.54210067,-0.5396769,-0.5363941,-0.5307183,-0.5266379,-0.5233859,-0.52013373,-0.51362956,-0.50549936,-0.49736917,-0.490865,-0.4884106,-0.4851585,-0.4827348,-0.4802804,-0.47865433,-0.4770283,-0.4746046,-0.47297853,-0.47297853,-0.47297853,-0.4721502,-0.4705242,-0.46972644,-0.4705242,-0.47297853,-0.47377622,-0.4721502,-0.47135252,-0.4721502,-0.4754023,-0.4770283,-0.4778567,-0.4778567,-0.4778567,-0.47623062,-0.47297853,-0.46727204,-0.46402,-0.46402,-0.46564603,-0.4664744,-0.46484834,-0.46322232,-0.46159625,-0.45993954,-0.45751584,-0.45426375,-0.45263773,-0.45426375,-0.45668745,-0.45588976,-0.45180935,-0.4461335,-0.4436791,-0.44288146,-0.44288146,-0.4412554,-0.43717498,-0.43554896,-0.43554896,-0.4363773,-0.4363773,-0.43554896,-0.4347512,-0.4339229,-0.4298731,-0.4200862,-0.40545183,-0.38919145,-0.37698072,-0.3704766,-0.3696789,-0.3737287,-0.37698072,-0.3704766,-0.35504454,-0.33062327,-0.30868697,-0.29810238,-0.29810238,-0.30298054,-0.30377823,-0.29890013,-0.29972845,-0.31193912,-0.33470368,-0.36317474,-0.3883937,-0.40870392,-0.42416668,-0.43717498,-0.44530517,-0.45018333,-0.45180935,-0.45343536,-0.45426375,-0.45343536,-0.44938564,-0.44450748,-0.44042706,-0.44205308,-0.44288146,-0.4412554,-0.43149918,-0.39569557,-0.3233214,-0.20130694,-0.027259171,0.18747032,0.42008638,0.6185247,0.73566103,0.74379134,0.6226052,0.37940454,0.06545591,-0.2631272,-0.5380202,-0.70884657,-0.76496035,-0.7381153,-0.6738714,-0.6063446,-0.5518569,-0.5103775,-0.4802804,-0.46076792,-0.45263773,-0.45263773,-0.45343536,-0.44775957,-0.43717498,-0.42336893,-0.41195595,-0.40545183,-0.40219975,-0.39814997,-0.39244348,-0.38756537,-0.3834849,-0.37943518,-0.372931,-0.36317474,-0.35341847,-0.34283394,-0.33387536,-0.3281995,-0.3233214,-0.31924093,-0.31436282,-0.30785865,-0.29810238,-0.28751785,-0.27858996,-0.26963133,-0.2615012,-0.25091648,-0.23790824,-0.22327387,-0.2086395,-0.19400513,-0.17771399,-0.16228193,-0.14681917,-0.13055885,-0.111844,-0.08987707,-0.067112505,-0.045974016,-0.027259171,-0.009372771,0.0077160597,0.02480483,0.041065216,0.055699587,0.06791031,0.07846415,0.0841707,0.0866251,0.08742273,0.084999084,0.080090284,0.06708193,0.04514575,0.015846252,-0.017502904,-0.05085206,-0.08582735,-0.123226285,-0.16228193,-0.20213526,-0.24036258,-0.2737118,-0.30298054,-0.3281995,-0.35016644,-0.36642683,-0.38023287,-0.39406955,-0.40628016,-0.4152081,-0.41766244,-0.4144104,-0.40870392,-0.40545183,-0.40382576,-0.40140206,-0.39814997,-0.39489788,-0.3908174,-0.3867677,-0.38268727,-0.37698072,-0.372931,-0.3704766,-0.3680529,-0.36559844,-0.36397243,-0.36317474,-0.36154872,-0.35829663,-0.35179245,-0.34528828,-0.3420055,-0.3444599,-0.34854037,-0.35096407,-0.35179245,-0.35179245,-0.35096407,-0.35096407,-0.35179245,-0.35584223,-0.35909432,-0.36234635,-0.36317474,-0.36154872,-0.36154872,-0.36234635,-0.36397243,-0.36642683,-0.36559844,-0.36480075,-0.36559844,-0.3672245,-0.3680529,-0.3688506,-0.3688506,-0.3688506,-0.3696789,-0.37130493,-0.3688506,-0.36559844,-0.36317474,-0.36234635,-0.36154872,-0.36154872,-0.35909432,-0.35584223,-0.35584223,-0.35667062,-0.35746825,-0.35909432,-0.35909432,-0.35909432,-0.35909432,-0.35909432,-0.35909432,-0.36154872,-0.36234635,-0.36154872,-0.35667062,-0.35259014,-0.35096407,-0.35341847,-0.35667062,-0.35667062,-0.35341847,-0.34933805,-0.3444599,-0.33795577,-0.3281995,-0.31681722,-0.30868697,-0.30215222,-0.29972845,-0.29972845,-0.29402196,-0.28021592,-0.25742072,-0.22977799,-0.20701343,-0.19805485,-0.20376134,-0.21431524,-0.22244549,-0.22732359,-0.23548448,-0.25091648,-0.27208573,-0.29159826,-0.30706102,-0.31924093,-0.3363297,-0.35504454,-0.3704766,-0.3786068,-0.38023287,-0.37943518,-0.3786068,-0.38023287,-0.37943518,-0.37943518,-0.38023287,-0.3810612,-0.3834849,-0.3778091,-0.36480075,-0.3281995,-0.25742072,-0.14031506,0.029682994,0.24033213,0.47457397,0.68442535,0.8218719,0.85604954,0.7567996,0.5250119,0.2061851,-0.14111274,-0.44042706,-0.6315636,-0.70396847,-0.6860513,-0.62343335,-0.5534829,-0.49491477,-0.45343536,-0.4257927,-0.41115832,-0.40382576,-0.40057373,-0.39814997,-0.39569557,-0.3916458,-0.3810612,-0.3688506,-0.35667062,-0.34933805,-0.34528828,-0.3420055,-0.3371274,-0.33062327,-0.3233214,-0.31681722,-0.30948466,-0.30135453,-0.2948503,-0.28997225,-0.28751785,-0.2810136,-0.27288342,-0.2631272,-0.25337088,-0.24524075,-0.23790824,-0.22977799,-0.22081947,-0.21106315,-0.20050925,-0.18909627,-0.17934006,-0.16878611,-0.15820146,-0.14519316,-0.12568069,-0.10451144,-0.08337295,-0.06386042,-0.046771586,-0.028885186,-0.010170341,0.009342074,0.026430845,0.0418936,0.056527972,0.06953633,0.081746936,0.09312928,0.10368323,0.114267826,0.12239802,0.12647843,0.12647843,0.12239802,0.114267826,0.09800744,0.07358611,0.04269135,0.006090045,-0.03051126,-0.06953627,-0.11021793,-0.15169734,-0.19075298,-0.22327387,-0.25091648,-0.2737118,-0.2948503,-0.31356514,-0.3289972,-0.3395818,-0.34691435,-0.35179245,-0.35341847,-0.35341847,-0.35179245,-0.35096407,-0.35179245,-0.35096407,-0.34771204,-0.34283394,-0.33550137,-0.33062327,-0.32737118,-0.3241191,-0.32169533,-0.31924093,-0.3159889,-0.3127368,-0.30706102,-0.30215222,-0.29972845,-0.30052614,-0.30298054,-0.30298054,-0.30052614,-0.29564798,-0.2923959,-0.2923959,-0.29322428,-0.29564798,-0.29810238,-0.29972845,-0.30215222,-0.30298054,-0.30460662,-0.30540425,-0.30540425,-0.30377823,-0.29972845,-0.29727405,-0.29727405,-0.30052614,-0.30377823,-0.30460662,-0.30540425,-0.30706102,-0.31193912,-0.31436282,-0.3127368,-0.30785865,-0.30135453,-0.29890013,-0.29890013,-0.29972845,-0.29972845,-0.29972845,-0.30215222,-0.30460662,-0.30540425,-0.30540425,-0.30540425,-0.30377823,-0.30298054,-0.29890013,-0.29564798,-0.29402196,-0.2948503,-0.29727405,-0.29647636,-0.29564798,-0.29564798,-0.29810238,-0.29972845,-0.29647636,-0.29076988,-0.283468,-0.27858996,-0.2793876,-0.28021592,-0.281842,-0.281842,-0.28263968,-0.28263968,-0.2810136,-0.28021592,-0.2793876,-0.2769639,-0.2745095,-0.26883364,-0.2615012,-0.25337088,-0.24441236,-0.23385847,-0.2216478,-0.21431524,-0.21189159,-0.21431524,-0.21514362,-0.2061851,-0.18259215,-0.14924294,-0.122428596,-0.1093896,-0.111844,-0.12405461,-0.13460857,-0.14031506,-0.14681917,-0.16065586,-0.18342042,-0.20943707,-0.23548448,-0.25416863,-0.26717693,-0.27858996,-0.28751785,-0.29810238,-0.30540425,-0.30785865,-0.30706102,-0.30540425,-0.30623257,-0.31031305,-0.31356514,-0.3159889,-0.31681722,-0.31031305,-0.29727405,-0.2680053,-0.20701343,-0.10696584,0.04594338,0.24766457,0.4859563,0.7161486,0.88206613,0.9455123,0.8763596,0.6657107,0.35421634,-0.0020402074,-0.33145165,-0.5575634,-0.6535305,-0.6454003,-0.58358,-0.51445794,-0.45751584,-0.41358203,-0.3786068,-0.35341847,-0.3395818,-0.3363297,-0.33470368,-0.33145165,-0.3257451,-0.31761497,-0.31031305,-0.30460662,-0.30052614,-0.29564798,-0.29076988,-0.28509408,-0.27776158,-0.2712574,-0.26475316,-0.2606728,-0.25499696,-0.24849284,-0.24278635,-0.23790824,-0.23303008,-0.2265259,-0.21839571,-0.21026552,-0.20376134,-0.19968086,-0.19480282,-0.18584418,-0.1744619,-0.1647057,-0.15577781,-0.14681917,-0.13543689,-0.12160021,-0.10696584,-0.09312916,-0.07849479,-0.060608268,-0.04189354,-0.023178697,-0.0069182515,0.009342074,0.029682994,0.051649928,0.07033396,0.0841707,0.09475529,0.10530925,0.11669147,0.12565005,0.13052821,0.1313566,0.13298261,0.13460863,0.13540637,0.13215423,0.119974256,0.10125947,0.076838136,0.04514575,0.009342074,-0.027259171,-0.06548643,-0.10451144,-0.14273876,-0.18421811,-0.2216478,-0.25579464,-0.283468,-0.30540425,-0.32249302,-0.3371274,-0.34771204,-0.35584223,-0.36234635,-0.3680529,-0.372931,-0.3704766,-0.36397243,-0.35584223,-0.34933805,-0.34691435,-0.34691435,-0.34771204,-0.34771204,-0.34691435,-0.34283394,-0.33470368,-0.32494742,-0.3159889,-0.31193912,-0.31193912,-0.31193912,-0.31193912,-0.31111073,-0.31193912,-0.3151912,-0.3184433,-0.32006925,-0.31681722,-0.31436282,-0.31031305,-0.31111073,-0.3151912,-0.31924093,-0.3233214,-0.3265735,-0.3265735,-0.3289972,-0.33145165,-0.33470368,-0.33387536,-0.3289972,-0.32494742,-0.3257451,-0.3289972,-0.33470368,-0.3371274,-0.3371274,-0.3395818,-0.3420055,-0.3395818,-0.33387536,-0.3281995,-0.32494742,-0.3281995,-0.33307767,-0.33470368,-0.33387536,-0.33145165,-0.33062327,-0.33307767,-0.33224922,-0.33062327,-0.3281995,-0.3265735,-0.3265735,-0.3257451,-0.3233214,-0.32169533,-0.32169533,-0.3233214,-0.3241191,-0.32086694,-0.3151912,-0.31031305,-0.30540425,-0.30298054,-0.30135453,-0.30215222,-0.30460662,-0.30868697,-0.31193912,-0.31356514,-0.31356514,-0.3127368,-0.30540425,-0.29322428,-0.2769639,-0.26229888,-0.25416863,-0.25174493,-0.25091648,-0.25091648,-0.24686676,-0.23548448,-0.21431524,-0.19075298,-0.17283589,-0.16633171,-0.17283589,-0.18259215,-0.18667257,-0.18909627,-0.19480282,-0.20781112,-0.22894967,-0.25174493,-0.2745095,-0.2923959,-0.30785865,-0.31924093,-0.3257451,-0.32982558,-0.33224922,-0.33470368,-0.33795577,-0.34037948,-0.33795577,-0.33224922,-0.3281995,-0.3281995,-0.33145165,-0.3289972,-0.32169533,-0.29727405,-0.24441236,-0.14761686,0.0069184303,0.21511304,0.4583137,0.68605137,0.84463644,0.89344835,0.8137417,0.5965885,0.28263974,-0.067112505,-0.38514167,-0.6022949,-0.69500995,-0.6844253,-0.6210097,-0.5461811,-0.4851585,-0.43962938,-0.40628016,-0.3843133,-0.37130493,-0.36397243,-0.35992265,-0.35421622,-0.34608597,-0.3395818,-0.33387536,-0.3281995,-0.32494742,-0.32006925,-0.3151912,-0.31031305,-0.30540425,-0.29647636,-0.28672016,-0.27776158,-0.2704597,-0.26717693,-0.26717693,-0.26717693,-0.2615012,-0.25337088,-0.24361467,-0.23548448,-0.23140407,-0.22732359,-0.22081947,-0.21106315,-0.19805485,-0.18584418,-0.17608798,-0.16878611,-0.16307962,-0.15332341,-0.13786066,-0.11834812,-0.09800732,-0.08012086,-0.06303203,-0.04514557,-0.026430786,-0.0077466965,0.0077160597,0.02235055,0.04023695,0.06057775,0.079292536,0.09312928,0.10205722,0.10938966,0.11589384,0.123226404,0.12402403,0.120772004,0.114267826,0.10530925,0.09230089,0.07116234,0.044317245,0.013422489,-0.023178697,-0.06303203,-0.10776353,-0.15415174,-0.19563115,-0.23060638,-0.25824904,-0.283468,-0.30540425,-0.3265735,-0.34528828,-0.36072034,-0.37130493,-0.3778091,-0.3818589,-0.3843133,-0.3834849,-0.38023287,-0.37455702,-0.3688506,-0.36642683,-0.36642683,-0.3680529,-0.36480075,-0.35909432,-0.35341847,-0.34933805,-0.34933805,-0.34691435,-0.3420055,-0.33470368,-0.3265735,-0.3233214,-0.3233214,-0.32086694,-0.3184433,-0.32006925,-0.32494742,-0.33062327,-0.33224922,-0.32737118,-0.32249302,-0.32086694,-0.32494742,-0.3289972,-0.33145165,-0.33145165,-0.33387536,-0.3371274,-0.34037948,-0.3420055,-0.34120786,-0.34037948,-0.34037948,-0.33875346,-0.33795577,-0.33875346,-0.34120786,-0.34283394,-0.34283394,-0.34528828,-0.34691435,-0.34771204,-0.34608597,-0.3420055,-0.3363297,-0.33387536,-0.3371274,-0.3420055,-0.34283394,-0.34037948,-0.33550137,-0.33224922,-0.33062327,-0.33062327,-0.33145165,-0.33145165,-0.33062327,-0.3281995,-0.3241191,-0.32169533,-0.32086694,-0.32249302,-0.32086694,-0.31761497,-0.3127368,-0.30785865,-0.30460662,-0.30135453,-0.29402196,-0.281842,-0.2680053,-0.25662303,-0.2501189,-0.24929047,-0.24929047,-0.24603844,-0.2395342,-0.23140407,-0.2240715,-0.22081947,-0.2191934,-0.21594131,-0.20943707,-0.2061851,-0.20943707,-0.22569752,-0.24849284,-0.2712574,-0.28914386,-0.30215222,-0.3151912,-0.33062327,-0.34283394,-0.35016644,-0.34854037,-0.3444599,-0.34120786,-0.3395818,-0.3395818,-0.33875346,-0.3395818,-0.34363157,-0.34608597,-0.34120786,-0.3241191,-0.28751785,-0.22002178,-0.111844,0.04839778,0.25334036,0.4859563,0.6966053,0.8316281,0.8600992,0.7584256,0.52663803,0.21431541,-0.12160021,-0.41278434,-0.5982144,-0.66816485,-0.65027845,-0.5884582,-0.52013373,-0.46322232,-0.42091453,-0.39406955,-0.37943518,-0.3737287,-0.37130493,-0.36480075,-0.35829663,-0.34933805,-0.3420055,-0.33387536,-0.32737118,-0.32169533,-0.31681722,-0.31111073,-0.30460662,-0.29890013,-0.29402196,-0.28997225,-0.28509408,-0.27858996,-0.27288342,-0.26883364,-0.2655509,-0.2606728,-0.25416863,-0.24766445,-0.24278635,-0.23711056,-0.22977799,-0.22002178,-0.20701343,-0.19563115,-0.1850465,-0.17529029,-0.16633171,-0.15577781,-0.14436477,-0.1297304,-0.11347008,-0.09558356,-0.08012086,-0.06628412,-0.050023735,-0.029682875,-0.005292237,0.019926667,0.037813187,0.050023913,0.061406016,0.07278848,0.084999084,0.09555304,0.10368323,0.11018741,0.115065455,0.11914587,0.11914587,0.115065455,0.10530925,0.08742273,0.06057775,0.027228594,-0.0109987855,-0.050023735,-0.088250995,-0.12647831,-0.16633171,-0.20376134,-0.23711056,-0.2655509,-0.28997225,-0.31111073,-0.32982558,-0.34363157,-0.35179245,-0.35909432,-0.36480075,-0.3704766,-0.372931,-0.37130493,-0.3680529,-0.36480075,-0.36234635,-0.36072034,-0.35667062,-0.35179245,-0.34771204,-0.3420055,-0.3363297,-0.33145165,-0.3265735,-0.3257451,-0.3257451,-0.32494742,-0.32006925,-0.31356514,-0.30868697,-0.30460662,-0.30298054,-0.30215222,-0.30135453,-0.30215222,-0.30215222,-0.30298054,-0.30298054,-0.30052614,-0.29972845,-0.29972845,-0.30052614,-0.30135453,-0.30377823,-0.30785865,-0.31193912,-0.31356514,-0.3151912,-0.3159889,-0.32006925,-0.3233214,-0.32494742,-0.32249302,-0.3184433,-0.31681722,-0.31436282,-0.31356514,-0.31111073,-0.30785865,-0.30948466,-0.31193912,-0.31436282,-0.31436282,-0.31436282,-0.31681722,-0.31924093,-0.32006925,-0.31681722,-0.31031305,-0.30377823,-0.29972845,-0.29972845,-0.29972845,-0.30052614,-0.30298054,-0.30377823,-0.30215222,-0.29890013,-0.29564798,-0.2948503,-0.29564798,-0.2948503,-0.29076988,-0.28672016,-0.283468,-0.281842,-0.27776158,-0.2704597,-0.2615012,-0.25337088,-0.24686676,-0.2419886,-0.23548448,-0.22815192,-0.22244549,-0.21756738,-0.21351755,-0.2061851,-0.19725722,-0.18667257,-0.17934006,-0.17529029,-0.17366421,-0.17366421,-0.17771399,-0.18584418,-0.20050925,-0.2191934,-0.23790824,-0.25662303,-0.2745095,-0.28997225,-0.30215222,-0.31031305,-0.31436282,-0.31436282,-0.31356514,-0.31031305,-0.30540425,-0.30215222,-0.29972845,-0.30052614,-0.30623257,-0.30868697,-0.30785865,-0.29159826,-0.24441236,-0.15740377,-0.019926667,0.16387737,0.3842827,0.6144749,0.8047831,0.9145869,0.91216326,0.77388835,0.5144273,0.18421817,-0.15577781,-0.42904478,-0.58683217,-0.6291399,-0.59171027,-0.5242142,-0.45993954,-0.40870392,-0.372931,-0.34933805,-0.3363297,-0.33307767,-0.33145165,-0.3281995,-0.32169533,-0.3151912,-0.31031305,-0.30540425,-0.30052614,-0.2948503,-0.28751785,-0.281842,-0.27613556,-0.2712574,-0.26637924,-0.2606728,-0.25499696,-0.24849284,-0.2419886,-0.23628217,-0.23060638,-0.22569752,-0.22002178,-0.21594131,-0.21026552,-0.20538735,-0.19968086,-0.19075298,-0.17854238,-0.16553402,-0.15332341,-0.14436477,-0.13543689,-0.123226285,-0.1093896,-0.09475523,-0.08012086,-0.064658105,-0.04760003,-0.027259171,-0.0028685331,0.020724416,0.043519616,0.062203884,0.07846415,0.09150326,0.102885485,0.115065455,0.12647843,0.13948679,0.15086913,0.15820158,0.16307974,0.1655035,0.16387737,0.15574718,0.1411128,0.120772004,0.09555304,0.06791031,0.032935143,-0.0077466965,-0.050023735,-0.09150308,-0.12730676,-0.1614536,-0.19563115,-0.22732359,-0.25742072,-0.28021592,-0.2948503,-0.30460662,-0.30868697,-0.31193912,-0.31681722,-0.32169533,-0.32737118,-0.33062327,-0.33062327,-0.32737118,-0.3233214,-0.32169533,-0.32086694,-0.32006925,-0.31924093,-0.31681722,-0.31193912,-0.30377823,-0.29564798,-0.28834617,-0.2842657,-0.283468,-0.2842657,-0.2842657,-0.28263968,-0.28021592,-0.27858996,-0.2769639,-0.27533787,-0.27288342,-0.2712574,-0.2704597,-0.2680053,-0.26717693,-0.2655509,-0.26637924,-0.26963133,-0.2712574,-0.27208573,-0.27288342,-0.2737118,-0.2769639,-0.28021592,-0.283468,-0.28589177,-0.28509408,-0.28509408,-0.28263968,-0.28021592,-0.28021592,-0.283468,-0.28751785,-0.29159826,-0.2923959,-0.28997225,-0.28834617,-0.28834617,-0.28834617,-0.28914386,-0.28672016,-0.28509408,-0.28509408,-0.2842657,-0.28263968,-0.2793876,-0.2769639,-0.2769639,-0.27858996,-0.28021592,-0.27858996,-0.27613556,-0.27533787,-0.27533787,-0.2769639,-0.2769639,-0.27613556,-0.2745095,-0.2712574,-0.2680053,-0.2631272,-0.2615012,-0.26229888,-0.26475316,-0.26717693,-0.26637924,-0.26475316,-0.26392484,-0.26392484,-0.26637924,-0.2680053,-0.26883364,-0.2680053,-0.2655509,-0.2631272,-0.2606728,-0.25904673,-0.25579464,-0.25091648,-0.24278635,-0.23140407,-0.22002178,-0.21189159,-0.20781112,-0.20943707,-0.20781112,-0.19642884,-0.17529029,-0.14844525,-0.12893277,-0.123226285,-0.13055885,-0.14194107,-0.14844525,-0.15007132,-0.15494943,-0.17041218,-0.19400513,-0.21756738,-0.23711056,-0.2501189,-0.2631272,-0.27858996,-0.2948503,-0.30460662,-0.30868697,-0.30623257,-0.30377823,-0.30215222,-0.30298054,-0.30377823,-0.30460662,-0.30623257,-0.30785865,-0.30377823,-0.2923959,-0.25987512,-0.19317675,-0.081746876,0.081746936,0.28914392,0.52175987,0.73483264,0.88206613,0.9333017,0.8584732,0.6486218,0.34117723,-0.010170341,-0.32737118,-0.5388485,-0.6275139,-0.6177576,-0.5575634,-0.4884106,-0.4298731,-0.38756537,-0.36234635,-0.34771204,-0.34120786,-0.3363297,-0.33145165,-0.3257451,-0.32086694,-0.3159889,-0.30868697,-0.30377823,-0.30052614,-0.29890013,-0.29727405,-0.2923959,-0.28751785,-0.28263968,-0.27858996,-0.2745095,-0.26963133,-0.2606728,-0.25091648,-0.24116027,-0.23303008,-0.22732359,-0.22489983,-0.22244549,-0.21676964,-0.20701343,-0.19480282,-0.18421811,-0.17529029,-0.16878611,-0.16307962,-0.15332341,-0.13868904,-0.122428596,-0.106137514,-0.090705514,-0.07441431,-0.058982313,-0.04189354,-0.024007022,-0.0069182515,0.010968089,0.02805698,0.043519616,0.058951735,0.07358611,0.08987725,0.106137514,0.11914587,0.13052821,0.13948679,0.14761698,0.15329278,0.15329278,0.14761698,0.13540637,0.120772004,0.099633455,0.07278848,0.04269135,0.0077160597,-0.02805686,-0.06548643,-0.105339825,-0.14599085,-0.1850465,-0.2191934,-0.24929047,-0.2769639,-0.30052614,-0.32006925,-0.33470368,-0.34608597,-0.35584223,-0.36072034,-0.36154872,-0.35829663,-0.35341847,-0.35016644,-0.34854037,-0.34771204,-0.3444599,-0.3420055,-0.34120786,-0.34037948,-0.3395818,-0.3363297,-0.32982558,-0.3233214,-0.31681722,-0.3127368,-0.30948466,-0.30706102,-0.30460662,-0.30215222,-0.30052614,-0.29890013,-0.29972845,-0.30298054,-0.30785865,-0.31111073,-0.31031305,-0.30540425,-0.30135453,-0.29972845,-0.30215222,-0.30460662,-0.30706102,-0.31031305,-0.31193912,-0.31436282,-0.31436282,-0.3151912,-0.31761497,-0.32169533,-0.3233214,-0.32169533,-0.31761497,-0.3151912,-0.3159889,-0.32006925,-0.32249302,-0.3241191,-0.3241191,-0.3241191,-0.32494742,-0.3241191,-0.32086694,-0.3184433,-0.3151912,-0.3127368,-0.31111073,-0.31031305,-0.31031305,-0.31111073,-0.3127368,-0.31436282,-0.31681722,-0.32006925,-0.32249302,-0.32169533,-0.3159889,-0.30948466,-0.30460662,-0.30460662,-0.30785865,-0.30868697,-0.30785865,-0.30706102,-0.30540425,-0.30540425,-0.30540425,-0.30623257,-0.31031305,-0.31436282,-0.3151912,-0.31031305,-0.30377823,-0.29810238,-0.29810238,-0.30135453,-0.30298054,-0.30215222,-0.30135453,-0.30052614,-0.29890013,-0.29402196,-0.283468,-0.26963133,-0.25662303,-0.24603844,-0.24036258,-0.24116027,-0.24441236,-0.24361467,-0.23140407,-0.2061851,-0.1769163,-0.15820146,-0.15494943,-0.163908,-0.17120981,-0.1744619,-0.1769163,-0.18747026,-0.21026552,-0.23628217,-0.2606728,-0.2793876,-0.2948503,-0.31111073,-0.32494742,-0.33387536,-0.33795577,-0.33795577,-0.3371274,-0.33470368,-0.33307767,-0.33062327,-0.3289972,-0.3281995,-0.3289972,-0.32737118,-0.32169533,-0.30623257,-0.26475316,-0.1850465,-0.05085206,0.13703239,0.37127435,0.61689866,0.8137417,0.9145869,0.89182234,0.7259047,0.4395988,0.09150326,-0.25499696,-0.5233859,-0.6673672,-0.6925555,-0.6413199,-0.56486523,-0.49816686,-0.44693124,-0.41115832,-0.3859393,-0.37130493,-0.36559844,-0.36559844,-0.36559844,-0.35909432,-0.34854037,-0.33550137,-0.3257451,-0.31924093,-0.3151912,-0.31356514,-0.31031305,-0.30623257,-0.30135453,-0.2948503,-0.28997225,-0.28672016,-0.2842657,-0.27858996,-0.26883364,-0.25742072,-0.24766445,-0.2419886,-0.23873651,-0.23465616,-0.22977799,-0.22327387,-0.21676964,-0.20781112,-0.19805485,-0.18667257,-0.17529029,-0.1614536,-0.14681917,-0.13055885,-0.11509609,-0.10125941,-0.088250995,-0.07199067,-0.053275824,-0.032934904,-0.0126248,0.0036662817,0.018300653,0.035358787,0.054073572,0.07358611,0.09150326,0.10368323,0.11181331,0.11669147,0.11914587,0.120772004,0.12239802,0.12239802,0.119974256,0.10938966,0.09230089,0.06791031,0.0394392,0.0077160597,-0.029682875,-0.070364594,-0.11264163,-0.15332341,-0.19155067,-0.22977799,-0.2655509,-0.2948503,-0.31436282,-0.3265735,-0.33550137,-0.3444599,-0.35421622,-0.35909432,-0.35992265,-0.35829663,-0.35746825,-0.35746825,-0.35746825,-0.35667062,-0.35584223,-0.35584223,-0.35584223,-0.35096407,-0.34363157,-0.3371274,-0.33145165,-0.3281995,-0.32737118,-0.3265735,-0.3257451,-0.3257451,-0.3265735,-0.3241191,-0.32006925,-0.31681722,-0.3127368,-0.31031305,-0.30706102,-0.30623257,-0.30785865,-0.31031305,-0.31193912,-0.31111073,-0.30868697,-0.30785865,-0.31031305,-0.31681722,-0.32169533,-0.3233214,-0.32249302,-0.31924093,-0.3159889,-0.3127368,-0.3127368,-0.31356514,-0.3159889,-0.3159889,-0.31356514,-0.30948466,-0.30706102,-0.30706102,-0.30868697,-0.30868697,-0.30868697,-0.30785865,-0.30540425,-0.30460662,-0.30377823,-0.30298054,-0.30298054,-0.30215222,-0.30135453,-0.29972845,-0.29810238,-0.29727405,-0.29564798,-0.2948503,-0.29322428,-0.29322428,-0.29402196,-0.29564798,-0.29727405,-0.29810238,-0.29890013,-0.29890013,-0.29810238,-0.2948503,-0.28997225,-0.28751785,-0.28672016,-0.28997225,-0.29322428,-0.29322428,-0.29159826,-0.29159826,-0.29159826,-0.29076988,-0.28509408,-0.27613556,-0.2655509,-0.25662303,-0.24766445,-0.2395342,-0.23548448,-0.23628217,-0.23873651,-0.23385847,-0.21514362,-0.18829858,-0.16307962,-0.15086901,-0.15169734,-0.15740377,-0.1614536,-0.1647057,-0.17041218,-0.18179446,-0.19968086,-0.2191934,-0.23873651,-0.25662303,-0.27288342,-0.28751785,-0.29810238,-0.30377823,-0.30623257,-0.30540425,-0.30052614,-0.29727405,-0.29564798,-0.29727405,-0.29647636,-0.29322428,-0.28751785,-0.27776158,-0.26717693,-0.24036258,-0.18259215,-0.07849479,0.082544684,0.29077005,0.5274358,0.73974144,0.87473357,0.90157866,0.80235946,0.5762477,0.26960075,-0.067112505,-0.36397243,-0.55836105,-0.6315636,-0.6095967,-0.5413029,-0.47135252,-0.41683412,-0.3778091,-0.34933805,-0.3289972,-0.31681722,-0.31111073,-0.30706102,-0.30135453,-0.29402196,-0.28589177,-0.2793876,-0.27533787,-0.26963133,-0.2631272,-0.25579464,-0.25091648,-0.24849284,-0.24524075,-0.24036258,-0.23223239,-0.22327387,-0.21514362,-0.2086395,-0.20376134,-0.19888318,-0.19480282,-0.18829858,-0.18096614,-0.17283589,-0.16553402,-0.15820146,-0.14681917,-0.13135648,-0.11509609,-0.10208768,-0.09150308,-0.08257526,-0.071162224,-0.056527913,-0.03946978,-0.023178697,-0.0077466965,0.009342074,0.028854609,0.051649928,0.07604051,0.09800744,0.11669147,0.1313566,0.14353657,0.15491879,0.16633177,0.17688572,0.18501604,0.18989408,0.19234848,0.19560063,0.20047867,0.20130706,0.19560063,0.17771411,0.149243,0.11589384,0.08091855,0.044317245,0.006090045,-0.032934904,-0.07441431,-0.11509609,-0.15577781,-0.19155067,-0.21839571,-0.23628217,-0.25174493,-0.26717693,-0.283468,-0.29727405,-0.30460662,-0.30868697,-0.3127368,-0.31761497,-0.32169533,-0.31924093,-0.31193912,-0.30377823,-0.29890013,-0.29810238,-0.29727405,-0.29564798,-0.29322428,-0.28914386,-0.28589177,-0.281842,-0.27858996,-0.2769639,-0.2745095,-0.2712574,-0.26637924,-0.2615012,-0.25987512,-0.2631272,-0.26637924,-0.26883364,-0.2704597,-0.2704597,-0.2712574,-0.27288342,-0.2737118,-0.2745095,-0.27533787,-0.2745095,-0.2737118,-0.2712574,-0.2704597,-0.2745095,-0.27858996,-0.283468,-0.28509408,-0.28509408,-0.28672016,-0.28751785,-0.28589177,-0.28263968,-0.27858996,-0.2769639,-0.27858996,-0.281842,-0.28263968,-0.283468,-0.2842657,-0.28589177,-0.28672016,-0.28263968,-0.2769639,-0.27208573,-0.2704597,-0.2737118,-0.27613556,-0.27858996,-0.27858996,-0.2769639,-0.27613556,-0.27533787,-0.27613556,-0.27858996,-0.28021592,-0.27858996,-0.2745095,-0.2704597,-0.2680053,-0.26963133,-0.2712574,-0.2704597,-0.26717693,-0.2655509,-0.26717693,-0.2712574,-0.2745095,-0.27288342,-0.26883364,-0.2631272,-0.25824904,-0.25579464,-0.25579464,-0.25579464,-0.25824904,-0.25987512,-0.25987512,-0.25987512,-0.25987512,-0.25824904,-0.25337088,-0.23873651,-0.22002178,-0.20455903,-0.19642884,-0.20130694,-0.21106315,-0.21514362,-0.20701343,-0.18584418,-0.1565755,-0.13135648,-0.11917651,-0.119974196,-0.12730676,-0.13298249,-0.13623464,-0.14356709,-0.16065586,-0.18421811,-0.2086395,-0.22732359,-0.24116027,-0.25499696,-0.2712574,-0.283468,-0.28997225,-0.28997225,-0.28589177,-0.28263968,-0.2793876,-0.27533787,-0.2745095,-0.27533787,-0.2810136,-0.283468,-0.27776158,-0.25742072,-0.21026552,-0.12810433,0.0028380156,0.1858443,0.40870404,0.6413199,0.82675004,0.9284235,0.9170414,0.77143395,0.51037765,0.18013787,-0.15577781,-0.4200862,-0.56731963,-0.6014665,-0.56161314,-0.49249107,-0.424995,-0.37210262,-0.3363297,-0.31761497,-0.31193912,-0.31111073,-0.31031305,-0.30623257,-0.29810238,-0.28997225,-0.281842,-0.27613556,-0.2712574,-0.2655509,-0.25904673,-0.2501189,-0.24278635,-0.23548448,-0.23060638,-0.22569752,-0.2191934,-0.21351755,-0.20943707,-0.20781112,-0.20455903,-0.19968086,-0.19155067,-0.18179446,-0.17203826,-0.163908,-0.1565755,-0.14924294,-0.14194107,-0.13543689,-0.12810433,-0.11834812,-0.106137514,-0.09395754,-0.08094919,-0.067910194,-0.052478135,-0.032934904,-0.011796415,0.009342074,0.028854609,0.046771765,0.064658165,0.08337307,0.10205722,0.12160027,0.13948679,0.15329278,0.16387737,0.17363358,0.18501604,0.1964289,0.20535684,0.20860887,0.2037307,0.19477212,0.1833899,0.1671294,0.14273882,0.10938966,0.07195997,0.033732653,-0.0020402074,-0.037843764,-0.07441431,-0.111844,-0.14844525,-0.18259215,-0.21106315,-0.23548448,-0.25416863,-0.26883364,-0.27858996,-0.28589177,-0.29322428,-0.29890013,-0.30298054,-0.30377823,-0.30052614,-0.29727405,-0.2923959,-0.28997225,-0.28834617,-0.2842657,-0.28021592,-0.27533787,-0.2704597,-0.2680053,-0.26475316,-0.2606728,-0.25499696,-0.24929047,-0.24686676,-0.24686676,-0.24849284,-0.24766445,-0.24603844,-0.24278635,-0.24278635,-0.24524075,-0.24929047,-0.25091648,-0.2501189,-0.24686676,-0.24524075,-0.24524075,-0.24849284,-0.25254256,-0.25742072,-0.2615012,-0.26475316,-0.26637924,-0.26963133,-0.27288342,-0.27533787,-0.2745095,-0.2704597,-0.26475316,-0.26229888,-0.2655509,-0.2704597,-0.2737118,-0.2745095,-0.2737118,-0.27533787,-0.27776158,-0.2793876,-0.28021592,-0.27858996,-0.27776158,-0.2769639,-0.27613556,-0.2769639,-0.27858996,-0.28021592,-0.28021592,-0.27776158,-0.27533787,-0.27288342,-0.27288342,-0.2745095,-0.2745095,-0.2745095,-0.2737118,-0.27208573,-0.26963133,-0.26475316,-0.2615012,-0.2606728,-0.26229888,-0.2631272,-0.26229888,-0.2606728,-0.25987512,-0.26229888,-0.2655509,-0.2655509,-0.2631272,-0.25987512,-0.25824904,-0.25824904,-0.25824904,-0.25742072,-0.25579464,-0.25662303,-0.25662303,-0.25499696,-0.2501189,-0.2419886,-0.23385847,-0.2240715,-0.21351755,-0.20376134,-0.19805485,-0.19888318,-0.20130694,-0.19805485,-0.18342042,-0.15820146,-0.13135648,-0.11347008,-0.10776353,-0.11264163,-0.11834812,-0.12405461,-0.13381088,-0.15007132,-0.17283589,-0.19642884,-0.21756738,-0.23465616,-0.2501189,-0.26717693,-0.28263968,-0.29402196,-0.29972845,-0.30135453,-0.30052614,-0.29972845,-0.30052614,-0.30215222,-0.30135453,-0.29890013,-0.29810238,-0.2948503,-0.28914386,-0.26963133,-0.21756738,-0.12485236,0.019098401,0.2118609,0.44285095,0.6754668,0.8544234,0.94063425,0.9064568,0.7315806,0.44447696,0.097179055,-0.24441236,-0.49899518,-0.6291399,-0.6445719,-0.5925386,-0.5217598,-0.45831347,-0.41032994,-0.3778091,-0.35909432,-0.35016644,-0.34691435,-0.3420055,-0.33307767,-0.3233214,-0.3151912,-0.30948466,-0.30540425,-0.30298054,-0.29972845,-0.29810238,-0.29322428,-0.28672016,-0.2793876,-0.27288342,-0.26963133,-0.26717693,-0.26392484,-0.25904673,-0.25254256,-0.24524075,-0.23711056,-0.2265259,-0.21676964,-0.2086395,-0.20213526,-0.19725722,-0.18992466,-0.18016839,-0.16878611,-0.1565755,-0.14436477,-0.13055885,-0.11755043,-0.10451144,-0.09233147,-0.07849479,-0.061406016,-0.040267467,-0.017502904,0.004463911,0.023178816,0.041065216,0.058951735,0.076838136,0.09475529,0.11101568,0.12485242,0.13703239,0.14599097,0.15249515,0.1565448,0.16307974,0.16875553,0.17200756,0.1679579,0.15574718,0.13540637,0.10856128,0.07604051,0.04023695,0.0028380156,-0.03456098,-0.07199067,-0.11264163,-0.15494943,-0.19400513,-0.22489983,-0.2501189,-0.2712574,-0.2923959,-0.31193912,-0.3257451,-0.33307767,-0.3363297,-0.3371274,-0.33875346,-0.34037948,-0.34037948,-0.3363297,-0.33062327,-0.3233214,-0.31761497,-0.3151912,-0.3159889,-0.31681722,-0.31681722,-0.3127368,-0.30706102,-0.30298054,-0.30215222,-0.30215222,-0.30135453,-0.29890013,-0.29402196,-0.29076988,-0.28997225,-0.29159826,-0.29322428,-0.29322428,-0.29322428,-0.29159826,-0.29159826,-0.2948503,-0.29810238,-0.30052614,-0.30135453,-0.29972845,-0.29810238,-0.30052614,-0.30623257,-0.31356514,-0.31681722,-0.3159889,-0.31193912,-0.30868697,-0.30868697,-0.31111073,-0.31356514,-0.3151912,-0.3159889,-0.31761497,-0.31924093,-0.32086694,-0.32249302,-0.3233214,-0.32169533,-0.3184433,-0.31356514,-0.31111073,-0.31193912,-0.3127368,-0.31356514,-0.31436282,-0.3151912,-0.31761497,-0.32006925,-0.32006925,-0.31681722,-0.31356514,-0.3127368,-0.3127368,-0.3159889,-0.3184433,-0.31924093,-0.32006925,-0.3184433,-0.3159889,-0.31356514,-0.31356514,-0.31436282,-0.3151912,-0.31356514,-0.31031305,-0.30623257,-0.30540425,-0.30377823,-0.30460662,-0.30377823,-0.29972845,-0.29402196,-0.28509408,-0.2745095,-0.2655509,-0.25904673,-0.25662303,-0.25662303,-0.2606728,-0.25904673,-0.24686676,-0.22327387,-0.19237906,-0.1647057,-0.15169734,-0.15332341,-0.16307962,-0.16958374,-0.17203826,-0.17771399,-0.19400513,-0.22081947,-0.25091648,-0.2745095,-0.2923959,-0.30785865,-0.32249302,-0.33470368,-0.34037948,-0.3395818,-0.3363297,-0.33387536,-0.33224922,-0.33062327,-0.3281995,-0.32737118,-0.33062327,-0.33224922,-0.3257451,-0.31111073,-0.2737118,-0.20376134,-0.08662498,0.08742273,0.3110801,0.55510914,0.7690102,0.8975289,0.9089111,0.7812208,0.51930547,0.17446208,-0.1850465,-0.4802804,-0.65270215,-0.69909036,-0.65840864,-0.5860344,-0.5185077,-0.46727204,-0.42904478,-0.40302813,-0.38514167,-0.3753547,-0.3696789,-0.36317474,-0.35746825,-0.35259014,-0.34691435,-0.34120786,-0.33470368,-0.3281995,-0.32169533,-0.3151912,-0.30948466,-0.30298054,-0.29890013,-0.29647636,-0.29564798,-0.29076988,-0.28509408,-0.27776158,-0.26717693,-0.25742072,-0.24929047,-0.24361467,-0.24036258,-0.23790824,-0.23465616,-0.22489983,-0.21268922,-0.20213526,-0.19155067,-0.18179446,-0.16958374,-0.15494943,-0.13868904,-0.123226285,-0.10776353,-0.09150308,-0.07441431,-0.058153987,-0.042721868,-0.025633097,-0.0044946074,0.015846252,0.035358787,0.052447557,0.06870794,0.0841707,0.099633455,0.11181331,0.120772004,0.12565005,0.12810457,0.12810457,0.12565005,0.120772004,0.11101568,0.097179055,0.07521212,0.04594338,0.010170579,-0.026430786,-0.06386042,-0.10208768,-0.14111274,-0.18179446,-0.22002178,-0.25416863,-0.2842657,-0.31111073,-0.33307767,-0.35016644,-0.36234635,-0.37210262,-0.3810612,-0.38919145,-0.3908174,-0.3867677,-0.38023287,-0.37455702,-0.37130493,-0.3680529,-0.36317474,-0.35829663,-0.35504454,-0.35259014,-0.35259014,-0.35016644,-0.34608597,-0.3444599,-0.34037948,-0.33470368,-0.3281995,-0.3233214,-0.32249302,-0.3241191,-0.3257451,-0.3265735,-0.3265735,-0.32737118,-0.3281995,-0.32737118,-0.32737118,-0.32737118,-0.32737118,-0.3265735,-0.32494742,-0.3241191,-0.32494742,-0.3281995,-0.33145165,-0.33307767,-0.33387536,-0.33470368,-0.3363297,-0.3363297,-0.33875346,-0.34037948,-0.3395818,-0.3395818,-0.33795577,-0.33550137,-0.33224922,-0.33145165,-0.33224922,-0.33224922,-0.33145165,-0.3289972,-0.3265735,-0.32737118,-0.3289972,-0.3289972,-0.3241191,-0.3184433,-0.31356514,-0.31193912,-0.31193912,-0.31356514,-0.3151912,-0.3184433,-0.32086694,-0.32086694,-0.31924093,-0.3151912,-0.3127368,-0.3127368,-0.3127368,-0.31031305,-0.30706102,-0.30460662,-0.30377823,-0.30377823,-0.30298054,-0.30052614,-0.29322428,-0.2842657,-0.2712574,-0.25904673,-0.25091648,-0.25091648,-0.25824904,-0.26475316,-0.25904673,-0.2395342,-0.2086395,-0.17854238,-0.1647057,-0.16553402,-0.17529029,-0.18421811,-0.18667257,-0.18909627,-0.19968086,-0.22081947,-0.24849284,-0.27208573,-0.28751785,-0.29810238,-0.30785865,-0.32006925,-0.33062327,-0.3363297,-0.33470368,-0.33224922,-0.32982558,-0.3281995,-0.32737118,-0.3265735,-0.32737118,-0.33062327,-0.32494742,-0.31111073,-0.27858996,-0.2191934,-0.12405461,0.021552682,0.21756744,0.4518094,0.67466915,0.82920444,0.8779856,0.80073345,0.59333646,0.29077005,-0.05085206,-0.36317474,-0.5762475,-0.66086304,-0.6437743,-0.5754498,-0.50224733,-0.44450748,-0.40302813,-0.37210262,-0.35179245,-0.3420055,-0.33875346,-0.3363297,-0.33062327,-0.3241191,-0.3151912,-0.30868697,-0.30298054,-0.29972845,-0.29727405,-0.29159826,-0.28263968,-0.2704597,-0.25987512,-0.25337088,-0.24929047,-0.24524075,-0.23873651,-0.23385847,-0.23223239,-0.23060638,-0.22569752,-0.21676964,-0.2061851,-0.19642884,-0.18992466,-0.18342042,-0.1744619,-0.163908,-0.15252572,-0.14194107,-0.13055885,-0.11834812,-0.10451144,-0.09233147,-0.0776971,-0.05978,-0.03946978,-0.019128919,-0.0012425184,0.015048623,0.032935143,0.051649928,0.07033396,0.088251114,0.1045115,0.120772004,0.13540637,0.14841461,0.1565448,0.16225135,0.1671294,0.17200756,0.17446208,0.17363358,0.16633177,0.15249515,0.13298261,0.106137514,0.07195997,0.033732653,-0.0077466965,-0.049226105,-0.090705514,-0.1321848,-0.17041218,-0.20701343,-0.23873651,-0.2655509,-0.28509408,-0.29890013,-0.30785865,-0.3151912,-0.32169533,-0.3289972,-0.33387536,-0.33387536,-0.33062327,-0.32494742,-0.32006925,-0.31761497,-0.31761497,-0.31761497,-0.31761497,-0.3151912,-0.30868697,-0.30135453,-0.2948503,-0.29076988,-0.29076988,-0.29076988,-0.28914386,-0.28589177,-0.28263968,-0.2810136,-0.28021592,-0.28021592,-0.27858996,-0.27858996,-0.2769639,-0.2737118,-0.26963133,-0.2655509,-0.2631272,-0.26475316,-0.26717693,-0.26883364,-0.26883364,-0.2712574,-0.27288342,-0.2745095,-0.2745095,-0.27208573,-0.2712574,-0.27288342,-0.27533787,-0.2769639,-0.2745095,-0.26963133,-0.2680053,-0.26883364,-0.2704597,-0.27288342,-0.27533787,-0.27776158,-0.2810136,-0.281842,-0.28021592,-0.27776158,-0.2769639,-0.2769639,-0.27533787,-0.26963133,-0.26392484,-0.2615012,-0.26229888,-0.2655509,-0.2655509,-0.26392484,-0.2606728,-0.25824904,-0.25742072,-0.25662303,-0.25579464,-0.25742072,-0.25987512,-0.26392484,-0.26392484,-0.2606728,-0.25662303,-0.25254256,-0.25091648,-0.2501189,-0.24929047,-0.24849284,-0.24766445,-0.24686676,-0.24524075,-0.24441236,-0.24361467,-0.24036258,-0.23465616,-0.22244549,-0.20943707,-0.19968086,-0.19563115,-0.19805485,-0.20050925,-0.19317675,-0.17529029,-0.14844525,-0.12485236,-0.11101562,-0.11264163,-0.12160021,-0.13135648,-0.13706297,-0.14194107,-0.15252572,-0.17041218,-0.19237906,-0.21431524,-0.23385847,-0.25254256,-0.26963133,-0.28263968,-0.28914386,-0.28834617,-0.28509408,-0.28263968,-0.2810136,-0.28021592,-0.28021592,-0.28021592,-0.2842657,-0.28914386,-0.28589177,-0.2704597,-0.23303008,-0.163908,-0.055730224,0.10205722,0.30620205,0.5396464,0.7543758,0.8991548,0.943058,0.85767555,0.6388656,0.32899725,-0.013422489,-0.32006925,-0.5233859,-0.60717297,-0.5982144,-0.5404746,-0.47297853,-0.4144104,-0.3704766,-0.34120786,-0.32494742,-0.31924093,-0.31761497,-0.3159889,-0.31193912,-0.30460662,-0.29402196,-0.28263968,-0.27208573,-0.26637924,-0.2631272,-0.2606728,-0.25662303,-0.25091648,-0.24524075,-0.23790824,-0.22977799,-0.2216478,-0.21268922,-0.20781112,-0.20538735,-0.20293295,-0.19563115,-0.1850465,-0.17366421,-0.16228193,-0.15332341,-0.14519316,-0.13786066,-0.1321848,-0.12485236,-0.11592436,-0.10371375,-0.090705514,-0.0776971,-0.06548643,-0.05410415,-0.037843764,-0.017502904,0.006090045,0.029682994,0.050821543,0.06870794,0.084999084,0.10205722,0.119974256,0.13623464,0.15004075,0.1614536,0.16958392,0.17771411,0.1833899,0.18909633,0.19072247,0.1915201,0.18989408,0.18421817,0.17283607,0.15166664,0.12160027,0.0866251,0.04919541,0.012594223,-0.026430786,-0.06873858,-0.111844,-0.15332341,-0.18747026,-0.21676964,-0.24278635,-0.26637924,-0.28509408,-0.29647636,-0.30460662,-0.30868697,-0.3127368,-0.31681722,-0.31681722,-0.3159889,-0.3151912,-0.31436282,-0.3127368,-0.30868697,-0.30377823,-0.30135453,-0.30052614,-0.29810238,-0.2923959,-0.2842657,-0.27776158,-0.2745095,-0.2737118,-0.27208573,-0.2712574,-0.2704597,-0.2704597,-0.2704597,-0.2680053,-0.2655509,-0.26392484,-0.2631272,-0.26392484,-0.26475316,-0.26392484,-0.26475316,-0.26392484,-0.26392484,-0.2631272,-0.2631272,-0.26475316,-0.2680053,-0.2704597,-0.2712574,-0.2712574,-0.2712574,-0.27208573,-0.2745095,-0.27533787,-0.27533787,-0.2769639,-0.27533787,-0.27288342,-0.26883364,-0.26637924,-0.2680053,-0.2712574,-0.27533787,-0.27613556,-0.2769639,-0.27858996,-0.2793876,-0.27858996,-0.27613556,-0.2737118,-0.2745095,-0.2769639,-0.27858996,-0.27533787,-0.26963133,-0.26637924,-0.26475316,-0.26637924,-0.26637924,-0.26637924,-0.26475316,-0.26392484,-0.26392484,-0.2615012,-0.25987512,-0.25987512,-0.2615012,-0.26475316,-0.26637924,-0.2655509,-0.26229888,-0.25824904,-0.25579464,-0.25337088,-0.25254256,-0.25416863,-0.25499696,-0.25579464,-0.25416863,-0.25174493,-0.2501189,-0.2501189,-0.25091648,-0.2501189,-0.24929047,-0.24849284,-0.24603844,-0.2395342,-0.22489983,-0.2086395,-0.19563115,-0.18909627,-0.19317675,-0.19968086,-0.20130694,-0.19155067,-0.16878611,-0.13948673,-0.11592436,-0.105339825,-0.11021793,-0.12080252,-0.13055885,-0.13786066,-0.14924294,-0.1671601,-0.19155067,-0.21676964,-0.23711056,-0.25416863,-0.2712574,-0.28672016,-0.29727405,-0.29972845,-0.29810238,-0.29647636,-0.29727405,-0.29727405,-0.29402196,-0.28997225,-0.28834617,-0.29076988,-0.2923959,-0.28672016,-0.26475316,-0.21026552,-0.11755043,0.026430845,0.2199912,0.4501834,0.68034494,0.85767555,0.94631016,0.91216326,0.7389132,0.45260704,0.10693526,-0.22894967,-0.4778567,-0.60717297,-0.6258878,-0.578702,-0.5095798,-0.4461335,-0.39732158,-0.3672245,-0.35016644,-0.3444599,-0.34120786,-0.3363297,-0.32982558,-0.32169533,-0.31356514,-0.30623257,-0.30135453,-0.29564798,-0.28997225,-0.28509408,-0.2793876,-0.2745095,-0.2712574,-0.2680053,-0.2631272,-0.25662303,-0.24849284,-0.2395342,-0.23140407,-0.22244549,-0.21431524,-0.20781112,-0.20213526,-0.19642884,-0.18992466,-0.18096614,-0.17120981,-0.16307962,-0.15415174,-0.14599085,-0.1321848,-0.11834812,-0.10451144,-0.08987707,-0.07686871,-0.061406016,-0.04514557,-0.028885186,-0.0109987855,0.0069184303,0.026430845,0.046771765,0.064658165,0.081746936,0.099633455,0.11914587,0.13623464,0.15004075,0.15982759,0.1671294,0.17525971,0.18096614,0.18259215,0.18013787,0.17283607,0.1614536,0.14436483,0.11914587,0.0866251,0.051649928,0.018300653,-0.016674578,-0.05410415,-0.09395754,-0.13543689,-0.17283589,-0.20538735,-0.23303008,-0.25824904,-0.2793876,-0.29402196,-0.30460662,-0.31436282,-0.32249302,-0.33062327,-0.33470368,-0.33224922,-0.3281995,-0.32169533,-0.31681722,-0.31356514,-0.3127368,-0.31193912,-0.31031305,-0.30706102,-0.30215222,-0.29810238,-0.29727405,-0.29647636,-0.2948503,-0.28834617,-0.28021592,-0.2745095,-0.2712574,-0.26963133,-0.26717693,-0.26963133,-0.2745095,-0.2810136,-0.28589177,-0.2842657,-0.2810136,-0.27858996,-0.28021592,-0.2810136,-0.27776158,-0.27288342,-0.2712574,-0.27288342,-0.27858996,-0.28263968,-0.28509408,-0.28589177,-0.28751785,-0.28914386,-0.28834617,-0.28914386,-0.29159826,-0.29402196,-0.29402196,-0.28997225,-0.28509408,-0.281842,-0.281842,-0.2842657,-0.2842657,-0.2842657,-0.28509408,-0.28509408,-0.28672016,-0.28672016,-0.28751785,-0.28672016,-0.283468,-0.27858996,-0.27208573,-0.26963133,-0.2712574,-0.2745095,-0.27613556,-0.2745095,-0.27208573,-0.2712574,-0.27288342,-0.27613556,-0.2745095,-0.2704597,-0.26475316,-0.25987512,-0.25824904,-0.25824904,-0.25904673,-0.2606728,-0.26229888,-0.2631272,-0.26229888,-0.2631272,-0.26392484,-0.2655509,-0.26392484,-0.25987512,-0.25499696,-0.25254256,-0.25254256,-0.25416863,-0.25254256,-0.25091648,-0.25091648,-0.25337088,-0.25742072,-0.25824904,-0.25254256,-0.24361467,-0.23140407,-0.2191934,-0.2086395,-0.20050925,-0.19642884,-0.19642884,-0.19968086,-0.19968086,-0.19075298,-0.17041218,-0.14111274,-0.11509609,-0.10046172,-0.10125941,-0.11021793,-0.11917651,-0.12893277,-0.14273876,-0.16307962,-0.18829858,-0.21431524,-0.23548448,-0.25174493,-0.2680053,-0.281842,-0.29159826,-0.29647636,-0.29564798,-0.29322428,-0.2923959,-0.2923959,-0.2923959,-0.28997225,-0.28914386,-0.2923959,-0.29322428,-0.28997225,-0.26392484,-0.20213526,-0.09720963,0.06057775,0.26229894,0.49896467,0.72915685,0.8983265,0.969903,0.90808284,0.7039379,0.39081764,0.030480623,-0.30052614,-0.5290923,-0.6299375,-0.6283115,-0.5729954,-0.50632775,-0.44775957,-0.40219975,-0.3688506,-0.34854037,-0.34283394,-0.34283394,-0.34120786,-0.33470368,-0.3265735,-0.31761497,-0.31111073,-0.30540425,-0.29972845,-0.29402196,-0.28834617,-0.28263968,-0.27533787,-0.2704597,-0.26475316,-0.25824904,-0.25091648,-0.2419886,-0.23548448,-0.23060638,-0.22569752,-0.2216478,-0.21514362,-0.20943707,-0.20538735,-0.20130694,-0.19642884,-0.18747026,-0.17608798,-0.163908,-0.15332341,-0.14356709,-0.13381088,-0.123226285,-0.111844,-0.099633396,-0.08337295,-0.064658105,-0.042721868,-0.021552742,-0.0036661625,0.012594223,0.029682994,0.047569394,0.06628418,0.08337307,0.09638131,0.10856128,0.120772004,0.13298261,0.14436483,0.15329278,0.15899932,0.15899932,0.15491879,0.14841461,0.13703239,0.11914587,0.09475529,0.064658165,0.030480623,-0.005292237,-0.04189354,-0.081746876,-0.123226285,-0.16553402,-0.20455903,-0.2395342,-0.26963133,-0.29647636,-0.3151912,-0.3289972,-0.33875346,-0.34528828,-0.35259014,-0.35829663,-0.36154872,-0.36154872,-0.36072034,-0.36072034,-0.36154872,-0.35909432,-0.35096407,-0.3420055,-0.33470368,-0.33145165,-0.33224922,-0.33062327,-0.3281995,-0.32494742,-0.32249302,-0.32249302,-0.3233214,-0.32249302,-0.3184433,-0.31436282,-0.31031305,-0.30540425,-0.30540425,-0.30706102,-0.31031305,-0.31436282,-0.31436282,-0.3151912,-0.31681722,-0.32006925,-0.32086694,-0.3184433,-0.3151912,-0.31111073,-0.30948466,-0.31111073,-0.31356514,-0.31681722,-0.3233214,-0.3289972,-0.33387536,-0.33145165,-0.3289972,-0.3265735,-0.32737118,-0.33062327,-0.33307767,-0.33307767,-0.33224922,-0.33470368,-0.3371274,-0.3395818,-0.3420055,-0.34037948,-0.33550137,-0.33062327,-0.3257451,-0.3233214,-0.3233214,-0.3257451,-0.3281995,-0.3281995,-0.32737118,-0.3265735,-0.3257451,-0.32494742,-0.3241191,-0.3241191,-0.3233214,-0.32169533,-0.32086694,-0.3184433,-0.31681722,-0.31761497,-0.3184433,-0.3184433,-0.31761497,-0.3151912,-0.31356514,-0.3127368,-0.31031305,-0.30623257,-0.30215222,-0.30135453,-0.30377823,-0.30785865,-0.30785865,-0.30052614,-0.28997225,-0.27776158,-0.26717693,-0.25662303,-0.25091648,-0.25254256,-0.25579464,-0.25254256,-0.23790824,-0.21026552,-0.18016839,-0.16065586,-0.15820146,-0.16553402,-0.17608798,-0.18421811,-0.19237906,-0.20293295,-0.21756738,-0.23711056,-0.25824904,-0.2810136,-0.30215222,-0.3184433,-0.3289972,-0.33387536,-0.3371274,-0.34037948,-0.3395818,-0.3371274,-0.33470368,-0.33307767,-0.33062327,-0.33062327,-0.33062327,-0.3241191,-0.3151912,-0.28751785,-0.22732359,-0.12080252,0.04514575,0.2630967,0.5111753,0.73566103,0.8788141,0.9048307,0.79340076,0.54697883,0.21836519,-0.13543689,-0.44042706,-0.634018,-0.7023424,-0.6697909,-0.5933363,-0.5168817,-0.45831347,-0.42091453,-0.39489788,-0.37943518,-0.37130493,-0.3672245,-0.36317474,-0.35584223,-0.34854037,-0.3371274,-0.3289972,-0.32086694,-0.3127368,-0.30785865,-0.30540425,-0.30298054,-0.29890013,-0.2923959,-0.28589177,-0.28021592,-0.2769639,-0.2745095,-0.26717693,-0.25662303,-0.24603844,-0.23873651,-0.23548448,-0.23303008,-0.22815192,-0.2191934,-0.2086395,-0.19725722,-0.18747026,-0.17934006,-0.16958374,-0.15902984,-0.14681917,-0.1321848,-0.11672217,-0.10125941,-0.087453365,-0.07361668,-0.057356298,-0.037843764,-0.017502904,0.0036662817,0.023178816,0.04269135,0.06057775,0.076838136,0.088251114,0.09800744,0.106137514,0.11181331,0.11914587,0.12647843,0.13460863,0.14028454,0.14028454,0.12973058,0.11181331,0.088251114,0.06057775,0.02805698,-0.009372771,-0.050023735,-0.09233147,-0.13298249,-0.17366421,-0.21189159,-0.24524075,-0.2745095,-0.29810238,-0.3184433,-0.3371274,-0.35179245,-0.36154872,-0.36559844,-0.36642683,-0.3672245,-0.3680529,-0.3688506,-0.36642683,-0.36317474,-0.35992265,-0.35746825,-0.35421622,-0.34933805,-0.34528828,-0.3420055,-0.3420055,-0.34037948,-0.3371274,-0.33307767,-0.3289972,-0.32737118,-0.3257451,-0.3233214,-0.32169533,-0.3184433,-0.31681722,-0.3159889,-0.31436282,-0.31436282,-0.3159889,-0.31681722,-0.3151912,-0.31436282,-0.31436282,-0.31761497,-0.3241191,-0.32982558,-0.33224922,-0.33387536,-0.33470368,-0.33387536,-0.33224922,-0.32737118,-0.3241191,-0.32249302,-0.3233214,-0.3265735,-0.32737118,-0.32737118,-0.3281995,-0.3281995,-0.32737118,-0.32737118,-0.3281995,-0.32982558,-0.33145165,-0.33062327,-0.3257451,-0.32006925,-0.31681722,-0.31681722,-0.3184433,-0.3184433,-0.31681722,-0.31436282,-0.3127368,-0.3127368,-0.31111073,-0.31111073,-0.31193912,-0.3127368,-0.31031305,-0.30377823,-0.29647636,-0.29076988,-0.29076988,-0.29564798,-0.29647636,-0.2923959,-0.2842657,-0.27288342,-0.2606728,-0.2501189,-0.24603844,-0.24929047,-0.25499696,-0.25254256,-0.23711056,-0.21026552,-0.18259215,-0.16633171,-0.16307962,-0.16553402,-0.1671601,-0.16795772,-0.17529029,-0.18992466,-0.21268922,-0.23303008,-0.2501189,-0.26392484,-0.2769639,-0.29159826,-0.30377823,-0.31193912,-0.31436282,-0.31436282,-0.31356514,-0.31356514,-0.3151912,-0.31436282,-0.31111073,-0.30623257,-0.30215222,-0.2948503,-0.28672016,-0.26717693,-0.22327387,-0.14681917,-0.022381008,0.14841461,0.35663998,0.5681174,0.72915685,0.8031571,0.764132,0.5965885,0.32816887,0.009342074,-0.29564798,-0.5168817,-0.6210097,-0.62180734,-0.5624415,-0.49249107,-0.4347512,-0.39327186,-0.36397243,-0.34037948,-0.32494742,-0.31681722,-0.31111073,-0.30540425,-0.29890013,-0.29159826,-0.28672016,-0.281842,-0.27533787,-0.26963133,-0.26475316,-0.2631272,-0.25904673,-0.25174493,-0.24116027,-0.23223239,-0.2265259,-0.22327387,-0.22002178,-0.21594131,-0.21189159,-0.2086395,-0.2061851,-0.20050925,-0.19237906,-0.18096614,-0.16795772,-0.15415174,-0.14031506,-0.12893277,-0.11917651,-0.11101562,-0.10208768,-0.08907944,-0.07524276,-0.05978,-0.04514557,-0.03130889,-0.01587689,0.0012118816,0.02235055,0.044317245,0.06791031,0.09067488,0.11101568,0.12647843,0.1386584,0.14841461,0.15820158,0.16633177,0.17038155,0.17120993,0.17446208,0.17934012,0.18259215,0.18013787,0.1655035,0.14028454,0.11101568,0.079292536,0.043519616,0.004463911,-0.03701538,-0.0776971,-0.11592436,-0.15086901,-0.18421811,-0.21189159,-0.23303008,-0.2501189,-0.2655509,-0.283468,-0.29890013,-0.30785865,-0.31031305,-0.30868697,-0.30785865,-0.30948466,-0.3127368,-0.3151912,-0.31193912,-0.30623257,-0.29890013,-0.29159826,-0.28751785,-0.28509408,-0.283468,-0.28021592,-0.2745095,-0.26883364,-0.26392484,-0.2615012,-0.25987512,-0.25904673,-0.25579464,-0.25091648,-0.24524075,-0.2395342,-0.23628217,-0.23711056,-0.23873651,-0.24116027,-0.24278635,-0.24278635,-0.2419886,-0.2419886,-0.24361467,-0.24278635,-0.24116027,-0.24036258,-0.24036258,-0.24441236,-0.24929047,-0.25091648,-0.2501189,-0.24929047,-0.25091648,-0.25254256,-0.25254256,-0.25254256,-0.25254256,-0.25174493,-0.2501189,-0.24686676,-0.2419886,-0.23873651,-0.24116027,-0.24603844,-0.2501189,-0.25254256,-0.25254256,-0.25091648,-0.24849284,-0.24686676,-0.24524075,-0.24441236,-0.24116027,-0.23711056,-0.23060638,-0.2265259,-0.22569752,-0.22815192,-0.23140407,-0.23140407,-0.22977799,-0.22569752,-0.22002178,-0.21189159,-0.19968086,-0.18829858,-0.18016839,-0.17771399,-0.17771399,-0.1769163,-0.17366421,-0.16553402,-0.15332341,-0.13786066,-0.122428596,-0.11264163,-0.111844,-0.11917651,-0.12405461,-0.12568069,-0.12810433,-0.13706297,-0.15577781,-0.1769163,-0.19400513,-0.20781112,-0.22002178,-0.23711056,-0.25416863,-0.26717693,-0.2704597,-0.26717693,-0.26229888,-0.25824904,-0.25742072,-0.25742072,-0.25904673,-0.2615012,-0.2655509,-0.2655509,-0.25742072,-0.24116027,-0.20130694,-0.12810433,-0.008544326,0.16307974,0.3753549,0.6063447,0.8072375,0.9357562,0.9601468,0.85276675,0.61772704,0.3013239,-0.03701538,-0.32494742,-0.50549936,-0.5721978,-0.5534829,-0.49249107,-0.424995,-0.36642683,-0.3257451,-0.30052614,-0.28834617,-0.28589177,-0.28672016,-0.28672016,-0.2810136,-0.2712574,-0.2606728,-0.25254256,-0.24929047,-0.24686676,-0.24278635,-0.23628217,-0.22894967,-0.2240715,-0.22002178,-0.21514362,-0.20781112,-0.19968086,-0.19317675,-0.18992466,-0.1850465,-0.17854238,-0.17203826,-0.1647057,-0.15982753,-0.15415174,-0.14599085,-0.13543689,-0.12405461,-0.11347008,-0.10371375,-0.09558356,-0.088250995,-0.08094919,-0.071162224,-0.055730224,-0.03456098,-0.011796415,0.010170579,0.028854609,0.04514575,0.06057775,0.07766664,0.09555304,0.11343944,0.13215423,0.14841461,0.1614536,0.17038155,0.17934012,0.1915201,0.2037307,0.21431541,0.21836519,0.21673906,0.21106327,0.20047867,0.18421817,0.15982759,0.12810457,0.09230089,0.056527972,0.019098401,-0.019128919,-0.057356298,-0.09558356,-0.1321848,-0.16633171,-0.19805485,-0.2240715,-0.24361467,-0.25742072,-0.26717693,-0.2745095,-0.2810136,-0.2842657,-0.28672016,-0.28589177,-0.28509408,-0.2810136,-0.27533787,-0.26963133,-0.26475316,-0.2631272,-0.26229888,-0.25824904,-0.25416863,-0.24929047,-0.24524075,-0.24278635,-0.24036258,-0.23790824,-0.23711056,-0.2395342,-0.23873651,-0.23465616,-0.22732359,-0.2191934,-0.21594131,-0.21756738,-0.2191934,-0.21839571,-0.21676964,-0.21594131,-0.21676964,-0.2191934,-0.2216478,-0.2240715,-0.22732359,-0.22815192,-0.2265259,-0.22244549,-0.22081947,-0.22244549,-0.2240715,-0.22569752,-0.22569752,-0.2240715,-0.22569752,-0.22977799,-0.23303008,-0.23548448,-0.23465616,-0.23223239,-0.22569752,-0.2216478,-0.22002178,-0.2216478,-0.2265259,-0.22977799,-0.22977799,-0.22732359,-0.22569752,-0.22489983,-0.22489983,-0.2240715,-0.22327387,-0.2240715,-0.22732359,-0.22977799,-0.22894967,-0.22489983,-0.22081947,-0.21839571,-0.21756738,-0.21594131,-0.21268922,-0.20943707,-0.2086395,-0.2086395,-0.20943707,-0.20943707,-0.21106315,-0.21268922,-0.21189159,-0.20701343,-0.20050925,-0.19642884,-0.19968086,-0.20455903,-0.20781112,-0.20701343,-0.20538735,-0.20213526,-0.19725722,-0.18829858,-0.17366421,-0.15820146,-0.14844525,-0.14599085,-0.15169734,-0.15820146,-0.15494943,-0.13868904,-0.11021793,-0.0776971,-0.056527913,-0.05164975,-0.05978,-0.06953627,-0.076071024,-0.08012086,-0.08907944,-0.108591914,-0.13381088,-0.15902984,-0.18016839,-0.19725722,-0.21268922,-0.22732359,-0.23790824,-0.24361467,-0.24524075,-0.24361467,-0.24036258,-0.23790824,-0.23548448,-0.23548448,-0.23711056,-0.24116027,-0.24278635,-0.23790824,-0.22327387,-0.18342042,-0.10696584,0.020724416,0.20047867,0.420884,0.656752,0.85767555,0.9821136,1.0,0.88206613,0.6323613,0.30052626,-0.05410415,-0.34854037,-0.5274663,-0.5844084,-0.55268526,-0.4827348,-0.41115832,-0.35504454,-0.32006925,-0.29972845,-0.28997225,-0.28589177,-0.2842657,-0.281842,-0.2769639,-0.26883364,-0.25824904,-0.24929047,-0.24441236,-0.2419886,-0.24036258,-0.23628217,-0.23223239,-0.22732359,-0.22244549,-0.21756738,-0.21351755,-0.2086395,-0.20455903,-0.19888318,-0.19317675,-0.18667257,-0.18179446,-0.17771399,-0.17120981,-0.16307962,-0.15415174,-0.14599085,-0.13948673,-0.13135648,-0.119974196,-0.105339825,-0.08987707,-0.0776971,-0.06628412,-0.055730224,-0.041095853,-0.024804771,-0.009372771,0.0069184303,0.02480483,0.044317245,0.064658165,0.08091855,0.09475529,0.11018741,0.12727606,0.14436483,0.15899932,0.16958392,0.17688572,0.18421817,0.19072247,0.19314611,0.19314611,0.18826807,0.17851174,0.1655035,0.14599097,0.12160027,0.09150326,0.05732572,0.018300653,-0.024007022,-0.067112505,-0.1093896,-0.15007132,-0.18667257,-0.2191934,-0.24603844,-0.26392484,-0.2745095,-0.281842,-0.28997225,-0.29890013,-0.30623257,-0.30948466,-0.30948466,-0.30868697,-0.30785865,-0.30868697,-0.30785865,-0.30460662,-0.29810238,-0.29076988,-0.28263968,-0.27776158,-0.27613556,-0.2769639,-0.27613556,-0.2712574,-0.2655509,-0.2615012,-0.2615012,-0.2655509,-0.26963133,-0.2680053,-0.2631272,-0.25824904,-0.25499696,-0.25416863,-0.25579464,-0.25742072,-0.2615012,-0.26392484,-0.2655509,-0.26637924,-0.26717693,-0.26717693,-0.26475316,-0.26229888,-0.25904673,-0.25987512,-0.26392484,-0.2680053,-0.26963133,-0.26883364,-0.26717693,-0.2680053,-0.2712574,-0.27533787,-0.27533787,-0.27288342,-0.2704597,-0.26883364,-0.2704597,-0.27208573,-0.27288342,-0.2737118,-0.27288342,-0.27208573,-0.2712574,-0.26963133,-0.26963133,-0.26963133,-0.2704597,-0.26883364,-0.26637924,-0.2631272,-0.2606728,-0.2615012,-0.2631272,-0.26475316,-0.26637924,-0.26637924,-0.26475316,-0.26229888,-0.2615012,-0.26475316,-0.2680053,-0.2680053,-0.2631272,-0.25662303,-0.25091648,-0.24929047,-0.25091648,-0.25337088,-0.25337088,-0.25337088,-0.25254256,-0.25254256,-0.25337088,-0.25337088,-0.25254256,-0.24929047,-0.24524075,-0.24278635,-0.24278635,-0.24441236,-0.24441236,-0.24441236,-0.24278635,-0.24278635,-0.24524075,-0.24441236,-0.23711056,-0.22489983,-0.21026552,-0.19968086,-0.19400513,-0.19237906,-0.19237906,-0.19400513,-0.19400513,-0.18584418,-0.1671601,-0.14273876,-0.119974196,-0.108591914,-0.108591914,-0.11264163,-0.11755043,-0.12405461,-0.13706297,-0.15740377,-0.18179446,-0.20293295,-0.22081947,-0.23711056,-0.25416863,-0.27288342,-0.28834617,-0.2948503,-0.29564798,-0.2923959,-0.28672016,-0.281842,-0.27858996,-0.27776158,-0.27776158,-0.281842,-0.2842657,-0.281842,-0.26963133,-0.23385847,-0.16228193,-0.038641453,0.14028454,0.36314428,0.6063447,0.81699383,0.94876444,0.96827686,0.8454647,0.59088194,0.25416875,-0.102885365,-0.39977598,-0.581954,-0.6388961,-0.60554695,-0.53234446,-0.45993954,-0.40628016,-0.37130493,-0.34933805,-0.3363297,-0.33145165,-0.33062327,-0.32737118,-0.32169533,-0.31356514,-0.30623257,-0.30215222,-0.29564798,-0.28834617,-0.2793876,-0.2704597,-0.26637924,-0.2655509,-0.26392484,-0.25904673,-0.25254256,-0.24766445,-0.24361467,-0.24116027,-0.23873651,-0.23223239,-0.22327387,-0.21189159,-0.20213526,-0.19237906,-0.1850465,-0.17934006,-0.17203826,-0.16307962,-0.15169734,-0.14194107,-0.13135648,-0.12160021,-0.10696584,-0.087453365,-0.067112505,-0.04839766,-0.032934904,-0.018300593,-0.00041413307,0.019098401,0.038610816,0.05732572,0.07604051,0.09392691,0.11018741,0.12402403,0.13623464,0.14761698,0.15820158,0.16875553,0.17363358,0.17525971,0.17525971,0.17283607,0.16633177,0.15329278,0.13215423,0.1045115,0.07358611,0.041065216,0.0069184303,-0.028885186,-0.067112505,-0.10776353,-0.14844525,-0.18829858,-0.2216478,-0.2501189,-0.27208573,-0.29159826,-0.30948466,-0.32494742,-0.33307767,-0.33470368,-0.33307767,-0.33062327,-0.33062327,-0.33145165,-0.32982558,-0.32737118,-0.3265735,-0.3257451,-0.3241191,-0.32006925,-0.3151912,-0.31111073,-0.30540425,-0.29810238,-0.28834617,-0.2810136,-0.27858996,-0.2793876,-0.281842,-0.2810136,-0.27858996,-0.27858996,-0.281842,-0.28751785,-0.29076988,-0.29159826,-0.28914386,-0.28672016,-0.28672016,-0.28834617,-0.28997225,-0.2923959,-0.29402196,-0.29564798,-0.29727405,-0.30135453,-0.30540425,-0.30868697,-0.30868697,-0.30540425,-0.30215222,-0.30135453,-0.30377823,-0.30623257,-0.30623257,-0.30623257,-0.30868697,-0.31031305,-0.3127368,-0.31436282,-0.31356514,-0.3127368,-0.31111073,-0.30785865,-0.30460662,-0.30460662,-0.30540425,-0.30623257,-0.30706102,-0.30706102,-0.30868697,-0.30785865,-0.30377823,-0.29810238,-0.29322428,-0.2923959,-0.29647636,-0.29972845,-0.30135453,-0.29972845,-0.29727405,-0.29647636,-0.29810238,-0.30052614,-0.30052614,-0.29727405,-0.29322428,-0.28997225,-0.28589177,-0.28263968,-0.2810136,-0.28021592,-0.28021592,-0.281842,-0.281842,-0.2810136,-0.281842,-0.28509408,-0.28751785,-0.2842657,-0.2769639,-0.2704597,-0.26392484,-0.25904673,-0.25337088,-0.24524075,-0.23628217,-0.22977799,-0.22815192,-0.22977799,-0.22977799,-0.22732359,-0.21189159,-0.18259215,-0.14924294,-0.12485236,-0.12080252,-0.13135648,-0.14519316,-0.15332341,-0.1614536,-0.17608798,-0.19725722,-0.22327387,-0.24603844,-0.26717693,-0.28589177,-0.30052614,-0.31031305,-0.31436282,-0.31356514,-0.31356514,-0.31356514,-0.31356514,-0.31111073,-0.31031305,-0.31111073,-0.3151912,-0.32086694,-0.31761497,-0.30623257,-0.2769639,-0.21756738,-0.119974196,0.03130901,0.23462546,0.47782612,0.71694624,0.89182234,0.9593184,0.8869442,0.6657107,0.3379252,-0.027259171,-0.35584223,-0.5779042,-0.6738714,-0.66574115,-0.60554695,-0.5339705,-0.4721502,-0.424995,-0.3908174,-0.3688506,-0.35746825,-0.35584223,-0.35584223,-0.35259014,-0.34528828,-0.33387536,-0.3241191,-0.3184433,-0.3159889,-0.3127368,-0.30540425,-0.29647636,-0.28997225,-0.28589177,-0.28509408,-0.2810136,-0.27288342,-0.26229888,-0.25174493,-0.24441236,-0.24036258,-0.23873651,-0.23628217,-0.23140407,-0.22244549,-0.21268922,-0.20701343,-0.20293295,-0.19725722,-0.18667257,-0.17203826,-0.15577781,-0.14356709,-0.13381088,-0.12405461,-0.11021793,-0.09312916,-0.076071024,-0.05978,-0.04514557,-0.02805686,-0.0077466965,0.012594223,0.032106638,0.051649928,0.07116234,0.088251114,0.10205722,0.11018741,0.11264181,0.115065455,0.119974256,0.12565005,0.1313566,0.13460863,0.13215423,0.123226404,0.10530925,0.079292536,0.04919541,0.015846252,-0.022381008,-0.064658105,-0.108591914,-0.14924294,-0.1850465,-0.21514362,-0.24524075,-0.27533787,-0.30298054,-0.3257451,-0.34363157,-0.35746825,-0.36642683,-0.3704766,-0.3680529,-0.36397243,-0.36072034,-0.36154872,-0.36234635,-0.35909432,-0.35584223,-0.35179245,-0.35016644,-0.34933805,-0.34691435,-0.34283394,-0.33550137,-0.32982558,-0.32494742,-0.32169533,-0.32086694,-0.32086694,-0.32086694,-0.31924093,-0.3184433,-0.31924093,-0.32169533,-0.3265735,-0.32737118,-0.32249302,-0.3151912,-0.30785865,-0.30623257,-0.31031305,-0.3151912,-0.3184433,-0.32006925,-0.32086694,-0.32249302,-0.32494742,-0.3281995,-0.3289972,-0.3289972,-0.32737118,-0.3241191,-0.3233214,-0.3265735,-0.33062327,-0.33470368,-0.3371274,-0.33795577,-0.3395818,-0.34120786,-0.3420055,-0.3395818,-0.33387536,-0.33062327,-0.3265735,-0.3257451,-0.3257451,-0.3265735,-0.3281995,-0.3265735,-0.32494742,-0.32249302,-0.32086694,-0.32086694,-0.32086694,-0.32006925,-0.31761497,-0.31761497,-0.31924093,-0.32086694,-0.32086694,-0.3184433,-0.3151912,-0.31436282,-0.31356514,-0.31031305,-0.29890013,-0.28672016,-0.2745095,-0.2655509,-0.2615012,-0.2606728,-0.2606728,-0.25987512,-0.25091648,-0.23548448,-0.21676964,-0.20213526,-0.19888318,-0.20213526,-0.20293295,-0.19725722,-0.19317675,-0.19968086,-0.2191934,-0.24686676,-0.2737118,-0.29322428,-0.30948466,-0.32494742,-0.34120786,-0.35016644,-0.35096407,-0.34691435,-0.3420055,-0.3395818,-0.33795577,-0.3395818,-0.34120786,-0.3444599,-0.34933805,-0.34771204,-0.33795577,-0.31924093,-0.28263968,-0.2191934,-0.1142984,0.0418936,0.2411604,0.4656155,0.6657107,0.7950268,0.81861985,0.71289647,0.48190653,0.16875553,-0.1647057,-0.44775957,-0.6250595,-0.6860513,-0.66003466,-0.5965884,-0.5315161,-0.4778567,-0.43717498,-0.40707785,-0.38756537,-0.3786068,-0.3761831,-0.3737287,-0.3688506,-0.35909432,-0.34933805,-0.3420055,-0.33795577,-0.33224922,-0.32737118,-0.3233214,-0.3184433,-0.31356514,-0.30623257,-0.2948503,-0.283468,-0.27533787,-0.27288342,-0.27208573,-0.26883364,-0.2631272,-0.25662303,-0.25091648,-0.24603844,-0.24036258,-0.23060638,-0.22002178,-0.21106315,-0.20293295,-0.19563115,-0.18829858,-0.17934006,-0.16958374,-0.15820146,-0.14436477,-0.12810433,-0.11021793,-0.09312916,-0.07361668,-0.052478135,-0.03130889,-0.0109987855,0.006090045,0.021552682,0.035358787,0.04919541,0.06303215,0.07604051,0.08987725,0.10125947,0.10776365,0.11264181,0.11669147,0.118317604,0.11914587,0.11101568,0.09067488,0.061406016,0.027228594,-0.008544326,-0.045974016,-0.084998965,-0.123226285,-0.1614536,-0.19642884,-0.23140407,-0.26637924,-0.30052614,-0.3281995,-0.34771204,-0.36154872,-0.37130493,-0.3786068,-0.3834849,-0.3834849,-0.3810612,-0.3786068,-0.3786068,-0.3810612,-0.38268727,-0.38268727,-0.3810612,-0.3778091,-0.37455702,-0.3696789,-0.36397243,-0.35829663,-0.35341847,-0.34933805,-0.34528828,-0.34363157,-0.34120786,-0.33875346,-0.33550137,-0.33307767,-0.33387536,-0.33550137,-0.3371274,-0.33550137,-0.3281995,-0.32086694,-0.31681722,-0.31761497,-0.32249302,-0.3241191,-0.3233214,-0.32249302,-0.3233214,-0.3281995,-0.33145165,-0.33062327,-0.3265735,-0.32086694,-0.31924093,-0.32169533,-0.32737118,-0.33307767,-0.3371274,-0.3371274,-0.33387536,-0.33307767,-0.33307767,-0.33387536,-0.33470368,-0.33145165,-0.32737118,-0.3241191,-0.32169533,-0.32169533,-0.32169533,-0.3233214,-0.3257451,-0.3289972,-0.33062327,-0.32737118,-0.32169533,-0.31681722,-0.31193912,-0.30623257,-0.29727405,-0.28834617,-0.27858996,-0.2712574,-0.26717693,-0.2615012,-0.25742072,-0.25254256,-0.24766445,-0.2395342,-0.2265259,-0.21431524,-0.20538735,-0.20455903,-0.20781112,-0.21106315,-0.21351755,-0.21756738,-0.22489983,-0.23628217,-0.24766445,-0.25987512,-0.2737118,-0.29076988,-0.31193912,-0.33145165,-0.34283394,-0.34528828,-0.34120786,-0.3363297,-0.33224922,-0.3281995,-0.3241191,-0.32086694,-0.31681722,-0.31681722,-0.32006925,-0.31761497,-0.30868697,-0.2793876,-0.21594131,-0.11021793,0.04514575,0.24033213,0.46319163,0.669791,0.80966127,0.853595,0.77143395,0.5616132,0.26634872,-0.064658105,-0.36317474,-0.56406754,-0.6470263,-0.6315636,-0.56731963,-0.49736917,-0.43962938,-0.39569557,-0.36234635,-0.3420055,-0.33224922,-0.33307767,-0.33387536,-0.3289972,-0.32169533,-0.31436282,-0.30868697,-0.30623257,-0.30215222,-0.29647636,-0.28834617,-0.2793876,-0.27208573,-0.26392484,-0.25904673,-0.25579464,-0.25254256,-0.2501189,-0.24441236,-0.23711056,-0.22977799,-0.2240715,-0.2191934,-0.21351755,-0.20455903,-0.19400513,-0.18179446,-0.17041218,-0.15982753,-0.15086901,-0.14194107,-0.1321848,-0.12160021,-0.10696584,-0.09312916,-0.07932311,-0.06303203,-0.04514557,-0.024007022,-0.0028685331,0.015048623,0.030480623,0.04594338,0.06382978,0.080090284,0.09638131,0.10938966,0.12239802,0.13623464,0.15004075,0.16062534,0.16633177,0.1671294,0.16633177,0.16387737,0.15574718,0.1411128,0.11589384,0.08337307,0.04514575,0.006090045,-0.032137334,-0.06873858,-0.10451144,-0.14111274,-0.17854238,-0.21351755,-0.24441236,-0.2680053,-0.28751785,-0.30298054,-0.3184433,-0.33062327,-0.3371274,-0.3371274,-0.33470368,-0.33062327,-0.32982558,-0.32982558,-0.33062327,-0.32982558,-0.32737118,-0.32494742,-0.32169533,-0.32169533,-0.32006925,-0.31681722,-0.31193912,-0.30377823,-0.29810238,-0.29564798,-0.29564798,-0.29564798,-0.29322428,-0.28997225,-0.28751785,-0.28834617,-0.28914386,-0.28509408,-0.2810136,-0.2769639,-0.27533787,-0.2769639,-0.2793876,-0.2793876,-0.2793876,-0.2793876,-0.2810136,-0.2810136,-0.2810136,-0.281842,-0.283468,-0.28509408,-0.283468,-0.28263968,-0.2810136,-0.2810136,-0.283468,-0.28509408,-0.28751785,-0.28914386,-0.2923959,-0.29647636,-0.29810238,-0.29890013,-0.29972845,-0.29810238,-0.2948503,-0.28834617,-0.2842657,-0.283468,-0.28509408,-0.28672016,-0.28672016,-0.28672016,-0.28672016,-0.28751785,-0.28914386,-0.28751785,-0.28509408,-0.2810136,-0.2769639,-0.27288342,-0.26963133,-0.2680053,-0.26717693,-0.26717693,-0.2680053,-0.26717693,-0.2655509,-0.26229888,-0.25742072,-0.24849284,-0.23465616,-0.2191934,-0.20781112,-0.20293295,-0.20293295,-0.20455903,-0.20050925,-0.19075298,-0.17608798,-0.1614536,-0.15169734,-0.14761686,-0.14924294,-0.15007132,-0.15007132,-0.15332341,-0.163908,-0.18421811,-0.2086395,-0.23060638,-0.24686676,-0.2606728,-0.27533787,-0.2923959,-0.30785865,-0.3127368,-0.31031305,-0.30377823,-0.29727405,-0.29564798,-0.29647636,-0.29972845,-0.30135453,-0.30460662,-0.30948466,-0.30868697,-0.30052614,-0.27208573,-0.2086395,-0.10208768,0.056527972,0.25742078,0.48515856,0.70314014,0.86335135,0.9341302,0.88206613,0.69255555,0.39406967,0.04594338,-0.2793876,-0.50875145,-0.6153032,-0.6185553,-0.56486523,-0.49491477,-0.4347512,-0.39001977,-0.35992265,-0.3420055,-0.33387536,-0.33145165,-0.33224922,-0.33145165,-0.32737118,-0.31681722,-0.30540425,-0.29402196,-0.28751785,-0.28509408,-0.28263968,-0.2810136,-0.2769639,-0.2712574,-0.2655509,-0.25904673,-0.25499696,-0.25174493,-0.24766445,-0.24116027,-0.23060638,-0.2216478,-0.21431524,-0.21026552,-0.20538735,-0.19725722,-0.18829858,-0.17854238,-0.17203826,-0.1647057,-0.15740377,-0.14519316,-0.1297304,-0.11264163,-0.09558356,-0.08012086,-0.06548643,-0.050023735,-0.032137334,-0.011796415,0.009342074,0.028854609,0.04594338,0.06057775,0.07521212,0.09392691,0.11101568,0.12647843,0.13703239,0.14353657,0.15166664,0.15899932,0.1655035,0.16875553,0.1655035,0.15820158,0.14516258,0.12485242,0.09880507,0.07033396,0.041065216,0.008544445,-0.02805686,-0.06873858,-0.111844,-0.15086901,-0.18584418,-0.21594131,-0.24278635,-0.26717693,-0.28672016,-0.30215222,-0.3127368,-0.31924093,-0.32249302,-0.3241191,-0.32494742,-0.3257451,-0.3265735,-0.3241191,-0.31924093,-0.31356514,-0.30868697,-0.30540425,-0.30377823,-0.30215222,-0.30135453,-0.29727405,-0.29159826,-0.28509408,-0.27776158,-0.27288342,-0.2704597,-0.2704597,-0.2712574,-0.2704597,-0.26963133,-0.26883364,-0.2680053,-0.26963133,-0.2704597,-0.27288342,-0.2745095,-0.27533787,-0.2745095,-0.2712574,-0.2680053,-0.26883364,-0.27208573,-0.2769639,-0.28021592,-0.28263968,-0.281842,-0.28263968,-0.2842657,-0.28589177,-0.28672016,-0.28589177,-0.28509408,-0.283468,-0.28021592,-0.28021592,-0.28021592,-0.2810136,-0.283468,-0.283468,-0.283468,-0.2842657,-0.28509408,-0.28589177,-0.2842657,-0.281842,-0.27858996,-0.27613556,-0.2745095,-0.27208573,-0.2704597,-0.27208573,-0.2745095,-0.2769639,-0.27613556,-0.2745095,-0.27288342,-0.2737118,-0.27533787,-0.2745095,-0.27208573,-0.2680053,-0.26717693,-0.26883364,-0.27208573,-0.2737118,-0.2737118,-0.2704597,-0.26637924,-0.2606728,-0.25662303,-0.25579464,-0.25662303,-0.25987512,-0.2606728,-0.25987512,-0.25824904,-0.25579464,-0.24849284,-0.23628217,-0.22244549,-0.21026552,-0.20293295,-0.20130694,-0.20213526,-0.20213526,-0.19725722,-0.18421811,-0.15982753,-0.13135648,-0.111844,-0.106137514,-0.11264163,-0.12160021,-0.123226285,-0.122428596,-0.13055885,-0.15007132,-0.1769163,-0.20213526,-0.22244549,-0.2395342,-0.25742072,-0.2745095,-0.28589177,-0.28997225,-0.28997225,-0.29076988,-0.29159826,-0.29076988,-0.28914386,-0.28672016,-0.28509408,-0.28914386,-0.2923959,-0.28914386,-0.2769639,-0.24116027,-0.16795772,-0.050023735,0.11914587,0.32979488,0.56403697,0.7771404,0.92191947,0.96339893,0.86743176,0.6307353,0.3013239,-0.057356298,-0.36642683,-0.56081545,-0.6315636,-0.608799,-0.542929,-0.4746046,-0.41846013,-0.3761831,-0.34608597,-0.3257451,-0.31681722,-0.3151912,-0.3151912,-0.31193912,-0.30377823,-0.29322428,-0.28509408,-0.2793876,-0.27613556,-0.2737118,-0.2712574,-0.26717693,-0.26229888,-0.25499696,-0.24686676,-0.23790824,-0.23140407,-0.22732359,-0.22327387,-0.21676964,-0.20943707,-0.20293295,-0.19888318,-0.19642884,-0.19317675,-0.18584418,-0.1744619,-0.16307962,-0.15252572,-0.14273876,-0.13381088,-0.12405461,-0.11264163,-0.10125941,-0.087453365,-0.07361668,-0.058982313,-0.043519616,-0.027259171,-0.0077466965,0.014220238,0.036187172,0.056527972,0.07521212,0.09067488,0.106137514,0.119974256,0.13215423,0.14273882,0.15249515,0.16062534,0.1671294,0.16875553,0.1679579,0.1679579,0.16470575,0.15737331,0.14028454,0.114267826,0.08091855,0.04269135,0.0036662817,-0.037843764,-0.07932311,-0.11834812,-0.15332341,-0.18584418,-0.21594131,-0.24278635,-0.2680053,-0.28997225,-0.30623257,-0.31924093,-0.32737118,-0.3289972,-0.3289972,-0.32982558,-0.33224922,-0.33307767,-0.3289972,-0.32169533,-0.3151912,-0.3127368,-0.31193912,-0.30868697,-0.30298054,-0.29564798,-0.29159826,-0.28997225,-0.28834617,-0.28751785,-0.28672016,-0.28751785,-0.28672016,-0.2842657,-0.2793876,-0.27613556,-0.2769639,-0.27858996,-0.27776158,-0.27533787,-0.27208573,-0.2737118,-0.27613556,-0.2793876,-0.283468,-0.28509408,-0.28672016,-0.28751785,-0.28589177,-0.2842657,-0.2842657,-0.28834617,-0.2923959,-0.29564798,-0.29727405,-0.29890013,-0.30135453,-0.30377823,-0.30215222,-0.29810238,-0.29322428,-0.29402196,-0.30052614,-0.31031305,-0.3159889,-0.3159889,-0.3127368,-0.30706102,-0.30298054,-0.30135453,-0.30135453,-0.30052614,-0.29972845,-0.29564798,-0.29322428,-0.29402196,-0.29810238,-0.30052614,-0.29972845,-0.29647636,-0.2948503,-0.29647636,-0.30215222,-0.30377823,-0.29972845,-0.29402196,-0.28997225,-0.28914386,-0.29159826,-0.2948503,-0.29727405,-0.29810238,-0.29727405,-0.2948503,-0.29159826,-0.29159826,-0.29402196,-0.2948503,-0.2923959,-0.28914386,-0.28509408,-0.283468,-0.283468,-0.2810136,-0.2745095,-0.26392484,-0.25416863,-0.24603844,-0.24036258,-0.23790824,-0.23873651,-0.23711056,-0.22569752,-0.20376134,-0.1744619,-0.14924294,-0.13786066,-0.14031506,-0.15007132,-0.1565755,-0.16065586,-0.17041218,-0.18992466,-0.21514362,-0.24036258,-0.2631272,-0.2810136,-0.2948503,-0.30785865,-0.3159889,-0.32169533,-0.3241191,-0.3257451,-0.3241191,-0.32169533,-0.32086694,-0.32006925,-0.3184433,-0.31356514,-0.30623257,-0.29647636,-0.28672016,-0.25904673,-0.19968086,-0.08907944,0.07766664,0.2931937,0.53556585,0.75354743,0.89344835,0.91946507,0.80803525,0.5616132,0.2305758,-0.12405461,-0.424995,-0.6128488,-0.674669,-0.64214826,-0.5681173,-0.49654078,-0.4436791,-0.40465415,-0.3761831,-0.35421622,-0.34037948,-0.33307767,-0.3281995,-0.3241191,-0.3184433,-0.3127368,-0.30948466,-0.30460662,-0.29972845,-0.28997225,-0.2793876,-0.2712574,-0.2615012,-0.25499696,-0.25091648,-0.24766445,-0.24686676,-0.24361467,-0.23790824,-0.23140407,-0.2265259,-0.22327387,-0.21594131,-0.20781112,-0.19805485,-0.18909627,-0.1850465,-0.17854238,-0.16795772,-0.15415174,-0.14194107,-0.13298249,-0.12485236,-0.11592436,-0.10371375,-0.088250995,-0.07199067,-0.053275824,-0.035389423,-0.01587689,0.0036662817,0.019098401,0.032935143,0.046771765,0.061406016,0.07604051,0.08904874,0.10125947,0.114267826,0.12727606,0.13948679,0.14761698,0.15004075,0.14841461,0.14599097,0.1411128,0.12810457,0.10776365,0.08091855,0.050023913,0.013422489,-0.026430786,-0.06953627,-0.11264163,-0.15252572,-0.18667257,-0.21756738,-0.24686676,-0.27288342,-0.29647636,-0.31681722,-0.33387536,-0.34528828,-0.35259014,-0.35584223,-0.35829663,-0.36072034,-0.36317474,-0.36480075,-0.36317474,-0.36154872,-0.36072034,-0.35667062,-0.35016644,-0.34120786,-0.33307767,-0.3281995,-0.3265735,-0.32737118,-0.3265735,-0.32494742,-0.3241191,-0.32086694,-0.31761497,-0.3159889,-0.31356514,-0.31436282,-0.3151912,-0.31681722,-0.31761497,-0.31761497,-0.3159889,-0.3127368,-0.31193912,-0.31436282,-0.3184433,-0.3257451,-0.33307767,-0.33224922,-0.3289972,-0.3257451,-0.32494742,-0.32737118,-0.33387536,-0.33795577,-0.34037948,-0.34037948,-0.33795577,-0.33387536,-0.33145165,-0.33145165,-0.33550137,-0.33875346,-0.34037948,-0.34037948,-0.33795577,-0.33470368,-0.33145165,-0.3265735,-0.3241191,-0.3233214,-0.3257451,-0.32737118,-0.32737118,-0.32494742,-0.32169533,-0.32086694,-0.32249302,-0.3233214,-0.3241191,-0.32494742,-0.32249302,-0.3184433,-0.3127368,-0.30868697,-0.30785865,-0.3127368,-0.3184433,-0.32249302,-0.32086694,-0.3151912,-0.30623257,-0.29564798,-0.28589177,-0.27613556,-0.26883364,-0.2615012,-0.25499696,-0.2501189,-0.24278635,-0.23465616,-0.2265259,-0.21431524,-0.20538735,-0.20050925,-0.19968086,-0.20050925,-0.20050925,-0.20050925,-0.2061851,-0.22081947,-0.24441236,-0.26883364,-0.28751785,-0.30052614,-0.31111073,-0.32169533,-0.3289972,-0.33224922,-0.33145165,-0.32982558,-0.32982558,-0.33062327,-0.33145165,-0.33062327,-0.32737118,-0.3233214,-0.31436282,-0.30215222,-0.281842,-0.24278635,-0.1744619,-0.05490184,0.11589384,0.3306234,0.5534831,0.72670245,0.8129134,0.7868967,0.6348158,0.37452638,0.054073572,-0.26637924,-0.5128319,-0.63969386,-0.6535305,-0.5990428,-0.5242142,-0.46076792,-0.4152081,-0.38268727,-0.36072034,-0.34771204,-0.34037948,-0.3363297,-0.33145165,-0.3265735,-0.32006925,-0.3127368,-0.30623257,-0.29972845,-0.2948503,-0.28834617,-0.28263968,-0.27776158,-0.2745095,-0.27288342,-0.2712574,-0.26637924,-0.25824904,-0.25091648,-0.24441236,-0.23790824,-0.23385847,-0.22815192,-0.2216478,-0.21514362,-0.20781112,-0.20050925,-0.19237906,-0.18421811,-0.1744619,-0.16633171,-0.1565755,-0.14436477,-0.13055885,-0.11834812,-0.105339825,-0.090705514,-0.07199067,-0.050023735,-0.028885186,-0.010170341,0.006090045,0.023178816,0.04269135,0.06303215,0.080090284,0.09475529,0.106137514,0.11589384,0.12402403,0.13378024,0.14436483,0.15329278,0.15899932,0.15737331,0.149243,0.13540637,0.11589384,0.09230089,0.05978,0.023976445,-0.015048504,-0.05490184,-0.09475523,-0.13543689,-0.17203826,-0.20455903,-0.23140407,-0.25499696,-0.27858996,-0.29810238,-0.31436282,-0.3281995,-0.33795577,-0.34528828,-0.34933805,-0.35016644,-0.34933805,-0.34933805,-0.34933805,-0.34771204,-0.34283394,-0.33550137,-0.32982558,-0.3257451,-0.3233214,-0.31924093,-0.31356514,-0.30868697,-0.30868697,-0.30868697,-0.30623257,-0.30215222,-0.29564798,-0.29159826,-0.29076988,-0.2923959,-0.2923959,-0.29159826,-0.29076988,-0.28914386,-0.28997225,-0.29159826,-0.2948503,-0.29727405,-0.29727405,-0.29402196,-0.29159826,-0.29076988,-0.2948503,-0.29890013,-0.30135453,-0.30135453,-0.30052614,-0.30135453,-0.30540425,-0.30868697,-0.31193912,-0.3127368,-0.31356514,-0.31031305,-0.30540425,-0.29972845,-0.29647636,-0.29890013,-0.30460662,-0.30868697,-0.30948466,-0.30948466,-0.30948466,-0.31193912,-0.31111073,-0.30706102,-0.30052614,-0.2948503,-0.29159826,-0.29076988,-0.2923959,-0.2948503,-0.29810238,-0.29972845,-0.29810238,-0.29322428,-0.28914386,-0.28751785,-0.28834617,-0.28914386,-0.283468,-0.27288342,-0.2606728,-0.2501189,-0.2419886,-0.23711056,-0.23385847,-0.22977799,-0.2265259,-0.22244549,-0.21756738,-0.20943707,-0.19968086,-0.18747026,-0.17854238,-0.1744619,-0.17529029,-0.17854238,-0.18259215,-0.19075298,-0.20213526,-0.21676964,-0.23385847,-0.24849284,-0.2615012,-0.27613556,-0.2923959,-0.30706102,-0.3159889,-0.3184433,-0.3159889,-0.31111073,-0.30706102,-0.30377823,-0.30135453,-0.29972845,-0.30215222,-0.30540425,-0.30460662,-0.29564798,-0.25662303,-0.18096614,-0.058982313,0.11101568,0.31924105,0.54697883,0.7462456,0.8723098,0.89507437,0.7852707,0.5510286,0.23462546,-0.10696584,-0.39732158,-0.5779042,-0.6372701,-0.6095967,-0.542929,-0.47377622,-0.4200862,-0.38268727,-0.35746825,-0.3444599,-0.34120786,-0.3420055,-0.3395818,-0.33307767,-0.3257451,-0.31761497,-0.31111073,-0.30623257,-0.30460662,-0.30298054,-0.29890013,-0.29076988,-0.27858996,-0.2680053,-0.26229888,-0.25904673,-0.25579464,-0.25174493,-0.24766445,-0.24441236,-0.2395342,-0.23303008,-0.22569752,-0.21756738,-0.21189159,-0.20701343,-0.19805485,-0.18584418,-0.17366421,-0.16228193,-0.15415174,-0.14681917,-0.13706297,-0.123226285,-0.1093896,-0.09233147,-0.07524276,-0.057356298,-0.03946978,-0.021552742,-0.0012425184,0.021552682,0.044317245,0.06382978,0.079292536,0.09067488,0.10205722,0.114267826,0.12727606,0.1386584,0.149243,0.15820158,0.16225135,0.1614536,0.15329278,0.13948679,0.120772004,0.09800744,0.06953633,0.036187172,-0.00041413307,-0.041095853,-0.08094919,-0.12160021,-0.16065586,-0.19725722,-0.22977799,-0.25742072,-0.2810136,-0.30298054,-0.32006925,-0.33307767,-0.3420055,-0.34771204,-0.35179245,-0.35421622,-0.35504454,-0.35341847,-0.34933805,-0.34528828,-0.3420055,-0.34037948,-0.3371274,-0.33387536,-0.33062327,-0.3257451,-0.32249302,-0.32006925,-0.3184433,-0.31761497,-0.31436282,-0.31111073,-0.30706102,-0.30706102,-0.30948466,-0.31031305,-0.30785865,-0.29972845,-0.29159826,-0.28914386,-0.29159826,-0.29564798,-0.29810238,-0.29890013,-0.29972845,-0.30052614,-0.30052614,-0.29890013,-0.29890013,-0.30135453,-0.30540425,-0.30948466,-0.30948466,-0.30623257,-0.30215222,-0.29890013,-0.29810238,-0.29810238,-0.30052614,-0.30460662,-0.30948466,-0.31193912,-0.31031305,-0.30706102,-0.30706102,-0.30706102,-0.30868697,-0.30868697,-0.30868697,-0.30868697,-0.30785865,-0.30540425,-0.29972845,-0.29564798,-0.2948503,-0.29564798,-0.29727405,-0.29647636,-0.29564798,-0.2948503,-0.29322428,-0.29076988,-0.28834617,-0.28751785,-0.28914386,-0.29159826,-0.29159826,-0.28834617,-0.2842657,-0.28263968,-0.283468,-0.28589177,-0.28589177,-0.2842657,-0.283468,-0.2842657,-0.28589177,-0.28509408,-0.2842657,-0.283468,-0.283468,-0.283468,-0.28021592,-0.27533787,-0.27208573,-0.2712574,-0.27288342,-0.2737118,-0.2737118,-0.26963133,-0.2615012,-0.2501189,-0.2395342,-0.23060638,-0.22489983,-0.22081947,-0.21756738,-0.21189159,-0.20293295,-0.19155067,-0.1769163,-0.1614536,-0.14924294,-0.14519316,-0.14924294,-0.15332341,-0.15740377,-0.15982753,-0.16633171,-0.18096614,-0.20293295,-0.2265259,-0.24766445,-0.26637924,-0.281842,-0.29564798,-0.30460662,-0.30785865,-0.30785865,-0.30868697,-0.31031305,-0.31111073,-0.31031305,-0.30948466,-0.30785865,-0.30868697,-0.31111073,-0.30706102,-0.29727405,-0.26637924,-0.19805485,-0.08420128,0.084999084,0.29564822,0.52826405,0.7389132,0.88123775,0.92596924,0.83733463,0.6152725,0.29890013,-0.05085206,-0.35667062,-0.5575634,-0.6413199,-0.6315636,-0.57462144,-0.50470173,-0.44288146,-0.39814997,-0.3696789,-0.35584223,-0.35096407,-0.35016644,-0.34854037,-0.3444599,-0.3371274,-0.3289972,-0.32169533,-0.31681722,-0.31193912,-0.30460662,-0.29564798,-0.28672016,-0.2810136,-0.27858996,-0.2769639,-0.27208573,-0.26475316,-0.25904673,-0.25579464,-0.25337088,-0.24929047,-0.2419886,-0.23303008,-0.22244549,-0.21351755,-0.20538735,-0.19888318,-0.19317675,-0.18667257,-0.17854238,-0.16633171,-0.15415174,-0.14273876,-0.1321848,-0.12080252,-0.105339825,-0.08582735,-0.06386042,-0.04189354,-0.023178697,-0.006120622,0.009342074,0.02560258,0.04269135,0.05978,0.076838136,0.08987725,0.10205722,0.114267826,0.12565005,0.13703239,0.14353657,0.1467886,0.14761698,0.14761698,0.14436483,0.13298261,0.11264181,0.082544684,0.047569394,0.015048623,-0.019128919,-0.053275824,-0.08987707,-0.12730676,-0.1647057,-0.19968086,-0.23223239,-0.26229888,-0.28914386,-0.30948466,-0.32737118,-0.34037948,-0.34691435,-0.34933805,-0.34608597,-0.34283394,-0.34363157,-0.34691435,-0.35016644,-0.34854037,-0.34363157,-0.33795577,-0.33307767,-0.32982558,-0.3265735,-0.3241191,-0.32249302,-0.31924093,-0.31436282,-0.30785865,-0.30135453,-0.29972845,-0.29972845,-0.30215222,-0.30215222,-0.30215222,-0.30052614,-0.29972845,-0.29890013,-0.29727405,-0.29647636,-0.29890013,-0.30215222,-0.30298054,-0.30215222,-0.30215222,-0.30298054,-0.30623257,-0.31193912,-0.31436282,-0.31436282,-0.3151912,-0.3159889,-0.31681722,-0.3159889,-0.31681722,-0.31924093,-0.32249302,-0.32494742,-0.3233214,-0.32086694,-0.32006925,-0.32006925,-0.32086694,-0.32086694,-0.32086694,-0.32169533,-0.3241191,-0.3281995,-0.3281995,-0.3265735,-0.32494742,-0.3241191,-0.32249302,-0.31924093,-0.3159889,-0.31436282,-0.31436282,-0.31761497,-0.3184433,-0.3184433,-0.31681722,-0.3151912,-0.31436282,-0.3127368,-0.31356514,-0.31681722,-0.32006925,-0.32086694,-0.31681722,-0.31111073,-0.30706102,-0.30623257,-0.30785865,-0.31031305,-0.31193912,-0.31436282,-0.3151912,-0.3159889,-0.3151912,-0.3159889,-0.3151912,-0.3127368,-0.30948466,-0.30540425,-0.30298054,-0.30540425,-0.30868697,-0.31111073,-0.30948466,-0.30623257,-0.30540425,-0.30623257,-0.30785865,-0.30298054,-0.29159826,-0.2769639,-0.26475316,-0.25742072,-0.25742072,-0.2615012,-0.26392484,-0.2606728,-0.24524075,-0.2191934,-0.19237906,-0.1744619,-0.17283589,-0.18342042,-0.19400513,-0.19888318,-0.20293295,-0.21351755,-0.23223239,-0.25579464,-0.2793876,-0.29810238,-0.31436282,-0.32982558,-0.3420055,-0.35096407,-0.35667062,-0.36072034,-0.36397243,-0.36234635,-0.35746825,-0.35341847,-0.35179245,-0.35504454,-0.35909432,-0.35746825,-0.34771204,-0.32086694,-0.26392484,-0.16307962,-0.009372771,0.19234848,0.43309462,0.6657107,0.83488023,0.90157866,0.8316281,0.6152725,0.29564822,-0.064658105,-0.3916458,-0.6153032,-0.71209866,-0.70639217,-0.6445719,-0.5738238,-0.51608396,-0.4721502,-0.438801,-0.4152081,-0.40302813,-0.40057373,-0.40140206,-0.40140206,-0.39406955,-0.3843133,-0.37455702,-0.36642683,-0.36072034,-0.35584223,-0.35259014,-0.34854037,-0.34283394,-0.3371274,-0.3281995,-0.32006925,-0.3151912,-0.31031305,-0.30623257,-0.30135453,-0.29647636,-0.29076988,-0.28672016,-0.283468,-0.27858996,-0.2704597,-0.26229888,-0.25091648,-0.24036258,-0.22815192,-0.2191934,-0.21189159,-0.20455903,-0.19563115,-0.18016839,-0.1614536,-0.14356709,-0.12810433,-0.1142984,-0.09395754,-0.07199067,-0.04839766,-0.027259171,-0.0126248,0.0028380156,0.016674638,0.030480623,0.043519616,0.054901958,0.06708193,0.07766664,0.08337307,0.084999084,0.0841707,0.084999084,0.085796714,0.08091855,0.06953633,0.046771765,0.015846252,-0.019926667,-0.058153987,-0.09720963,-0.13543689,-0.17366421,-0.21351755,-0.25337088,-0.29076988,-0.32169533,-0.34363157,-0.35829663,-0.3704766,-0.38268727,-0.39489788,-0.40382576,-0.40953225,-0.41115832,-0.41115832,-0.41195595,-0.41195595,-0.41032994,-0.40790623,-0.40219975,-0.39652395,-0.38919145,-0.3834849,-0.3810612,-0.37698072,-0.37210262,-0.3672245,-0.36154872,-0.35746825,-0.35504454,-0.35584223,-0.35909432,-0.36234635,-0.36317474,-0.36154872,-0.35746825,-0.35341847,-0.35259014,-0.35421622,-0.35667062,-0.35746825,-0.35584223,-0.35584223,-0.35584223,-0.35992265,-0.36397243,-0.3672245,-0.372931,-0.37698072,-0.3778091,-0.3761831,-0.37130493,-0.3672245,-0.3672245,-0.3704766,-0.372931,-0.372931,-0.37130493,-0.37130493,-0.37130493,-0.372931,-0.3704766,-0.3672245,-0.36559844,-0.36480075,-0.36642683,-0.3680529,-0.3680529,-0.3672245,-0.36642683,-0.36642683,-0.36559844,-0.36559844,-0.36559844,-0.36559844,-0.36317474,-0.35829663,-0.35259014,-0.35016644,-0.35179245,-0.35667062,-0.35909432,-0.35909432,-0.35829663,-0.35829663,-0.35909432,-0.35746825,-0.35584223,-0.35421622,-0.35421622,-0.35259014,-0.34771204,-0.34120786,-0.33550137,-0.3371274,-0.3420055,-0.34771204,-0.34854037,-0.3444599,-0.3395818,-0.33550137,-0.33145165,-0.3281995,-0.3233214,-0.31681722,-0.30540425,-0.29322428,-0.28263968,-0.2769639,-0.2769639,-0.2793876,-0.27533787,-0.2615012,-0.2395342,-0.2191934,-0.20701343,-0.20538735,-0.20943707,-0.21351755,-0.21756738,-0.22489983,-0.2395342,-0.25987512,-0.281842,-0.30298054,-0.32086694,-0.3371274,-0.35179245,-0.36317474,-0.3688506,-0.37210262,-0.372931,-0.37130493,-0.3688506,-0.36397243,-0.35909432,-0.35504454,-0.35667062,-0.35667062,-0.35179245,-0.33875346,-0.30460662,-0.2395342,-0.12893277,0.032935143,0.24358416,0.48353255,0.6966053,0.82920444,0.8454647,0.7242787,0.47377634,0.14599097,-0.19968086,-0.4876129,-0.66328675,-0.7177745,-0.6844253,-0.6153032,-0.54535276,-0.49003667,-0.44693124,-0.41766244,-0.40140206,-0.39569557,-0.39489788,-0.39244348,-0.38919145,-0.3834849,-0.3778091,-0.3737287,-0.3672245,-0.36317474,-0.35746825,-0.34933805,-0.34120786,-0.33387536,-0.32982558,-0.32737118,-0.3257451,-0.32086694,-0.31193912,-0.30540425,-0.29810238,-0.2923959,-0.28751785,-0.28021592,-0.27208573,-0.2655509,-0.25904673,-0.25416863,-0.24686676,-0.23873651,-0.23060638,-0.2216478,-0.21268922,-0.19888318,-0.18259215,-0.1671601,-0.15332341,-0.13948673,-0.123226285,-0.102885365,-0.081746876,-0.060608268,-0.042721868,-0.024804771,-0.0077466965,0.008544445,0.023976445,0.038610816,0.051649928,0.062203884,0.06953633,0.076838136,0.084999084,0.09230089,0.097179055,0.09475529,0.084999084,0.06953633,0.050821543,0.02480483,-0.0077466965,-0.04760003,-0.090705514,-0.13298249,-0.17366421,-0.21268922,-0.24849284,-0.2810136,-0.30948466,-0.33470368,-0.35829663,-0.38023287,-0.39732158,-0.40790623,-0.41278434,-0.41603643,-0.4200862,-0.42416668,-0.42416668,-0.4200862,-0.41603643,-0.41032994,-0.40628016,-0.40140206,-0.39814997,-0.39569557,-0.39489788,-0.39489788,-0.39406955,-0.3908174,-0.3843133,-0.37698072,-0.3696789,-0.36317474,-0.36234635,-0.36397243,-0.36642683,-0.36559844,-0.36397243,-0.36317474,-0.36317474,-0.36559844,-0.3688506,-0.3696789,-0.3704766,-0.3688506,-0.3680529,-0.3672245,-0.36397243,-0.36397243,-0.36559844,-0.3672245,-0.3696789,-0.3688506,-0.3680529,-0.3688506,-0.37130493,-0.3737287,-0.37210262,-0.3696789,-0.3688506,-0.37130493,-0.37455702,-0.3753547,-0.372931,-0.3696789,-0.3672245,-0.36559844,-0.36559844,-0.36642683,-0.3672245,-0.3680529,-0.3672245,-0.36397243,-0.36154872,-0.35992265,-0.35909432,-0.35829663,-0.35746825,-0.35667062,-0.35667062,-0.35667062,-0.35421622,-0.34854037,-0.3444599,-0.34363157,-0.34528828,-0.34691435,-0.34528828,-0.34283394,-0.34037948,-0.34037948,-0.3395818,-0.33795577,-0.33550137,-0.33387536,-0.33387536,-0.32982558,-0.32494742,-0.32006925,-0.31761497,-0.3184433,-0.31761497,-0.31193912,-0.30460662,-0.29564798,-0.28751785,-0.28021592,-0.27533787,-0.2737118,-0.27208573,-0.26392484,-0.24849284,-0.22732359,-0.20943707,-0.20213526,-0.20293295,-0.2061851,-0.20701343,-0.2086395,-0.21839571,-0.23628217,-0.25824904,-0.27776158,-0.29402196,-0.30948466,-0.3257451,-0.3420055,-0.35179245,-0.35421622,-0.35259014,-0.35016644,-0.35016644,-0.35016644,-0.35016644,-0.34933805,-0.35016644,-0.35179245,-0.34608597,-0.3371274,-0.31681722,-0.2737118,-0.19400513,-0.058982313,0.12727606,0.35663998,0.5876298,0.764132,0.85034287,0.8178221,0.6510762,0.37372875,0.0394392,-0.28751785,-0.5331421,-0.66086304,-0.67874944,-0.6299375,-0.56081545,-0.49654078,-0.44775957,-0.4152081,-0.39406955,-0.3834849,-0.3810612,-0.37943518,-0.3761831,-0.3704766,-0.36154872,-0.35179245,-0.34363157,-0.3371274,-0.33224922,-0.3265735,-0.32249302,-0.31924093,-0.3151912,-0.30868697,-0.29972845,-0.28997225,-0.28263968,-0.2793876,-0.2769639,-0.27208573,-0.2655509,-0.25824904,-0.25254256,-0.24849284,-0.2419886,-0.23628217,-0.22894967,-0.2216478,-0.21268922,-0.19725722,-0.18096614,-0.163908,-0.15169734,-0.14273876,-0.13298249,-0.12160021,-0.106137514,-0.087453365,-0.06873858,-0.046771586,-0.025633097,-0.0069182515,0.009342074,0.023178816,0.0369848,0.051649928,0.06870794,0.084999084,0.099633455,0.11181331,0.118317604,0.123226404,0.12485242,0.12485242,0.12239802,0.114267826,0.09880507,0.07441449,0.044317245,0.008544445,-0.029682875,-0.071162224,-0.11509609,-0.15577781,-0.19155067,-0.2240715,-0.25416863,-0.2842657,-0.31356514,-0.33795577,-0.35746825,-0.37210262,-0.3834849,-0.39001977,-0.39406955,-0.39652395,-0.39732158,-0.39977598,-0.40057373,-0.39814997,-0.39327186,-0.3859393,-0.37943518,-0.37455702,-0.3704766,-0.3680529,-0.36642683,-0.36480075,-0.36234635,-0.35909432,-0.35504454,-0.35179245,-0.35259014,-0.35259014,-0.35016644,-0.3444599,-0.3371274,-0.33387536,-0.33470368,-0.3371274,-0.3395818,-0.3395818,-0.3395818,-0.34037948,-0.34120786,-0.3420055,-0.34363157,-0.34608597,-0.35016644,-0.35421622,-0.35341847,-0.35179245,-0.35016644,-0.34933805,-0.35016644,-0.35341847,-0.35667062,-0.36072034,-0.36317474,-0.36317474,-0.36234635,-0.36397243,-0.3672245,-0.37210262,-0.3753547,-0.372931,-0.3672245,-0.36154872,-0.35909432,-0.36154872,-0.36397243,-0.36559844,-0.36397243,-0.36154872,-0.35909432,-0.35829663,-0.35909432,-0.35909432,-0.35746825,-0.35829663,-0.36072034,-0.36317474,-0.36642683,-0.36642683,-0.36234635,-0.35746825,-0.35667062,-0.35746825,-0.35909432,-0.35992265,-0.36072034,-0.36072034,-0.36154872,-0.36154872,-0.35992265,-0.35829663,-0.35667062,-0.35992265,-0.36559844,-0.3688506,-0.3680529,-0.36317474,-0.35584223,-0.34691435,-0.33795577,-0.32982558,-0.32169533,-0.3159889,-0.31111073,-0.30540425,-0.30052614,-0.29402196,-0.28672016,-0.27613556,-0.26392484,-0.25337088,-0.25091648,-0.25499696,-0.25904673,-0.25904673,-0.25904673,-0.2655509,-0.28263968,-0.30706102,-0.3289972,-0.34771204,-0.36397243,-0.3810612,-0.39894766,-0.4152081,-0.424995,-0.4282471,-0.42662102,-0.42416668,-0.42171222,-0.4200862,-0.42091453,-0.42336893,-0.4282471,-0.43149918,-0.4282471,-0.4144104,-0.3753547,-0.29972845,-0.1769163,-0.006120622,0.20293307,0.42904484,0.6250595,0.75517344,0.78609896,0.6868491,0.45993972,0.14353657,-0.20293295,-0.50062126,-0.6909294,-0.76333433,-0.74382186,-0.6811732,-0.6128488,-0.55836105,-0.5242142,-0.50632775,-0.49899518,-0.49491477,-0.48923898,-0.48190647,-0.4746046,-0.46972644,-0.4664744,-0.46322232,-0.45993954,-0.45506144,-0.44938564,-0.44288146,-0.43717498,-0.4339229,-0.43149918,-0.4282471,-0.42171222,-0.41358203,-0.40465415,-0.39894766,-0.39489788,-0.39244348,-0.38919145,-0.3859393,-0.3818589,-0.3761831,-0.3704766,-0.36317474,-0.35584223,-0.34691435,-0.3371274,-0.3257451,-0.3159889,-0.30706102,-0.29564798,-0.2810136,-0.2631272,-0.24441236,-0.22732359,-0.20943707,-0.18992466,-0.16878611,-0.14761686,-0.12893277,-0.111844,-0.09638125,-0.081746876,-0.067112505,-0.055730224,-0.045974016,-0.03456098,-0.024007022,-0.014250815,-0.008544326,-0.008544326,-0.013422489,-0.021552742,-0.03376335,-0.05164975,-0.07686871,-0.10696584,-0.14194107,-0.18096614,-0.22327387,-0.26637924,-0.30540425,-0.34120786,-0.37210262,-0.40302813,-0.43149918,-0.45668745,-0.4778567,-0.49328876,-0.50795376,-0.5185077,-0.5233859,-0.5250119,-0.5242142,-0.52258813,-0.5209621,-0.51771003,-0.51445794,-0.51200354,-0.5128319,-0.5128319,-0.50875145,-0.5014496,-0.49491477,-0.49166268,-0.49003667,-0.4876129,-0.48436087,-0.4802804,-0.4794827,-0.47865433,-0.4770283,-0.47623062,-0.4746046,-0.47623062,-0.47865433,-0.4778567,-0.4770283,-0.47623062,-0.47865433,-0.48190647,-0.48436087,-0.48353243,-0.48110873,-0.48110873,-0.4827348,-0.4851585,-0.4876129,-0.48923898,-0.49328876,-0.49654078,-0.49816686,-0.49491477,-0.49003667,-0.4859869,-0.48353243,-0.4851585,-0.48678458,-0.48923898,-0.49166268,-0.49249107,-0.49249107,-0.49166268,-0.49166268,-0.49491477,-0.49899518,-0.49982357,-0.49654078,-0.490865,-0.4876129,-0.4859869,-0.4859869,-0.4859869,-0.48436087,-0.4851585,-0.4859869,-0.4876129,-0.4884106,-0.4876129,-0.4876129,-0.4884106,-0.4876129,-0.48678458,-0.4827348,-0.4794827,-0.4778567,-0.4770283,-0.4770283,-0.4778567,-0.47865433,-0.47865433,-0.4778567,-0.47623062,-0.4754023,-0.4770283,-0.4778567,-0.47865433,-0.4794827,-0.47623062,-0.4721502,-0.46484834,-0.45343536,-0.44042706,-0.43149918,-0.4257927,-0.42091453,-0.4152081,-0.40790623,-0.40057373,-0.39652395,-0.3916458,-0.38514167,-0.3737287,-0.36154872,-0.35421622,-0.35341847,-0.35584223,-0.35584223,-0.35504454,-0.35992265,-0.372931,-0.39406955,-0.41766244,-0.43800336,-0.45588976,-0.4721502,-0.48678458,-0.50062126,-0.5112059,-0.5193361,-0.5209621,-0.51771003,-0.51200354,-0.50549936,-0.50387335,-0.50549936,-0.50795376,-0.5112059,-0.50632775,-0.49491477,-0.46402,-0.39814997,-0.28751785,-0.12568069,0.079292536,0.31353462,0.5323137,0.69010127,0.7494978,0.67466915,0.45993972,0.14273882,-0.21514362,-0.5372225,-0.75357807,-0.8446671,-0.8340824,-0.77066684,-0.69909036,-0.6413199,-0.59984046,-0.5705717,-0.55023086,-0.5372225,-0.5315161,-0.5290923,-0.5258402,-0.52013373,-0.5128319,-0.50632775,-0.49982357,-0.49249107,-0.48436087,-0.47865433,-0.47623062,-0.47297853,-0.46564603,-0.45426375,-0.44288146,-0.4347512,-0.4322968,-0.43149918,-0.4274187,-0.42091453,-0.4152081,-0.41032994,-0.40465415,-0.39732158,-0.38919145,-0.3834849,-0.3761831,-0.36480075,-0.34854037,-0.33307767,-0.32006925,-0.30948466,-0.29972845,-0.28589177,-0.2704597,-0.25499696,-0.24036258,-0.22569752,-0.2086395,-0.19075298,-0.17203826,-0.14924294,-0.123226285,-0.09800732,-0.076071024,-0.062234342,-0.05085206,-0.040267467,-0.028885186,-0.018300593,-0.0126248,-0.010170341,-0.009372771,-0.010170341,-0.011796415,-0.019128919,-0.03376335,-0.055730224,-0.08337295,-0.11672217,-0.15494943,-0.19480282,-0.23465616,-0.27208573,-0.30948466,-0.34771204,-0.3834849,-0.41766244,-0.44450748,-0.46159625,-0.47377622,-0.48190647,-0.48923898,-0.49654078,-0.50224733,-0.50470173,-0.50307566,-0.49816686,-0.49328876,-0.4884106,-0.4876129,-0.4876129,-0.48436087,-0.4770283,-0.46810043,-0.45993954,-0.45506144,-0.45343536,-0.45180935,-0.44855726,-0.44530517,-0.44288146,-0.44288146,-0.44288146,-0.44288146,-0.44205308,-0.438801,-0.4347512,-0.4322968,-0.43149918,-0.4339229,-0.4363773,-0.43717498,-0.43717498,-0.43717498,-0.43962938,-0.44205308,-0.4436791,-0.44205308,-0.44205308,-0.44288146,-0.4436791,-0.44530517,-0.44450748,-0.44288146,-0.44450748,-0.44693124,-0.44775957,-0.44693124,-0.44450748,-0.4436791,-0.44288146,-0.44205308,-0.4412554,-0.43800336,-0.4339229,-0.4306708,-0.4274187,-0.42416668,-0.42171222,-0.42091453,-0.4200862,-0.4200862,-0.41846013,-0.41766244,-0.41766244,-0.41766244,-0.41766244,-0.4144104,-0.40870392,-0.40382576,-0.39977598,-0.39732158,-0.39489788,-0.39569557,-0.39652395,-0.39652395,-0.39489788,-0.3916458,-0.38756537,-0.3859393,-0.38514167,-0.3859393,-0.3843133,-0.3786068,-0.37210262,-0.36480075,-0.35667062,-0.34933805,-0.3420055,-0.3363297,-0.32982558,-0.3241191,-0.31681722,-0.30948466,-0.30377823,-0.29810238,-0.29159826,-0.2810136,-0.26963133,-0.25824904,-0.2501189,-0.24766445,-0.24686676,-0.24849284,-0.25499696,-0.2680053,-0.28751785,-0.31031305,-0.33307767,-0.35341847,-0.37130493,-0.38756537,-0.40302813,-0.41603643,-0.424995,-0.4257927,-0.4225406,-0.41683412,-0.41358203,-0.41766244,-0.42336893,-0.4298731,-0.4339229,-0.4298731,-0.41928852,-0.39001977,-0.3281995,-0.22489983,-0.070364594,0.12810457,0.36151814,0.59088194,0.7608801,0.83083045,0.7681819,0.5599872,0.24521017,-0.11592436,-0.45018333,-0.6860513,-0.7950575,-0.7950575,-0.7332372,-0.65761095,-0.5941646,-0.54697883,-0.51525563,-0.49491477,-0.4859869,-0.4859869,-0.4884106,-0.48678458,-0.4778567,-0.46564603,-0.45668745,-0.44938564,-0.44530517,-0.44042706,-0.43554896,-0.43149918,-0.4274187,-0.42336893,-0.41683412,-0.41278434,-0.40953225,-0.40465415,-0.39814997,-0.38756537,-0.37943518,-0.3753547,-0.372931,-0.37130493,-0.36642683,-0.35909432,-0.35179245,-0.34528828,-0.33795577,-0.32982558,-0.32169533,-0.3127368,-0.30052614,-0.28589177,-0.2680053,-0.25091648,-0.23548448,-0.2216478,-0.20943707,-0.19317675,-0.17608798,-0.15902984,-0.13948673,-0.11917651,-0.099633396,-0.08094919,-0.06548643,-0.053275824,-0.044347942,-0.03456098,-0.024804771,-0.015048504,-0.006120622,0.0003836155,0.0020096302,-0.0036661625,-0.016674578,-0.03621769,-0.05978,-0.08662498,-0.11917651,-0.1565755,-0.19642884,-0.23628217,-0.27613556,-0.3159889,-0.35504454,-0.38919145,-0.41766244,-0.4363773,-0.45343536,-0.46889812,-0.4827348,-0.49328876,-0.49654078,-0.49654078,-0.49491477,-0.49491477,-0.49574316,-0.49411708,-0.49249107,-0.49003667,-0.48678458,-0.4827348,-0.4770283,-0.46972644,-0.46402,-0.45993954,-0.45751584,-0.45506144,-0.45180935,-0.45018333,-0.44938564,-0.44855726,-0.44693124,-0.44450748,-0.44530517,-0.44775957,-0.44855726,-0.4461335,-0.4436791,-0.44288146,-0.44530517,-0.45018333,-0.45343536,-0.45343536,-0.45263773,-0.45263773,-0.45426375,-0.45668745,-0.46159625,-0.4664744,-0.4705242,-0.47135252,-0.4664744,-0.46239394,-0.46076792,-0.46159625,-0.46402,-0.46402,-0.46402,-0.46727204,-0.47135252,-0.4770283,-0.47865433,-0.4778567,-0.47865433,-0.48190647,-0.4859869,-0.48436087,-0.4794827,-0.4754023,-0.47377622,-0.47623062,-0.4802804,-0.4827348,-0.48436087,-0.4827348,-0.48110873,-0.4778567,-0.4770283,-0.4794827,-0.48110873,-0.4802804,-0.4754023,-0.47297853,-0.47297853,-0.4754023,-0.47865433,-0.4778567,-0.4754023,-0.47377622,-0.47297853,-0.47297853,-0.4721502,-0.4705242,-0.46564603,-0.45914185,-0.45101166,-0.44205308,-0.43554896,-0.4306708,-0.424995,-0.4200862,-0.4144104,-0.41032994,-0.40628016,-0.39977598,-0.3916458,-0.3834849,-0.37943518,-0.3778091,-0.3761831,-0.37698072,-0.3818589,-0.39732158,-0.42171222,-0.44938564,-0.47377622,-0.49003667,-0.50549936,-0.5185077,-0.5274663,-0.53234446,-0.5315161,-0.5290923,-0.5290923,-0.5282639,-0.5274663,-0.52258813,-0.5193361,-0.51608396,-0.5112059,-0.50062126,-0.4721502,-0.41195595,-0.30785865,-0.14924294,0.058154106,0.29564822,0.50875163,0.6469958,0.6754668,0.57216716,0.3395512,0.017472386,-0.33387536,-0.6388961,-0.8340824,-0.9007808,-0.8731381,-0.80481374,-0.7364893,-0.6827992,-0.6405222,-0.6095967,-0.5900842,-0.5803279,-0.5779042,-0.5721978,-0.56649125,-0.5599871,-0.55510896,-0.55023086,-0.5437267,-0.5380202,-0.5331421,-0.5290923,-0.5242142,-0.5168817,-0.5103775,-0.50795376,-0.50632775,-0.5071254,-0.50307566,-0.49654078,-0.4884106,-0.48110873,-0.47623062,-0.4705242,-0.46484834,-0.45831347,-0.45101166,-0.44288146,-0.4331252,-0.4225406,-0.41115832,-0.40057373,-0.38919145,-0.3778091,-0.3672245,-0.35746825,-0.34771204,-0.33307767,-0.31436282,-0.29402196,-0.2745095,-0.25742072,-0.2419886,-0.22489983,-0.2086395,-0.19237906,-0.1769163,-0.163908,-0.15007132,-0.13786066,-0.1297304,-0.12730676,-0.12647831,-0.12160021,-0.11592436,-0.111844,-0.11509609,-0.12893277,-0.14844525,-0.17608798,-0.2061851,-0.2395342,-0.2769639,-0.3159889,-0.35746825,-0.39977598,-0.44042706,-0.4778567,-0.5095798,-0.5339705,-0.55268526,-0.56731963,-0.5779042,-0.5860344,-0.59496236,-0.60309255,-0.61122274,-0.6153032,-0.61447483,-0.61122274,-0.6095967,-0.608799,-0.608799,-0.60717297,-0.60309255,-0.59496236,-0.58683217,-0.578702,-0.5713694,-0.5681173,-0.56731963,-0.56731963,-0.5656936,-0.5599871,-0.5534829,-0.54860485,-0.54697883,-0.54943323,-0.5518569,-0.5534829,-0.55105925,-0.54697883,-0.54210067,-0.5372225,-0.5372225,-0.5404746,-0.54535276,-0.55023086,-0.55023086,-0.55105925,-0.5518569,-0.5534829,-0.55510896,-0.5543113,-0.55268526,-0.5534829,-0.5559373,-0.5575634,-0.55510896,-0.55105925,-0.5461811,-0.54455507,-0.54780716,-0.55023086,-0.5534829,-0.5559373,-0.5575634,-0.5599871,-0.5599871,-0.55836105,-0.5575634,-0.5543113,-0.5518569,-0.54780716,-0.5461811,-0.54697883,-0.54860485,-0.55023086,-0.54860485,-0.54535276,-0.542929,-0.5388485,-0.5339705,-0.5258402,-0.51771003,-0.5095798,-0.50307566,-0.49654078,-0.4859869,-0.4778567,-0.47377622,-0.47377622,-0.4746046,-0.46889812,-0.45751584,-0.4436791,-0.43149918,-0.42416668,-0.42091453,-0.42171222,-0.42662102,-0.43800336,-0.45506144,-0.47297853,-0.4884106,-0.5014496,-0.51608396,-0.5307183,-0.54535276,-0.5559373,-0.5632392,-0.56406754,-0.56406754,-0.56161314,-0.55918944,-0.5575634,-0.55673504,-0.55673504,-0.55836105,-0.5534829,-0.5437267,-0.51771003,-0.46159625,-0.3672245,-0.22327387,-0.03376335,0.19234848,0.41683424,0.5868323,0.6608325,0.61122286,0.4249643,0.13540637,-0.19888318,-0.51608396,-0.7454479,-0.85767543,-0.86580557,-0.80969185,-0.7373177,-0.6738714,-0.6266855,-0.59496236,-0.5738238,-0.56161314,-0.5559373,-0.5518569,-0.54697883,-0.5388485,-0.5282639,-0.5168817,-0.50549936,-0.49328876,-0.48436087,-0.47865433,-0.4778567,-0.4778567,-0.4754023,-0.46810043,-0.45993954,-0.45018333,-0.4436791,-0.44042706,-0.438801,-0.43554896,-0.4282471,-0.41683412,-0.40219975,-0.38756537,-0.3778091,-0.37210262,-0.3672245,-0.35992265,-0.35016644,-0.33875346,-0.3281995,-0.3184433,-0.30868697,-0.2948503,-0.2810136,-0.2655509,-0.24766445,-0.22732359,-0.20538735,-0.18259215,-0.163908,-0.14681917,-0.13055885,-0.11264163,-0.09558356,-0.08012086,-0.067910194,-0.057356298,-0.045974016,-0.035389423,-0.02805686,-0.024804771,-0.025633097,-0.025633097,-0.02805686,-0.035389423,-0.05164975,-0.0776971,-0.11021793,-0.14761686,-0.18667257,-0.2265259,-0.26717693,-0.30460662,-0.34037948,-0.3737287,-0.40465415,-0.4322968,-0.45426375,-0.46889812,-0.47865433,-0.4859869,-0.49166268,-0.49574316,-0.50062126,-0.50307566,-0.50387335,-0.5014496,-0.49736917,-0.49411708,-0.49249107,-0.490865,-0.48678458,-0.4794827,-0.4705242,-0.46402,-0.46076792,-0.45831347,-0.45343536,-0.44855726,-0.44450748,-0.44288146,-0.44205308,-0.4412554,-0.43962938,-0.4347512,-0.4298731,-0.42416668,-0.41928852,-0.41766244,-0.41846013,-0.42091453,-0.42171222,-0.42091453,-0.41766244,-0.41358203,-0.41032994,-0.40870392,-0.40790623,-0.40790623,-0.40953225,-0.41195595,-0.4144104,-0.41032994,-0.40707785,-0.40382576,-0.40302813,-0.40707785,-0.40953225,-0.40870392,-0.40545183,-0.40219975,-0.39977598,-0.39732158,-0.39652395,-0.39569557,-0.39732158,-0.39894766,-0.39732158,-0.39569557,-0.39406955,-0.39406955,-0.39327186,-0.38919145,-0.3834849,-0.3786068,-0.37698072,-0.37698072,-0.3753547,-0.37455702,-0.3753547,-0.3786068,-0.38023287,-0.3786068,-0.37455702,-0.3696789,-0.3696789,-0.37210262,-0.37455702,-0.3761831,-0.37455702,-0.3680529,-0.35667062,-0.3444599,-0.33470368,-0.3289972,-0.3265735,-0.32249302,-0.31356514,-0.30377823,-0.29727405,-0.29322428,-0.28914386,-0.2810136,-0.2704597,-0.26475316,-0.26475316,-0.26883364,-0.2712574,-0.2745095,-0.281842,-0.2948503,-0.31436282,-0.33224922,-0.34854037,-0.36642683,-0.3867677,-0.40545183,-0.41928852,-0.424995,-0.424995,-0.424995,-0.42416668,-0.42336893,-0.42091453,-0.4200862,-0.4200862,-0.42662102,-0.4322968,-0.4298731,-0.41766244,-0.3843133,-0.31681722,-0.2061851,-0.04189354,0.1679579,0.40624964,0.6266856,0.7795948,0.82920444,0.7470434,0.52826405,0.2126894,-0.14111274,-0.45914185,-0.6738714,-0.76575804,-0.75762784,-0.6942122,-0.61938363,-0.55510896,-0.5103775,-0.4827348,-0.46810043,-0.46159625,-0.45831347,-0.45506144,-0.44938564,-0.44288146,-0.4363773,-0.4306708,-0.42662102,-0.42336893,-0.41928852,-0.41358203,-0.40465415,-0.39569557,-0.3867677,-0.3786068,-0.372931,-0.3680529,-0.36317474,-0.35829663,-0.35179245,-0.3444599,-0.3395818,-0.33550137,-0.33307767,-0.32982558,-0.3241191,-0.31436282,-0.30298054,-0.29076988,-0.2793876,-0.26963133,-0.2615012,-0.25416863,-0.24278635,-0.22732359,-0.21106315,-0.19480282,-0.18096614,-0.16795772,-0.15252572,-0.13135648,-0.10696584,-0.08420128,-0.06386042,-0.045974016,-0.03130889,-0.019128919,-0.0069182515,0.0069184303,0.020724416,0.032106638,0.04023695,0.0418936,0.041065216,0.0394392,0.035358787,0.023976445,0.004463911,-0.022381008,-0.052478135,-0.08582735,-0.122428596,-0.16307962,-0.20455903,-0.24361467,-0.2793876,-0.31193912,-0.3444599,-0.37455702,-0.39732158,-0.41358203,-0.42336893,-0.4322968,-0.44205308,-0.45180935,-0.45751584,-0.45914185,-0.45831347,-0.45506144,-0.45018333,-0.4436791,-0.43717498,-0.4331252,-0.4298731,-0.4274187,-0.42336893,-0.41928852,-0.4152081,-0.41115832,-0.40790623,-0.40545183,-0.40465415,-0.40382576,-0.40057373,-0.39489788,-0.38919145,-0.3859393,-0.3867677,-0.38919145,-0.3908174,-0.39001977,-0.38919145,-0.39001977,-0.39001977,-0.39001977,-0.39001977,-0.39001977,-0.39244348,-0.39489788,-0.39652395,-0.39732158,-0.39732158,-0.39732158,-0.39732158,-0.39732158,-0.39814997,-0.39894766,-0.39977598,-0.39894766,-0.39652395,-0.39489788,-0.39406955,-0.39569557,-0.39652395,-0.39569557,-0.39489788,-0.39489788,-0.39732158,-0.39894766,-0.39814997,-0.39732158,-0.39569557,-0.39489788,-0.39244348,-0.38919145,-0.38514167,-0.3834849,-0.38514167,-0.3883937,-0.39001977,-0.3908174,-0.38919145,-0.3867677,-0.3834849,-0.3786068,-0.37455702,-0.37455702,-0.3778091,-0.3818589,-0.38268727,-0.38023287,-0.3778091,-0.37698072,-0.37698072,-0.3778091,-0.3786068,-0.3786068,-0.3778091,-0.3704766,-0.35746825,-0.34283394,-0.33062327,-0.32494742,-0.32169533,-0.3159889,-0.30623257,-0.29647636,-0.28834617,-0.281842,-0.27288342,-0.2606728,-0.2501189,-0.24686676,-0.25091648,-0.25579464,-0.25904673,-0.2606728,-0.26637924,-0.2793876,-0.29647636,-0.3151912,-0.33387536,-0.35259014,-0.37210262,-0.38919145,-0.40219975,-0.40870392,-0.40870392,-0.40545183,-0.40302813,-0.40140206,-0.40219975,-0.40382576,-0.40140206,-0.39814997,-0.39569557,-0.39001977,-0.3818589,-0.35421622,-0.28997225,-0.17934006,-0.014250815,0.19314611,0.43067098,0.6543282,0.8137417,0.87393594,0.79990494,0.58358014,0.26555097,-0.09558356,-0.4225406,-0.6454003,-0.7397413,-0.7283591,-0.66328675,-0.5884582,-0.5274663,-0.4859869,-0.45588976,-0.43717498,-0.4274187,-0.4257927,-0.4257927,-0.424995,-0.41928852,-0.41115832,-0.40302813,-0.39569557,-0.3883937,-0.3818589,-0.3753547,-0.3688506,-0.36234635,-0.35584223,-0.34933805,-0.3444599,-0.34120786,-0.33795577,-0.33307767,-0.3257451,-0.31681722,-0.31031305,-0.30540425,-0.30298054,-0.30135453,-0.29564798,-0.28751785,-0.27533787,-0.2615012,-0.24929047,-0.2395342,-0.23140407,-0.2216478,-0.20943707,-0.19563115,-0.17934006,-0.163908,-0.14681917,-0.12730676,-0.106137514,-0.08420128,-0.06628412,-0.050023735,-0.03456098,-0.016674578,0.0020096302,0.019098401,0.032935143,0.044317245,0.054073572,0.061406016,0.06708193,0.07033396,0.07278848,0.07441449,0.07358611,0.064658165,0.04839778,0.023178816,-0.008544326,-0.045974016,-0.087453365,-0.12647831,-0.163908,-0.19968086,-0.23465616,-0.27208573,-0.30868697,-0.3395818,-0.36317474,-0.3810612,-0.39569557,-0.40707785,-0.4152081,-0.4200862,-0.42171222,-0.42336893,-0.42416668,-0.424995,-0.424995,-0.41928852,-0.41195595,-0.40302813,-0.39406955,-0.38919145,-0.3883937,-0.39001977,-0.38919145,-0.3867677,-0.3810612,-0.37698072,-0.3737287,-0.37130493,-0.3696789,-0.3680529,-0.3672245,-0.3688506,-0.37130493,-0.3688506,-0.36397243,-0.35829663,-0.35909432,-0.36317474,-0.3696789,-0.3737287,-0.37455702,-0.3737287,-0.37130493,-0.3704766,-0.3704766,-0.3737287,-0.3786068,-0.38023287,-0.3786068,-0.3737287,-0.3704766,-0.3704766,-0.3753547,-0.3778091,-0.3786068,-0.3778091,-0.3786068,-0.37943518,-0.37943518,-0.38023287,-0.37943518,-0.3810612,-0.3818589,-0.38023287,-0.37698072,-0.37210262,-0.37210262,-0.37455702,-0.3753547,-0.3761831,-0.3761831,-0.37698072,-0.3778091,-0.37698072,-0.3737287,-0.37130493,-0.3696789,-0.3696789,-0.37130493,-0.3696789,-0.3672245,-0.36397243,-0.36072034,-0.35909432,-0.35992265,-0.36234635,-0.36397243,-0.36480075,-0.36234635,-0.35909432,-0.35584223,-0.35341847,-0.34771204,-0.3371274,-0.3241191,-0.3127368,-0.30623257,-0.30215222,-0.29727405,-0.29159826,-0.28263968,-0.27288342,-0.2631272,-0.25091648,-0.2395342,-0.23465616,-0.23628217,-0.2395342,-0.24278635,-0.24441236,-0.25174493,-0.2680053,-0.28751785,-0.30948466,-0.3281995,-0.34363157,-0.36154872,-0.38023287,-0.39327186,-0.39894766,-0.40219975,-0.39894766,-0.39406955,-0.3883937,-0.3834849,-0.3810612,-0.3834849,-0.3883937,-0.39244348,-0.38756537,-0.37698072,-0.35096407,-0.29727405,-0.20293295,-0.053275824,0.15249515,0.39732158,0.6364418,0.80640924,0.8666034,0.7893511,0.570541,0.2500882,-0.108591914,-0.43554896,-0.66086304,-0.75925386,-0.751952,-0.6852536,-0.6063446,-0.5404746,-0.49328876,-0.46239394,-0.44288146,-0.4322968,-0.4274187,-0.424995,-0.4225406,-0.41683412,-0.40870392,-0.40057373,-0.39406955,-0.3883937,-0.38023287,-0.3704766,-0.35909432,-0.35096407,-0.34608597,-0.34283394,-0.34037948,-0.3371274,-0.33470368,-0.33224922,-0.32737118,-0.31924093,-0.31111073,-0.30298054,-0.29810238,-0.29322428,-0.28672016,-0.27776158,-0.2704597,-0.26229888,-0.25337088,-0.23873651,-0.22244549,-0.20701343,-0.19400513,-0.1850465,-0.17608798,-0.163908,-0.15007132,-0.13381088,-0.11672217,-0.10046172,-0.08257526,-0.06386042,-0.042721868,-0.021552742,-0.0028685331,0.008544445,0.016674638,0.023976445,0.03130901,0.041065216,0.04839778,0.050023913,0.051649928,0.053275943,0.052447557,0.04514575,0.026430845,-0.0020402074,-0.038641453,-0.076071024,-0.111844,-0.14844525,-0.18747026,-0.22894967,-0.2712574,-0.30948466,-0.3420055,-0.36642683,-0.38514167,-0.40302813,-0.41928852,-0.4339229,-0.4436791,-0.44855726,-0.44855726,-0.4461335,-0.44288146,-0.43800336,-0.4322968,-0.4282471,-0.424995,-0.42416668,-0.42416668,-0.4200862,-0.41683412,-0.4152081,-0.41603643,-0.41683412,-0.4152081,-0.40870392,-0.40140206,-0.39489788,-0.39001977,-0.3867677,-0.3859393,-0.38756537,-0.39001977,-0.3916458,-0.3908174,-0.38919145,-0.3883937,-0.3916458,-0.3916458,-0.39001977,-0.38756537,-0.3859393,-0.39001977,-0.39406955,-0.39814997,-0.39814997,-0.39569557,-0.39569557,-0.39894766,-0.40302813,-0.40465415,-0.40302813,-0.39814997,-0.39327186,-0.3908174,-0.3908174,-0.39406955,-0.39814997,-0.40140206,-0.40219975,-0.40219975,-0.40302813,-0.40465415,-0.40465415,-0.40219975,-0.39652395,-0.3916458,-0.38919145,-0.39001977,-0.3916458,-0.39244348,-0.39327186,-0.39569557,-0.39814997,-0.39894766,-0.39569557,-0.3908174,-0.3867677,-0.3843133,-0.3843133,-0.3843133,-0.38514167,-0.3867677,-0.3859393,-0.3810612,-0.37210262,-0.36154872,-0.35259014,-0.34363157,-0.33550137,-0.32737118,-0.32086694,-0.3184433,-0.3184433,-0.3159889,-0.31111073,-0.30377823,-0.29647636,-0.28834617,-0.2810136,-0.2745095,-0.2680053,-0.26392484,-0.2655509,-0.27613556,-0.29159826,-0.3127368,-0.33470368,-0.35421622,-0.37130493,-0.3867677,-0.39977598,-0.40707785,-0.40953225,-0.40628016,-0.39977598,-0.39569557,-0.39489788,-0.39569557,-0.39569557,-0.39489788,-0.39652395,-0.39406955,-0.3867677,-0.35909432,-0.29890013,-0.19805485,-0.04760003,0.14436483,0.36722457,0.58192337,0.734035,0.78609896,0.7145225,0.5111753,0.21511304,-0.12080252,-0.4282471,-0.6364417,-0.7259047,-0.71209866,-0.6454003,-0.5738238,-0.51771003,-0.47865433,-0.45426375,-0.43962938,-0.4331252,-0.42904478,-0.4257927,-0.41846013,-0.40790623,-0.39814997,-0.38756537,-0.37943518,-0.3737287,-0.3696789,-0.3680529,-0.36317474,-0.35667062,-0.34608597,-0.3363297,-0.32982558,-0.3265735,-0.3241191,-0.32006925,-0.3151912,-0.31031305,-0.30706102,-0.30377823,-0.29890013,-0.29159826,-0.281842,-0.26963133,-0.25824904,-0.24603844,-0.23548448,-0.22569752,-0.21431524,-0.20130694,-0.18667257,-0.17041218,-0.15494943,-0.14031506,-0.12485236,-0.108591914,-0.09233147,-0.07524276,-0.05410415,-0.032137334,-0.009372771,0.012594223,0.02805698,0.04023695,0.051649928,0.06545591,0.076838136,0.084999084,0.08987725,0.09150326,0.09475529,0.09392691,0.088251114,0.07441449,0.051649928,0.02560258,-0.0036661625,-0.037843764,-0.07441431,-0.11592436,-0.15740377,-0.19888318,-0.2395342,-0.27613556,-0.30868697,-0.33470368,-0.35504454,-0.372931,-0.3867677,-0.39732158,-0.40465415,-0.40953225,-0.4152081,-0.41928852,-0.41766244,-0.41115832,-0.40219975,-0.39489788,-0.39244348,-0.3916458,-0.39001977,-0.38756537,-0.3859393,-0.3834849,-0.38023287,-0.3737287,-0.36642683,-0.36072034,-0.35667062,-0.35584223,-0.35421622,-0.35341847,-0.35016644,-0.34608597,-0.34037948,-0.33387536,-0.32982558,-0.33062327,-0.33307767,-0.33470368,-0.33387536,-0.33145165,-0.33145165,-0.33224922,-0.33307767,-0.33224922,-0.33224922,-0.33470368,-0.34037948,-0.34528828,-0.34528828,-0.34363157,-0.34120786,-0.33795577,-0.33875346,-0.3395818,-0.3420055,-0.3444599,-0.34691435,-0.34691435,-0.3444599,-0.3420055,-0.34037948,-0.3395818,-0.33875346,-0.3395818,-0.3395818,-0.3395818,-0.33875346,-0.33550137,-0.33062327,-0.3281995,-0.3281995,-0.32982558,-0.33145165,-0.33062327,-0.3289972,-0.3289972,-0.3289972,-0.32982558,-0.3289972,-0.3281995,-0.32737118,-0.3265735,-0.32249302,-0.3184433,-0.3159889,-0.31761497,-0.32086694,-0.32249302,-0.31924093,-0.31356514,-0.30868697,-0.30460662,-0.29890013,-0.28997225,-0.2810136,-0.27288342,-0.26637924,-0.25987512,-0.25091648,-0.24441236,-0.24036258,-0.23873651,-0.23385847,-0.2216478,-0.2061851,-0.19563115,-0.19155067,-0.19480282,-0.19968086,-0.2061851,-0.21839571,-0.23548448,-0.25662303,-0.27613556,-0.29159826,-0.30540425,-0.32006925,-0.33550137,-0.34691435,-0.35341847,-0.35667062,-0.35667062,-0.35667062,-0.35259014,-0.34691435,-0.34283394,-0.34120786,-0.3444599,-0.34528828,-0.3395818,-0.32006925,-0.26883364,-0.18096614,-0.044347942,0.13786077,0.35584223,0.58192337,0.76575804,0.8714814,0.86092746,0.71044195,0.44042706,0.10205722,-0.23790824,-0.5014496,-0.647824,-0.6827992,-0.6429459,-0.5754498,-0.5095798,-0.45914185,-0.4257927,-0.40790623,-0.39894766,-0.39652395,-0.39489788,-0.3916458,-0.38514167,-0.3761831,-0.36642683,-0.36072034,-0.35746825,-0.35584223,-0.34933805,-0.3395818,-0.33062327,-0.3241191,-0.32169533,-0.31924093,-0.31681722,-0.3127368,-0.30706102,-0.30215222,-0.29564798,-0.28834617,-0.2810136,-0.27288342,-0.2655509,-0.25742072,-0.2501189,-0.24603844,-0.24116027,-0.23548448,-0.22244549,-0.20781112,-0.19317675,-0.17854238,-0.16633171,-0.15415174,-0.14031506,-0.12568069,-0.11021793,-0.09312916,-0.0727883,-0.052478135,-0.032934904,-0.015048504,0.0020096302,0.019098401,0.035358787,0.050821543,0.064658165,0.076838136,0.088251114,0.09638131,0.099633455,0.099633455,0.09555304,0.08904874,0.07846415,0.062203884,0.0394392,0.011796594,-0.019926667,-0.055730224,-0.09558356,-0.13786066,-0.17934006,-0.2191934,-0.25579464,-0.29159826,-0.3233214,-0.34771204,-0.36480075,-0.3761831,-0.3867677,-0.39732158,-0.40707785,-0.41195595,-0.41358203,-0.41358203,-0.41278434,-0.41115832,-0.40707785,-0.40302813,-0.39894766,-0.39652395,-0.39814997,-0.39732158,-0.39406955,-0.38756537,-0.38023287,-0.3737287,-0.3696789,-0.3680529,-0.3672245,-0.36559844,-0.36317474,-0.35992265,-0.35746825,-0.35829663,-0.36072034,-0.36317474,-0.36317474,-0.36234635,-0.36234635,-0.36397243,-0.36317474,-0.35746825,-0.35341847,-0.35179245,-0.35341847,-0.35829663,-0.35909432,-0.35746825,-0.35746825,-0.35909432,-0.36154872,-0.36234635,-0.36480075,-0.36642683,-0.3696789,-0.372931,-0.372931,-0.37455702,-0.3778091,-0.37943518,-0.38023287,-0.3778091,-0.372931,-0.3688506,-0.3696789,-0.37130493,-0.3737287,-0.3753547,-0.3761831,-0.3786068,-0.38023287,-0.3810612,-0.3810612,-0.3810612,-0.38023287,-0.3810612,-0.3810612,-0.3818589,-0.38268727,-0.3810612,-0.3778091,-0.37130493,-0.3680529,-0.3696789,-0.3737287,-0.37698072,-0.3778091,-0.3778091,-0.3778091,-0.38023287,-0.38268727,-0.3834849,-0.3818589,-0.38023287,-0.38023287,-0.37943518,-0.37943518,-0.38023287,-0.38023287,-0.37943518,-0.3786068,-0.3753547,-0.37210262,-0.37130493,-0.3696789,-0.36559844,-0.35584223,-0.3420055,-0.3289972,-0.31924093,-0.3151912,-0.31436282,-0.31436282,-0.3127368,-0.30460662,-0.28751785,-0.26637924,-0.2501189,-0.24278635,-0.24766445,-0.25499696,-0.25742072,-0.25904673,-0.26637924,-0.283468,-0.30623257,-0.3289972,-0.34933805,-0.36559844,-0.38268727,-0.39814997,-0.40870392,-0.41358203,-0.41603643,-0.41683412,-0.41766244,-0.41766244,-0.41928852,-0.42091453,-0.42336893,-0.42416668,-0.42336893,-0.41683412,-0.40465415,-0.37455702,-0.31193912,-0.20376134,-0.042721868,0.16470575,0.40382588,0.62993765,0.79177475,0.85034287,0.76980793,0.5453528,0.21836519,-0.14681917,-0.47377622,-0.6885057,-0.77554494,-0.76008224,-0.6917578,-0.6185553,-0.56161314,-0.52258813,-0.49654078,-0.4802804,-0.4721502,-0.46727204,-0.46402,-0.45914185,-0.45263773,-0.44693124,-0.44205308,-0.43800336,-0.4331252,-0.4274187,-0.4200862,-0.41278434,-0.40790623,-0.40382576,-0.40140206,-0.39977598,-0.39652395,-0.39001977,-0.3818589,-0.37210262,-0.36317474,-0.35829663,-0.35504454,-0.35259014,-0.34854037,-0.3420055,-0.3363297,-0.33062327,-0.3233214,-0.31356514,-0.30298054,-0.28997225,-0.27533787,-0.25904673,-0.2419886,-0.22732359,-0.21514362,-0.20293295,-0.18829858,-0.16878611,-0.14924294,-0.13135648,-0.11347008,-0.09395754,-0.071162224,-0.050023735,-0.032137334,-0.021552742,-0.013422489,-0.0036661625,0.008544445,0.019098401,0.02560258,0.02480483,0.021552682,0.014220238,0.0036662817,-0.013422489,-0.03701538,-0.067112505,-0.102885365,-0.14031506,-0.17934006,-0.2191934,-0.25662303,-0.29564798,-0.33550137,-0.372931,-0.40465415,-0.4282471,-0.44530517,-0.45751584,-0.46972644,-0.48110873,-0.48923898,-0.49411708,-0.49491477,-0.49411708,-0.490865,-0.4859869,-0.48190647,-0.4802804,-0.4802804,-0.4794827,-0.47623062,-0.47135252,-0.46402,-0.45751584,-0.45101166,-0.4461335,-0.4436791,-0.4436791,-0.44693124,-0.44938564,-0.44775957,-0.44530517,-0.44205308,-0.44288146,-0.44530517,-0.44693124,-0.44693124,-0.44693124,-0.44693124,-0.44530517,-0.44288146,-0.43962938,-0.43717498,-0.438801,-0.44205308,-0.44530517,-0.44855726,-0.45101166,-0.45343536,-0.45426375,-0.45343536,-0.45263773,-0.45343536,-0.45506144,-0.45751584,-0.45751584,-0.45751584,-0.45751584,-0.45588976,-0.45180935,-0.4436791,-0.438801,-0.4363773,-0.43800336,-0.4436791,-0.4461335,-0.44775957,-0.44938564,-0.44938564,-0.44938564,-0.44530517,-0.44205308,-0.44042706,-0.4412554,-0.44288146,-0.44450748,-0.4461335,-0.44775957,-0.4461335,-0.44288146,-0.43717498,-0.4339229,-0.4339229,-0.43554896,-0.4363773,-0.4331252,-0.4306708,-0.42904478,-0.4282471,-0.4274187,-0.42662102,-0.4257927,-0.42904478,-0.42904478,-0.42662102,-0.4144104,-0.40140206,-0.39001977,-0.38268727,-0.3778091,-0.3704766,-0.36397243,-0.35829663,-0.35179245,-0.3444599,-0.33307767,-0.31924093,-0.30868697,-0.30540425,-0.30785865,-0.31031305,-0.31193912,-0.31356514,-0.31761497,-0.3289972,-0.34528828,-0.36642683,-0.38919145,-0.41195595,-0.43149918,-0.44205308,-0.44938564,-0.45180935,-0.45180935,-0.45263773,-0.45180935,-0.45101166,-0.45180935,-0.45018333,-0.44693124,-0.44042706,-0.43149918,-0.42091453,-0.40465415,-0.36642683,-0.2923959,-0.16553402,0.012594223,0.23707998,0.4705243,0.6592064,0.7527498,0.7226527,0.55428076,0.27450955,-0.058982313,-0.38514167,-0.6331896,-0.76496035,-0.7844728,-0.73161113,-0.6567826,-0.59171027,-0.542929,-0.50875145,-0.4827348,-0.46564603,-0.45831347,-0.45831347,-0.45914185,-0.45751584,-0.44938564,-0.4363773,-0.424995,-0.4152081,-0.40790623,-0.40465415,-0.40219975,-0.39977598,-0.39814997,-0.39244348,-0.3859393,-0.37943518,-0.3737287,-0.3688506,-0.36234635,-0.35421622,-0.34691435,-0.34120786,-0.33550137,-0.32737118,-0.31761497,-0.30948466,-0.30460662,-0.29972845,-0.29159826,-0.28021592,-0.2680053,-0.25662303,-0.24766445,-0.23548448,-0.2216478,-0.20538735,-0.18747026,-0.17203826,-0.15332341,-0.13298249,-0.11101562,-0.08907944,-0.06873858,-0.052478135,-0.038641453,-0.026430786,-0.015048504,-0.0036661625,0.0077160597,0.017472386,0.023178816,0.02560258,0.027228594,0.029682994,0.028854609,0.02235055,0.0052924156,-0.022381008,-0.055730224,-0.09233147,-0.12730676,-0.163908,-0.20050925,-0.23711056,-0.27613556,-0.3151912,-0.35179245,-0.38268727,-0.40382576,-0.41846013,-0.42904478,-0.44042706,-0.45180935,-0.46322232,-0.47135252,-0.47377622,-0.47377622,-0.47135252,-0.46727204,-0.46402,-0.46239394,-0.46159625,-0.45993954,-0.45668745,-0.45101166,-0.4436791,-0.43717498,-0.42904478,-0.42336893,-0.42171222,-0.42171222,-0.42416668,-0.42416668,-0.41928852,-0.41278434,-0.40870392,-0.40870392,-0.41032994,-0.41115832,-0.41195595,-0.41278434,-0.4144104,-0.4144104,-0.41278434,-0.40953225,-0.40707785,-0.40870392,-0.41032994,-0.41278434,-0.41278434,-0.41115832,-0.41032994,-0.40953225,-0.41032994,-0.4144104,-0.41928852,-0.42416668,-0.4257927,-0.42416668,-0.4200862,-0.41603643,-0.4152081,-0.41603643,-0.41603643,-0.41683412,-0.41603643,-0.4152081,-0.4152081,-0.4144104,-0.41358203,-0.41358203,-0.4144104,-0.4144104,-0.41195595,-0.40707785,-0.40219975,-0.40057373,-0.40140206,-0.40140206,-0.40140206,-0.39977598,-0.39977598,-0.39894766,-0.39652395,-0.3916458,-0.38756537,-0.3859393,-0.38514167,-0.3786068,-0.3688506,-0.36072034,-0.35504454,-0.35259014,-0.35259014,-0.35096407,-0.34691435,-0.3395818,-0.32982558,-0.31681722,-0.30706102,-0.29972845,-0.2948503,-0.28914386,-0.2842657,-0.28509408,-0.29647636,-0.3184433,-0.34120786,-0.35992265,