0.5325072,0.122862816,-0.35529512,-0.7364279,-0.91183704,-0.8922487,-0.76671195,-0.62690425,-0.5173805,-0.44345808,-0.40605372,-0.39716107,-0.39181322,-0.36953568,-0.33570677,-0.3196938,-0.3232386,-0.33035892,-0.3196938,-0.2938714,-0.27871412,-0.2822895,-0.29029596,-0.2814033,-0.25823945,-0.24311274,-0.24754381,-0.2528916,-0.24042356,-0.21460116,-0.19589901,-0.19501281,-0.19501281,-0.17811358,-0.14694339,-0.1246658,-0.12112087,-0.116659224,-0.09618467,-0.059666634,-0.027610183,-0.01336962,-1.5318394e-05,0.028496265,0.06944549,0.103274465,0.121976495,0.13624763,0.160267,0.18966484,0.2074809,0.20390546,0.19501269,0.19589889,0.20213306,0.19232345,0.16207004,0.12732434,0.10061574,0.07656574,0.03827524,-0.023148477,-0.08460283,-0.12824124,-0.15760845,-0.1941266,-0.24042356,-0.28763735,-0.31700456,-0.33035892,-0.34906107,-0.37668645,-0.39804727,-0.40159214,-0.39447182,-0.4025089,-0.42833132,-0.44880593,-0.44703346,-0.42921752,-0.42121106,-0.43456537,-0.44969213,-0.44880593,-0.42833132,-0.41852188,-0.42475593,-0.4336486,-0.43010378,-0.41228777,-0.40159214,-0.40605372,-0.40962917,-0.39716107,-0.37222487,-0.3570981,-0.36064297,-0.36330163,-0.35086405,-0.33482057,-0.33035892,-0.34817487,-0.36241543,-0.35440892,-0.33482057,-0.32858646,-0.34371322,-0.35887057,-0.35352272,-0.33124512,-0.3214662,-0.3339343,-0.34994733,-0.35352272,-0.34194082,-0.34016836,-0.35529512,-0.36599082,-0.3579843,-0.33928216,-0.3330481,-0.34994733,-0.36953568,-0.36953568,-0.34994733,-0.33659297,-0.34371322,-0.35440892,-0.35529512,-0.34463,-0.34105462,-0.35440892,-0.36510456,-0.35975677,-0.34105462,-0.33482057,-0.34371322,-0.34994733,-0.33482057,-0.30187786,-0.27960032,-0.2831757,-0.29206842,-0.2831757,-0.2528916,-0.2190628,-0.19770193,-0.18165839,-0.1611839,-0.14159554,-0.1487158,-0.17899978,-0.20925331,-0.2190628,-0.20301926,-0.1941266,-0.20836711,-0.2386511,-0.26804894,-0.2938714,-0.3330481,-0.38111752,-0.41674942,-0.41940808,-0.39538866,-0.37845892,-0.38111752,-0.3900408,-0.38557917,-0.36687702,-0.3579843,-0.36953568,-0.39092702,-0.4078262,-0.39447182,-0.33124512,-0.19324028,0.048084617,0.35795367,0.66785336,0.86196446,0.853958,0.6162083,0.19320977,-0.28675115,-0.69278955,-0.9162986,-0.9234189,-0.78807276,-0.624215,-0.5155775,-0.4719391,-0.45592618,-0.43098998,-0.39181322,-0.36421835,-0.36241543,-0.36599082,-0.35618138,-0.3330481,-0.31700456,-0.3196938,-0.32504165,-0.31611836,-0.29206842,-0.27694166,-0.27871412,-0.2831757,-0.27428305,-0.2528916,-0.24042356,-0.24311274,-0.24577135,-0.23241705,-0.20393598,-0.18434763,-0.18165839,-0.17899978,-0.15849465,-0.12289339,-0.09260929,-0.07748258,-0.06590068,-0.03830588,0.0017876625,0.032041073,0.045395494,0.059666634,0.090806246,0.13001359,0.15583599,0.1593808,0.15760839,0.1718489,0.19855762,0.2101394,0.19855762,0.17631054,0.16384244,0.15849459,0.13533092,0.08814764,0.032927394,-0.01336962,-0.048084736,-0.09349549,-0.15406364,-0.21194255,-0.24846059,-0.26535982,-0.28940976,-0.32681406,-0.36241543,-0.38200372,-0.38200372,-0.38557917,-0.40339512,-0.42029428,-0.42209727,-0.41140157,-0.41140157,-0.42921752,-0.44880593,-0.45235074,-0.43988264,-0.4336486,-0.44345808,-0.45503998,-0.45057833,-0.43187618,-0.42029428,-0.42298347,-0.42833132,-0.41940808,-0.39538866,-0.38111752,-0.38380677,-0.38735157,-0.38200372,-0.36421835,-0.35618138,-0.36510456,-0.3713386,-0.36064297,-0.33839595,-0.32947272,-0.34194082,-0.35618138,-0.3517503,-0.32947272,-0.31611836,-0.32412487,-0.33928216,-0.34282702,-0.3330481,-0.3321619,-0.34463,-0.3570981,-0.35618138,-0.34016836,-0.3339343,-0.3455162,-0.3579843,-0.35529512,-0.34105462,-0.33747917,-0.35352272,-0.36864942,-0.36330163,-0.34463,-0.33570677,-0.34906107,-0.36599082,-0.36510456,-0.34906107,-0.33839595,-0.3455162,-0.35975677,-0.35887057,-0.34371322,-0.3330481,-0.3321619,-0.32681406,-0.30453646,-0.26982135,-0.2493468,-0.25469464,-0.26089817,-0.24399894,-0.20036066,-0.1620701,-0.14605713,-0.1487158,-0.15229118,-0.1504882,-0.15494984,-0.17187953,-0.18877876,-0.18877876,-0.17719686,-0.17811358,-0.20393598,-0.24399894,-0.27960032,-0.3089981,-0.34728867,-0.3891546,-0.414977,-0.41140157,-0.38557917,-0.36776322,-0.3713386,-0.37934512,-0.37399727,-0.35618138,-0.34906107,-0.36776322,-0.39447182,-0.40339512,-0.35975677,-0.24754381,-0.052546382,0.22529685,0.54139984,0.8156676,0.9269637,0.80674434,0.4470029,-0.05077398,-0.52269775,-0.843293,-0.94835514,-0.8646538,-0.6981374,-0.54852015,-0.46928048,-0.44345808,-0.43010378,-0.40070587,-0.36241543,-0.34194082,-0.34906107,-0.3579843,-0.34282702,-0.3107705,-0.28940976,-0.29206842,-0.30276406,-0.3001054,-0.2805171,-0.26535982,-0.26713222,-0.2715938,-0.26001197,-0.23330331,-0.21640414,-0.21548736,-0.21640414,-0.20124686,-0.17187953,-0.1513744,-0.1513744,-0.15229118,-0.1371339,-0.10241872,-0.07124853,-0.05609119,-0.041850686,-0.012483418,0.03026867,0.064983845,0.08279979,0.098843336,0.13001359,0.16738725,0.19320977,0.19501269,0.18877864,0.19678521,0.21637356,0.22438002,0.20925331,0.1852032,0.16650105,0.15226054,0.121976495,0.06944549,0.012452841,-0.03207177,-0.06324208,-0.10241872,-0.15583605,-0.2057085,-0.24130976,-0.26089817,-0.28852355,-0.33124512,-0.36687702,-0.37845892,-0.37311107,-0.37576967,-0.39981967,-0.42298347,-0.42833132,-0.41674942,-0.41317403,-0.42921752,-0.44791967,-0.44880593,-0.4274451,-0.41586322,-0.42475593,-0.43811023,-0.43545157,-0.414977,-0.39981967,-0.40339512,-0.41317403,-0.40874296,-0.38646537,-0.3713386,-0.37488347,-0.38380677,-0.38111752,-0.36241543,-0.3517503,-0.3579843,-0.36510456,-0.36064297,-0.34371322,-0.33124512,-0.33839595,-0.34906107,-0.34817487,-0.33482057,-0.3330481,-0.3455162,-0.35887057,-0.35529512,-0.33839595,-0.33124512,-0.34194082,-0.3579843,-0.36064297,-0.34640247,-0.34016836,-0.34994733,-0.35975677,-0.3517503,-0.3339343,-0.32858646,-0.34371322,-0.36152917,-0.36064297,-0.34194082,-0.3330481,-0.34463,-0.36241543,-0.36599082,-0.3517503,-0.34463,-0.3570981,-0.36953568,-0.36152917,-0.33570677,-0.31345975,-0.3072257,-0.30453646,-0.29206842,-0.26893514,-0.25735325,-0.2644735,-0.26982135,-0.24665755,-0.19501281,-0.1504882,-0.1371339,-0.14336795,-0.15317738,-0.15760845,-0.16564548,-0.18254471,-0.19770193,-0.19589901,-0.17988598,-0.17811358,-0.20393598,-0.24399894,-0.2831757,-0.31434596,-0.3455162,-0.37757266,-0.39716107,-0.3900408,-0.36776322,-0.35618138,-0.36064297,-0.36864942,-0.36241543,-0.34371322,-0.33659297,-0.35352272,-0.37668645,-0.37576967,-0.3196938,-0.19858813,-1.5318394e-05,0.26447356,0.5592158,0.7987379,0.8753189,0.71146107,0.3223524,-0.16919035,-0.601968,-0.8619646,-0.91272324,-0.80231327,-0.6375693,-0.50133693,-0.43276238,-0.41586322,-0.41051537,-0.38735157,-0.34640247,-0.3188076,-0.31611836,-0.3214662,-0.3116567,-0.28940976,-0.27428305,-0.27871412,-0.28494817,-0.27428305,-0.24846059,-0.23064464,-0.23507571,-0.24399894,-0.23418951,-0.2057085,-0.18434763,-0.18165839,-0.18523383,-0.17453814,-0.1487158,-0.13001364,-0.12735492,-0.123779595,-0.0997296,-0.057008028,-0.023148477,-0.011597216,-0.002673924,0.021376014,0.06409764,0.09972954,0.11931789,0.13355851,0.160267,0.20036054,0.22529685,0.22706926,0.22172141,0.22884166,0.24843001,0.25466406,0.23596191,0.2074809,0.18966484,0.18165839,0.15583599,0.105077386,0.041850567,-0.008907974,-0.042736888,-0.08194417,-0.1371339,-0.18877876,-0.22352439,-0.2386511,-0.25823945,-0.29295462,-0.32770026,-0.34371322,-0.33928216,-0.34194082,-0.36152917,-0.38380677,-0.38823777,-0.37576967,-0.36864942,-0.38111752,-0.39716107,-0.39627486,-0.3829205,-0.37576967,-0.38735157,-0.40070587,-0.39538866,-0.3713386,-0.35352272,-0.3579843,-0.36864942,-0.36421835,-0.34371322,-0.32412487,-0.3223524,-0.32504165,-0.31700456,-0.29653,-0.28583437,-0.2956438,-0.3081119,-0.3072257,-0.29029596,-0.27782786,-0.2831757,-0.2938714,-0.29118222,-0.27248,-0.2644735,-0.27694166,-0.2938714,-0.2947576,-0.2814033,-0.27248,-0.2831757,-0.30187786,-0.30099165,-0.2814033,-0.2707076,-0.2822895,-0.30099165,-0.30453646,-0.28940976,-0.27782786,-0.2831757,-0.29653,-0.29918867,-0.28763735,-0.28494817,-0.2974162,-0.31345975,-0.3089981,-0.28940976,-0.27782786,-0.28494817,-0.30099165,-0.29918867,-0.27516925,-0.25646704,-0.25469464,-0.25823945,-0.250233,-0.23330331,-0.22172141,-0.2190628,-0.20836711,-0.17365193,-0.123779595,-0.09618467,-0.10596365,-0.13358909,-0.149602,-0.14514035,-0.14070934,-0.1504882,-0.1629563,-0.1611839,-0.1513744,-0.1647287,-0.21194255,-0.27516925,-0.32058,-0.33839595,-0.34463,-0.35440892,-0.36241543,-0.35263652,-0.32770026,-0.31434596,-0.32412487,-0.34016836,-0.34105462,-0.32592785,-0.31611836,-0.33482057,-0.34906107,-0.29918867,-0.1504882,0.08903384,0.36776328,0.6349106,0.8263327,0.8637371,0.676746,0.26801836,-0.23064464,-0.64380336,-0.8486103,-0.84237623,-0.7230736,-0.5903861,-0.48975503,-0.42029428,-0.37845892,-0.35887057,-0.34371322,-0.3196938,-0.2938714,-0.2831757,-0.29206842,-0.3001054,-0.29029596,-0.2627011,-0.24311274,-0.24488515,-0.2520054,-0.24311274,-0.2190628,-0.19678521,-0.19235408,-0.19589901,-0.18877876,-0.16741788,-0.15583605,-0.15941143,-0.1620701,-0.1487158,-0.11843175,-0.091723084,-0.08283043,-0.07659638,-0.054318786,-0.01780063,0.015141964,0.029382467,0.040964365,0.07033169,0.11665928,0.15583599,0.1727351,0.18165839,0.1994437,0.22884166,0.25020242,0.25111926,0.24577141,0.25111926,0.26535976,0.26624596,0.24219596,0.20390546,0.17542434,0.15403295,0.11665928,0.054318786,-0.014255822,-0.06767309,-0.1006158,-0.1353615,-0.18434763,-0.23330331,-0.2635873,-0.2707076,-0.27960032,-0.30633944,-0.33482057,-0.34728867,-0.34282702,-0.3455162,-0.36330163,-0.3829205,-0.38646537,-0.37311107,-0.36510456,-0.37845892,-0.39981967,-0.40516752,-0.39358562,-0.38557917,-0.39181322,-0.40070587,-0.39269942,-0.3704524,-0.3579843,-0.36330163,-0.37311107,-0.36510456,-0.33839595,-0.32058,-0.3232386,-0.33570677,-0.3339343,-0.31611836,-0.30187786,-0.3081119,-0.3188076,-0.31523216,-0.29653,-0.28583437,-0.2938714,-0.3072257,-0.30453646,-0.28583437,-0.27871412,-0.29206842,-0.31257355,-0.31611836,-0.30099165,-0.28763735,-0.2938714,-0.3116567,-0.3196938,-0.3116567,-0.3072257,-0.31345975,-0.3214662,-0.3196938,-0.30365026,-0.2947576,-0.30276406,-0.31789076,-0.3196938,-0.3072257,-0.30276406,-0.31257355,-0.32947272,-0.33124512,-0.31523216,-0.30633944,-0.31257355,-0.32504165,-0.3214662,-0.3001054,-0.28583437,-0.29206842,-0.3098843,-0.31434596,-0.30099165,-0.28583437,-0.27871412,-0.2715938,-0.2520054,-0.22618306,-0.21817654,-0.22706926,-0.22795546,-0.19678521,-0.14159554,-0.10241872,-0.10241872,-0.1246658,-0.13982314,-0.1380201,-0.13358909,-0.14425415,-0.1620701,-0.1629563,-0.149602,-0.1513744,-0.18966496,-0.24488515,-0.29206842,-0.31700456,-0.33035892,-0.34463,-0.3570981,-0.35352272,-0.33482057,-0.32504165,-0.33124512,-0.34105462,-0.33482057,-0.31700456,-0.31523216,-0.34194082,-0.36330163,-0.3188076,-0.16564548,0.08637524,0.38200378,0.6722845,0.8940209,0.95724785,0.787156,0.3739972,-0.1513744,-0.59750634,-0.8325974,-0.84149003,-0.71683955,-0.5761455,-0.47640073,-0.41406024,-0.38200372,-0.3713386,-0.35887057,-0.33124512,-0.30099165,-0.28583437,-0.28852355,-0.29918867,-0.29118222,-0.26893514,-0.2528916,-0.2537778,-0.26089817,-0.2493468,-0.21729034,-0.19501281,-0.19324028,-0.20301926,-0.19947445,-0.17365193,-0.149602,-0.14694339,-0.15229118,-0.14782959,-0.1246658,-0.1006158,-0.08371663,-0.07571018,-0.05609119,-0.022262335,0.008021712,0.02403462,0.040078163,0.07033169,0.111311436,0.14336789,0.15672219,0.16650105,0.18877864,0.22795534,0.2608981,0.27248,0.26979077,0.2733662,0.2849481,0.2840619,0.26267052,0.23330319,0.2101394,0.19232345,0.15672219,0.091723084,0.016914368,-0.037419558,-0.066786885,-0.091723084,-0.13358909,-0.18343091,-0.22263819,-0.24399894,-0.2635873,-0.29295462,-0.32058,-0.32947272,-0.3232386,-0.32058,-0.33747917,-0.35887057,-0.36599082,-0.35618138,-0.3517503,-0.36421835,-0.38111752,-0.38200372,-0.36687702,-0.35887057,-0.36687702,-0.38023132,-0.37668645,-0.35352272,-0.3330481,-0.3339343,-0.34371322,-0.34105462,-0.31789076,-0.29918867,-0.29830247,-0.30633944,-0.30453646,-0.28763735,-0.27605546,-0.2822895,-0.29206842,-0.28940976,-0.26893514,-0.25558084,-0.2618149,-0.27871412,-0.2814033,-0.2644735,-0.2537778,-0.26001197,-0.2715938,-0.26982135,-0.25823945,-0.25469464,-0.26804894,-0.29029596,-0.2947576,-0.27782786,-0.2644735,-0.26804894,-0.2814033,-0.28406197,-0.27248,-0.26893514,-0.2805171,-0.2974162,-0.3001054,-0.28852355,-0.27871412,-0.2814033,-0.2938714,-0.2956438,-0.28494817,-0.27960032,-0.28852355,-0.29918867,-0.2956438,-0.27782786,-0.26982135,-0.27782786,-0.29029596,-0.28763735,-0.26624602,-0.25469464,-0.26893514,-0.28675115,-0.28406197,-0.2528916,-0.219949,-0.21017003,-0.21817654,-0.2190628,-0.19858813,-0.17187953,-0.14694339,-0.1246658,-0.09618467,-0.06501448,-0.06501448,-0.09707093,-0.13267225,-0.14336795,-0.12200707,-0.10953897,-0.12112087,-0.15672225,-0.17988598,-0.18077219,-0.19770193,-0.25558084,-0.3232386,-0.37222487,-0.37934512,-0.35887057,-0.34463,-0.34463,-0.34105462,-0.32412487,-0.31257355,-0.31257355,-0.32058,-0.32412487,-0.33035892,-0.3339343,-0.30453646,-0.19235408,0.045395494,0.36507392,0.68298006,0.8913624,0.9162986,0.7248459,0.33301747,-0.16564548,-0.62067014,-0.88959,-0.9198435,-0.77826333,-0.6037404,-0.49155807,-0.44434428,-0.41674942,-0.3829205,-0.35352272,-0.34105462,-0.34282702,-0.33747917,-0.31523216,-0.29118222,-0.28406197,-0.28940976,-0.2822895,-0.26001197,-0.24311274,-0.24311274,-0.2537778,-0.250233,-0.2244106,-0.20301926,-0.20482218,-0.2190628,-0.2190628,-0.19324028,-0.1629563,-0.14782959,-0.14694339,-0.1380201,-0.11400062,-0.08814764,-0.07390714,-0.06324208,-0.040964484,-0.00090152025,0.035616517,0.052546263,0.06409764,0.091723084,0.13624763,0.1727351,0.18877864,0.18877864,0.19320977,0.21282876,0.22529685,0.21725965,0.20390546,0.20213306,0.21371484,0.21191192,0.17719674,0.12020409,0.07033169,0.034730315,-0.004446447,-0.059666634,-0.12289339,-0.16741788,-0.18877876,-0.21282876,-0.2528916,-0.29830247,-0.32770026,-0.33482057,-0.34371322,-0.36776322,-0.39447182,-0.40159214,-0.38823777,-0.37757266,-0.39092702,-0.41406024,-0.42386973,-0.41228777,-0.40428132,-0.41228777,-0.42833132,-0.43545157,-0.42029428,-0.40339512,-0.40339512,-0.41051537,-0.40516752,-0.3829205,-0.36599082,-0.36510456,-0.37222487,-0.36599082,-0.34371322,-0.32858646,-0.33035892,-0.3455162,-0.34640247,-0.32947272,-0.31523216,-0.3188076,-0.33124512,-0.3321619,-0.31257355,-0.3001054,-0.3089981,-0.32858646,-0.33928216,-0.32858646,-0.31523216,-0.31345975,-0.3214662,-0.3196938,-0.3081119,-0.30365026,-0.31523216,-0.3330481,-0.33570677,-0.3214662,-0.31257355,-0.3214662,-0.33482057,-0.33570677,-0.32058,-0.31523216,-0.33035892,-0.35529512,-0.36152917,-0.3455162,-0.32858646,-0.32681406,-0.33570677,-0.3330481,-0.3188076,-0.3107705,-0.3214662,-0.33839595,-0.3339343,-0.3107705,-0.29029596,-0.28940976,-0.2974162,-0.28763735,-0.25912565,-0.24130976,-0.2493468,-0.26804894,-0.2627011,-0.21729034,-0.1620701,-0.13358909,-0.13267225,-0.14425415,-0.149602,-0.15229118,-0.1629563,-0.17719686,-0.17542434,-0.16029763,-0.15317738,-0.17365193,-0.21729034,-0.26001197,-0.29118222,-0.32058,-0.35618138,-0.38469297,-0.38735157,-0.36599082,-0.3455162,-0.34371322,-0.35263652,-0.35440892,-0.33659297,-0.3223524,-0.3321619,-0.36064297,-0.37668645,-0.34994733,-0.2627011,-0.1006158,0.13624763,0.41583264,0.68120754,0.83079433,0.7853836,0.5155773,0.08460283,-0.37311107,-0.7275047,-0.8958241,-0.8717741,-0.72661847,-0.5663361,-0.46393263,-0.42386973,-0.41228777,-0.39269942,-0.35263652,-0.32058,-0.31700456,-0.32681406,-0.32412487,-0.29830247,-0.2707076,-0.26713222,-0.27960032,-0.28583437,-0.27428305,-0.25823945,-0.2511192,-0.2511192,-0.2386511,-0.21548736,-0.19947445,-0.20393598,-0.21282876,-0.20482218,-0.17542434,-0.14336795,-0.13089985,-0.13001364,-0.11577314,-0.08371663,-0.05166018,-0.035616636,-0.026723921,-0.008021772,0.026693344,0.061439037,0.079254985,0.091723084,0.11931789,0.16207004,0.1976713,0.21102571,0.20836699,0.21548724,0.23418951,0.2448852,0.23418951,0.20836699,0.19143736,0.18789244,0.1727351,0.12732434,0.06321144,0.005332589,-0.033844173,-0.06947613,-0.11488682,-0.17096275,-0.21371496,-0.23418951,-0.2537778,-0.28583437,-0.3223524,-0.34371322,-0.3455162,-0.34640247,-0.36241543,-0.38735157,-0.39893347,-0.39092702,-0.38380677,-0.3900408,-0.40962917,-0.41852188,-0.41228777,-0.4078262,-0.41586322,-0.42652833,-0.42029428,-0.39447182,-0.37222487,-0.37222487,-0.38735157,-0.38823777,-0.3713386,-0.35440892,-0.34728867,-0.35263652,-0.34728867,-0.32858646,-0.31434596,-0.32058,-0.33570677,-0.33570677,-0.31789076,-0.30276406,-0.30633944,-0.3232386,-0.32770026,-0.3107705,-0.2956438,-0.29653,-0.3107705,-0.31523216,-0.30099165,-0.29118222,-0.30276406,-0.32592785,-0.33747917,-0.32947272,-0.31789076,-0.3223524,-0.33747917,-0.34371322,-0.3321619,-0.3196938,-0.3223524,-0.33747917,-0.34016836,-0.32592785,-0.31345975,-0.3223524,-0.34016836,-0.34728867,-0.33570677,-0.3232386,-0.32770026,-0.34194082,-0.34463,-0.32858646,-0.31611836,-0.3214662,-0.33747917,-0.34463,-0.32947272,-0.31789076,-0.3223524,-0.3321619,-0.32858646,-0.30187786,-0.27336627,-0.2627011,-0.26982135,-0.26982135,-0.2511192,-0.22795546,-0.21017003,-0.19235408,-0.16564548,-0.1362477,-0.125552,-0.14425415,-0.17719686,-0.19235408,-0.18343091,-0.17187953,-0.17988598,-0.20036066,-0.21460116,-0.2244106,-0.24754381,-0.29653,-0.35263652,-0.38380677,-0.37757266,-0.36421835,-0.36330163,-0.37488347,-0.37845892,-0.36241543,-0.34906107,-0.34994733,-0.36064297,-0.36421835,-0.35887057,-0.35263652,-0.32412487,-0.22795546,-0.021376073,0.26801836,0.55741286,0.76579523,0.8156676,0.68209386,0.35529506,-0.09707093,-0.5413999,-0.8361422,-0.89936894,-0.78006625,-0.6135499,-0.50133693,-0.45592618,-0.43010378,-0.39358562,-0.35618138,-0.33659297,-0.33928216,-0.33928216,-0.3223524,-0.30187786,-0.2956438,-0.30099165,-0.3001054,-0.2814033,-0.2627011,-0.26535982,-0.2805171,-0.28406197,-0.26535982,-0.2386511,-0.22263819,-0.22083521,-0.21548736,-0.19947445,-0.18077219,-0.17276573,-0.17096275,-0.15583605,-0.123779595,-0.09707093,-0.09083688,-0.08995068,-0.07390714,-0.037419558,0.005332589,0.031154871,0.045395494,0.071217895,0.11308384,0.15137434,0.16919029,0.1718489,0.18254459,0.21191192,0.23865104,0.24308217,0.22795534,0.21637356,0.21725965,0.21548724,0.18700624,0.13624763,0.08726144,0.048970938,0.010680318,-0.040078282,-0.10153252,-0.149602,-0.17899978,-0.20482218,-0.24399894,-0.29029596,-0.3196938,-0.32681406,-0.32947272,-0.34817487,-0.37757266,-0.39538866,-0.3900408,-0.37934512,-0.38469297,-0.40159214,-0.41228777,-0.40605372,-0.39627486,-0.40070587,-0.41586322,-0.42029428,-0.4078262,-0.39538866,-0.39538866,-0.40428132,-0.4025089,-0.38380677,-0.36510456,-0.36330163,-0.37222487,-0.36864942,-0.3455162,-0.32770026,-0.32858646,-0.34463,-0.35086405,-0.33659297,-0.31789076,-0.31523216,-0.32681406,-0.32947272,-0.31434596,-0.2956438,-0.2956438,-0.30365026,-0.30542272,-0.2938714,-0.2814033,-0.28675115,-0.30365026,-0.3107705,-0.30099165,-0.29295462,-0.30187786,-0.3214662,-0.32681406,-0.3098843,-0.2956438,-0.29918867,-0.31789076,-0.32770026,-0.31611836,-0.30276406,-0.3072257,-0.3223524,-0.32412487,-0.3081119,-0.2938714,-0.3001054,-0.32412487,-0.33928216,-0.33124512,-0.3196938,-0.3188076,-0.32770026,-0.32858646,-0.31611836,-0.30542272,-0.31257355,-0.32770026,-0.32858646,-0.3107705,-0.2956438,-0.2974162,-0.30633944,-0.30099165,-0.2715938,-0.24222654,-0.23599249,-0.24665755,-0.250233,-0.22795546,-0.19146788,-0.15849465,-0.1380201,-0.12289339,-0.111311495,-0.11400062,-0.1362477,-0.1611839,-0.16919035,-0.15760845,-0.1487158,-0.15583605,-0.18165839,-0.2065947,-0.22884166,-0.2635873,-0.31611836,-0.36864942,-0.39092702,-0.37845892,-0.35887057,-0.35529512,-0.36510456,-0.36687702,-0.34728867,-0.32592785,-0.3232386,-0.34282702,-0.36421835,-0.36599082,-0.32858646,-0.23330331,-0.047198534,0.22618294,0.5342796,0.79073143,0.8895594,0.7791494,0.45500934,-0.0017877221,-0.45769858,-0.7844974,-0.90025514,-0.8201293,-0.6456064,-0.49956453,-0.43187618,-0.41051537,-0.39092702,-0.3570981,-0.3188076,-0.29653,-0.29830247,-0.30099165,-0.28763735,-0.27516925,-0.28940976,-0.30453646,-0.30099165,-0.28675115,-0.25823945,-0.24665755,-0.24311274,-0.23241705,-0.21548736,-0.2074809,-0.21460116,-0.2252968,-0.21282876,-0.1763106,-0.14248174,-0.13982314,-0.15406364,-0.15494984,-0.125552,-0.085489035,-0.05789423,-0.040078282,-0.01960367,0.016028166,0.052546263,0.077451944,0.08903384,0.110425234,0.1469127,0.18343079,0.20213306,0.20659459,0.21725965,0.23865104,0.2573533,0.2573533,0.23684812,0.219949,0.21102571,0.20124674,0.1718489,0.12109041,0.07479334,0.045395494,0.01868689,-0.02583772,-0.08283043,-0.1353615,-0.17187953,-0.20036066,-0.2395373,-0.2805171,-0.30633944,-0.3107705,-0.31257355,-0.3330481,-0.36510456,-0.38111752,-0.37668645,-0.36864942,-0.37576967,-0.39538866,-0.39716107,-0.38111752,-0.36330163,-0.3704524,-0.39716107,-0.42029428,-0.41852188,-0.40339512,-0.39981967,-0.40339512,-0.39538866,-0.37399727,-0.35263652,-0.34817487,-0.35975677,-0.36152917,-0.34640247,-0.32592785,-0.31789076,-0.3232386,-0.32058,-0.30187786,-0.28763735,-0.29206842,-0.3072257,-0.3089981,-0.29295462,-0.27694166,-0.2805171,-0.2938714,-0.30542272,-0.2974162,-0.28852355,-0.3001054,-0.3232386,-0.32592785,-0.3081119,-0.28763735,-0.29029596,-0.31523216,-0.33124512,-0.32592785,-0.3116567,-0.3081119,-0.32058,-0.32770026,-0.31789076,-0.30633944,-0.3116567,-0.32947272,-0.3330481,-0.31611836,-0.29206842,-0.28763735,-0.30542272,-0.31523216,-0.3089981,-0.30099165,-0.30633944,-0.32592785,-0.33839595,-0.3330481,-0.32058,-0.31789076,-0.32412487,-0.32058,-0.3001054,-0.27871412,-0.26982135,-0.26804894,-0.25735325,-0.23418951,-0.2190628,-0.2244106,-0.23153085,-0.21017003,-0.16029763,-0.11400062,-0.10330492,-0.12912744,-0.15494984,-0.16029763,-0.1504882,-0.1504882,-0.16741788,-0.17899978,-0.1763106,-0.17453814,-0.19678521,-0.24311274,-0.28763735,-0.31611836,-0.33570677,-0.3579843,-0.38380677,-0.39181322,-0.37576967,-0.35440892,-0.35086405,-0.36330163,-0.36776322,-0.35352272,-0.34105462,-0.3517503,-0.36421835,-0.3196938,-0.17365193,0.07390714,0.3597567,0.629563,0.81120586,0.835256,0.6411141,0.22438002,-0.28763735,-0.70703006,-0.9145262,-0.89848274,-0.76313657,-0.62067014,-0.5164637,-0.4461167,-0.39981967,-0.38111752,-0.37845892,-0.36510456,-0.34016836,-0.3196938,-0.31700456,-0.32947272,-0.32947272,-0.3072257,-0.2805171,-0.2715938,-0.2814033,-0.28406197,-0.26982135,-0.2520054,-0.24577135,-0.25558084,-0.25646704,-0.23330331,-0.2074809,-0.19589901,-0.19858813,-0.19324028,-0.16653168,-0.1362477,-0.12112087,-0.12289339,-0.117545545,-0.08906442,-0.049887657,-0.020489872,-0.00713557,0.013339043,0.047198415,0.083685994,0.104191184,0.10773599,0.11931789,0.15048814,0.1852032,0.20479155,0.2074809,0.20659459,0.20836699,0.20390546,0.17808294,0.14067876,0.11485624,0.104191184,0.085489035,0.040078163,-0.02583772,-0.08906442,-0.13001364,-0.16564548,-0.20925331,-0.25912565,-0.2956438,-0.3107705,-0.3223524,-0.34728867,-0.3829205,-0.40516752,-0.40516752,-0.39981967,-0.40874296,-0.4336486,-0.45057833,-0.44969213,-0.44257182,-0.44791967,-0.46662188,-0.47551453,-0.46393263,-0.44434428,-0.43722403,-0.44168562,-0.44257182,-0.43098998,-0.41586322,-0.41317403,-0.42121106,-0.41586322,-0.39627486,-0.37845892,-0.37934512,-0.39538866,-0.39538866,-0.37488347,-0.35618138,-0.35263652,-0.36776322,-0.37845892,-0.36421835,-0.34640247,-0.34640247,-0.36241543,-0.3704524,-0.36064297,-0.34640247,-0.34728867,-0.36064297,-0.36864942,-0.3570981,-0.3455162,-0.3517503,-0.37399727,-0.38557917,-0.37399727,-0.36064297,-0.36241543,-0.37845892,-0.38646537,-0.3713386,-0.34994733,-0.3517503,-0.37222487,-0.3829205,-0.3713386,-0.35352272,-0.35086405,-0.36599082,-0.37934512,-0.37576967,-0.36599082,-0.36864942,-0.38111752,-0.38200372,-0.36421835,-0.34016836,-0.3321619,-0.33928216,-0.3321619,-0.3089981,-0.28583437,-0.28494817,-0.2956438,-0.29029596,-0.2537778,-0.2065947,-0.17988598,-0.18434763,-0.19770193,-0.19858813,-0.19678521,-0.20301926,-0.22083521,-0.22884166,-0.21729034,-0.20836711,-0.22975844,-0.27871412,-0.32858646,-0.35975677,-0.3713386,-0.38200372,-0.40605372,-0.41852188,-0.41228777,-0.39804727,-0.39358562,-0.40159214,-0.40339512,-0.3900408,-0.37757266,-0.3829205,-0.40516752,-0.39804727,-0.32058,-0.15849465,0.06767309,0.31254292,0.5485201,0.7141503,0.73639727,0.5458615,0.15137434,-0.31523216,-0.696365,-0.88959,-0.883356,-0.7595612,-0.6144361,-0.50045073,-0.43722403,-0.414977,-0.41228777,-0.39893347,-0.36687702,-0.33570677,-0.32681406,-0.33659297,-0.33839595,-0.3214662,-0.29918867,-0.29029596,-0.29029596,-0.28583437,-0.2627011,-0.24222654,-0.24130976,-0.25646704,-0.2627011,-0.24311274,-0.21640414,-0.20393598,-0.20393598,-0.20213306,-0.17988598,-0.15229118,-0.1362477,-0.13001364,-0.11400062,-0.08014119,-0.042736888,-0.024951518,-0.021376073,-0.0053631663,0.027610064,0.071217895,0.098843336,0.110425234,0.12466574,0.15760839,0.19055104,0.2074809,0.20567787,0.20479155,0.21637356,0.22438002,0.21906269,0.19320977,0.16830409,0.15314674,0.13267219,0.089920044,0.021376014,-0.037419558,-0.08371663,-0.11843175,-0.1629563,-0.21548736,-0.26001197,-0.28406197,-0.2974162,-0.32681406,-0.36510456,-0.38735157,-0.38735157,-0.37757266,-0.38111752,-0.4025089,-0.41940808,-0.414977,-0.4025089,-0.40516752,-0.42209727,-0.4336486,-0.42833132,-0.41228777,-0.41228777,-0.42652833,-0.43633777,-0.42833132,-0.41051537,-0.40159214,-0.40428132,-0.40428132,-0.38646537,-0.36330163,-0.3570981,-0.36510456,-0.36599082,-0.34817487,-0.32412487,-0.31611836,-0.32770026,-0.33659297,-0.32681406,-0.31345975,-0.31257355,-0.32858646,-0.33839595,-0.32681406,-0.30633944,-0.30365026,-0.31789076,-0.32947272,-0.3232386,-0.3098843,-0.3107705,-0.32947272,-0.34194082,-0.33747917,-0.3214662,-0.32058,-0.33482057,-0.34282702,-0.3339343,-0.3214662,-0.3232386,-0.34105462,-0.35529512,-0.34906107,-0.3339343,-0.3321619,-0.34640247,-0.35263652,-0.34016836,-0.32504165,-0.3214662,-0.33839595,-0.34994733,-0.34194082,-0.32504165,-0.3214662,-0.3339343,-0.34371322,-0.33570677,-0.31523216,-0.3001054,-0.29206842,-0.27871412,-0.25823945,-0.24042356,-0.2386511,-0.24130976,-0.219949,-0.17453814,-0.13178605,-0.12289339,-0.14782959,-0.17542434,-0.17988598,-0.16919035,-0.17007655,-0.18612003,-0.19947445,-0.19947445,-0.19858813,-0.22172141,-0.27428305,-0.32681406,-0.35975677,-0.37399727,-0.38380677,-0.39627486,-0.39804727,-0.38200372,-0.36152917,-0.3570981,-0.36864942,-0.37222487,-0.36330163,-0.35529512,-0.36864942,-0.37845892,-0.3214662,-0.15317738,0.11843169,0.41583264,0.6722845,0.8236741,0.8138646,0.59393084,0.1727351,-0.32504165,-0.724846,-0.9047168,-0.8664262,-0.72661847,-0.59662014,-0.5111464,-0.45235074,-0.40516752,-0.37845892,-0.3704524,-0.36241543,-0.34463,-0.3232386,-0.31434596,-0.3196938,-0.3196938,-0.30453646,-0.28494817,-0.27782786,-0.28583437,-0.28494817,-0.26535982,-0.24042356,-0.23330331,-0.24399894,-0.24846059,-0.23241705,-0.2057085,-0.19146788,-0.19324028,-0.18966496,-0.16830415,-0.1380201,-0.12020415,-0.117545545,-0.10776657,-0.07659638,-0.036502838,-0.011597216,-0.004446447,0.008907914,0.041850567,0.08460283,0.11308384,0.123779535,0.13624763,0.16561484,0.20036054,0.21725965,0.21102571,0.20301914,0.20659459,0.21548724,0.20659459,0.17719674,0.14514029,0.121976495,0.096154094,0.048970938,-0.01960367,-0.08371663,-0.125552,-0.15494984,-0.19324028,-0.24311274,-0.2814033,-0.29830247,-0.30365026,-0.3214662,-0.3570981,-0.38557917,-0.3900408,-0.38380677,-0.38557917,-0.40605372,-0.42298347,-0.42298347,-0.41051537,-0.41051537,-0.42475593,-0.43633777,-0.43010378,-0.41317403,-0.40874296,-0.41940808,-0.42652833,-0.41763562,-0.39981967,-0.39181322,-0.39893347,-0.39981967,-0.3829205,-0.36152917,-0.35529512,-0.36864942,-0.37757266,-0.36599082,-0.34463,-0.33570677,-0.34463,-0.35086405,-0.33928216,-0.3196938,-0.31257355,-0.32412487,-0.33659297,-0.3339343,-0.3214662,-0.3214662,-0.33482057,-0.34282702,-0.3339343,-0.31700456,-0.31523216,-0.33124512,-0.3455162,-0.34105462,-0.32770026,-0.32770026,-0.3455162,-0.35975677,-0.35529512,-0.33839595,-0.3330481,-0.34728867,-0.3579843,-0.35086405,-0.3330481,-0.32770026,-0.33928216,-0.35086405,-0.34640247,-0.33124512,-0.32947272,-0.34640247,-0.35887057,-0.35352272,-0.33659297,-0.3321619,-0.3455162,-0.35352272,-0.34282702,-0.31700456,-0.29830247,-0.29295462,-0.28675115,-0.26982135,-0.2520054,-0.24754381,-0.2511192,-0.23418951,-0.18877876,-0.14159554,-0.123779595,-0.14514035,-0.17719686,-0.19055116,-0.18434763,-0.18343091,-0.19501281,-0.20482218,-0.20393598,-0.20124686,-0.2244106,-0.27428305,-0.33035892,-0.36687702,-0.38111752,-0.39092702,-0.40339512,-0.40605372,-0.39269942,-0.37222487,-0.36599082,-0.37757266,-0.38380677,-0.37488347,-0.36330163,-0.37399727,-0.39181322,-0.3579843,-0.2190628,0.033844113,0.3348205,0.61709464,0.8129784,0.853958,0.68209386,0.28225887,-0.23330331,-0.6820939,-0.9234189,-0.92607754,-0.79073143,-0.64468956,-0.5413999,-0.47640073,-0.42921752,-0.40070587,-0.3900408,-0.37934512,-0.35975677,-0.33659297,-0.32858646,-0.33659297,-0.34105462,-0.32592785,-0.29830247,-0.2831757,-0.28763735,-0.29206842,-0.27960032,-0.25558084,-0.24311274,-0.24846059,-0.2511192,-0.2368787,-0.21282876,-0.20036066,-0.20213306,-0.19858813,-0.17453814,-0.1380201,-0.11577314,-0.1130839,-0.10776657,-0.08102739,-0.042736888,-0.016028225,-0.006249368,0.007104993,0.03738892,0.08102739,0.11397004,0.12732434,0.13979244,0.16738725,0.20301914,0.219949,0.21460116,0.20659459,0.21102571,0.22438002,0.22172141,0.19501269,0.15849459,0.13089979,0.10684979,0.064983845,0.005332589,-0.049887657,-0.08814764,-0.11400062,-0.1504882,-0.20301926,-0.2511192,-0.2805171,-0.2947576,-0.31611836,-0.34994733,-0.37668645,-0.38380677,-0.37845892,-0.38111752,-0.39893347,-0.41317403,-0.41317403,-0.40428132,-0.40605372,-0.42121106,-0.43098998,-0.42121106,-0.40070587,-0.39358562,-0.40516752,-0.41406024,-0.40693992,-0.38735157,-0.37845892,-0.38469297,-0.38823777,-0.37488347,-0.35086405,-0.34105462,-0.34994733,-0.3579843,-0.34906107,-0.32858646,-0.3214662,-0.33124512,-0.34016836,-0.3339343,-0.31611836,-0.3107705,-0.32504165,-0.33659297,-0.33124512,-0.31434596,-0.3089981,-0.3223524,-0.33747917,-0.33482057,-0.32058,-0.31789076,-0.33124512,-0.3455162,-0.34640247,-0.33570677,-0.3330481,-0.34463,-0.3517503,-0.34282702,-0.32504165,-0.3223524,-0.33928216,-0.35440892,-0.3517503,-0.33839595,-0.33482057,-0.34728867,-0.35887057,-0.3517503,-0.3339343,-0.33124512,-0.34640247,-0.3570981,-0.34817487,-0.32504165,-0.3089981,-0.3089981,-0.30633944,-0.28852355,-0.26535982,-0.25646704,-0.26001197,-0.250233,-0.21282876,-0.1629563,-0.1371339,-0.14782959,-0.17096275,-0.17988598,-0.17276573,-0.17365193,-0.19235408,-0.21194255,-0.21729034,-0.21371496,-0.23064464,-0.27516925,-0.32947272,-0.36599082,-0.38111752,-0.3900408,-0.40159214,-0.40605372,-0.39181322,-0.36599082,-0.35440892,-0.36241543,-0.37222487,-0.36687702,-0.35263652,-0.35529512,-0.37399727,-0.36241543,-0.2707076,-0.07571018,0.18608952,0.45681226,0.6785184,0.7898451,0.7194983,0.41940808,-0.048084736,-0.5236145,-0.8450655,-0.93677324,-0.85041326,-0.70259905,-0.5743426,-0.48532403,-0.42386973,-0.3900408,-0.38023132,-0.3704524,-0.34994733,-0.32412487,-0.31257355,-0.31789076,-0.32412487,-0.31434596,-0.29118222,-0.27782786,-0.27960032,-0.2822895,-0.26804894,-0.24222654,-0.22884166,-0.23330331,-0.2368787,-0.2244106,-0.20036066,-0.18789256,-0.19235408,-0.1941266,-0.17542434,-0.13982314,-0.1130839,-0.10596365,-0.10153252,-0.08014119,-0.04453981,-0.016914487,-0.0053631663,0.008907914,0.040964365,0.08726144,0.121976495,0.13444471,0.14156497,0.16207004,0.19589889,0.21906269,0.2226075,0.21814597,0.22172141,0.23061407,0.22349381,0.19589889,0.1611532,0.13713384,0.11931789,0.085489035,0.029382467,-0.031185508,-0.07571018,-0.10596365,-0.14425415,-0.19678521,-0.24577135,-0.27336627,-0.2822895,-0.29830247,-0.33035892,-0.36241543,-0.37488347,-0.37222487,-0.37576967,-0.39269942,-0.4078262,-0.40693992,-0.39447182,-0.39716107,-0.41763562,-0.43722403,-0.4336486,-0.41228777,-0.39981967,-0.40428132,-0.41051537,-0.40339512,-0.38111752,-0.36953568,-0.37488347,-0.38023132,-0.36864942,-0.3455162,-0.33570677,-0.34371322,-0.35440892,-0.34640247,-0.3232386,-0.3116567,-0.32058,-0.3339343,-0.3330481,-0.3188076,-0.3116567,-0.3223524,-0.33482057,-0.3321619,-0.31523216,-0.3072257,-0.3188076,-0.3321619,-0.3339343,-0.3214662,-0.31611836,-0.32770026,-0.34016836,-0.33839595,-0.32504165,-0.32058,-0.3321619,-0.34463,-0.34194082,-0.32412487,-0.31700456,-0.32770026,-0.34194082,-0.34105462,-0.32681406,-0.32058,-0.33124512,-0.33928216,-0.32947272,-0.30542272,-0.29029596,-0.29295462,-0.2956438,-0.2831757,-0.26001197,-0.24488515,-0.24665755,-0.24130976,-0.21105629,-0.16741788,-0.13982314,-0.14159554,-0.15406364,-0.15760845,-0.149602,-0.15229118,-0.17276573,-0.19324028,-0.1941266,-0.18077219,-0.19055116,-0.23418951,-0.29295462,-0.33839595,-0.35975677,-0.36953568,-0.38200372,-0.38735157,-0.37488347,-0.34994733,-0.33747917,-0.34640247,-0.3579843,-0.35263652,-0.33570677,-0.3339343,-0.35440892,-0.3579843,-0.28852355,-0.11577314,0.13355851,0.40070593,0.64022803,0.79073143,0.7853836,0.5609883,0.13802004,-0.3455162,-0.7212707,-0.8842422,-0.85041326,-0.7203844,-0.5859245,-0.48709643,-0.42029428,-0.38557917,-0.37399727,-0.36510456,-0.3455162,-0.32058,-0.3081119,-0.31257355,-0.31434596,-0.2974162,-0.26804894,-0.2520054,-0.25735325,-0.26804894,-0.2627011,-0.24042356,-0.22618306,-0.22795546,-0.23418951,-0.22706926,-0.2065947,-0.19235408,-0.19055116,-0.18700624,-0.16564548,-0.13001364,-0.10684985,-0.10330492,-0.10241872,-0.08371663,-0.048084736,-0.01780063,-0.004446447,0.007104993,0.034730315,0.078368664,0.11397004,0.13178599,0.14514029,0.17096269,0.20836699,0.23061407,0.22972786,0.22083509,0.2226075,0.23684812,0.23773432,0.21548724,0.18254459,0.15760839,0.13890624,0.103274465,0.04362309,-0.023148477,-0.073020935,-0.10330492,-0.1371339,-0.18523383,-0.23418951,-0.26624602,-0.27782786,-0.29295462,-0.3214662,-0.3517503,-0.36510456,-0.36330163,-0.36599082,-0.38200372,-0.39893347,-0.39981967,-0.38646537,-0.38469297,-0.40070587,-0.41940808,-0.41852188,-0.39716107,-0.38469297,-0.3900408,-0.40159214,-0.39981967,-0.38111752,-0.36687702,-0.36953568,-0.37576967,-0.36864942,-0.34817487,-0.33659297,-0.34105462,-0.34906107,-0.34016836,-0.31789076,-0.3072257,-0.31434596,-0.32681406,-0.3232386,-0.30276406,-0.29118222,-0.29830247,-0.3089981,-0.3081119,-0.2947576,-0.28940976,-0.30099165,-0.31434596,-0.3116567,-0.29653,-0.29206842,-0.3089981,-0.32947272,-0.33482057,-0.32058,-0.3107705,-0.3196938,-0.33124512,-0.32858646,-0.3116567,-0.30276406,-0.3107705,-0.32681406,-0.32858646,-0.31434596,-0.3072257,-0.31700456,-0.3321619,-0.3321619,-0.31789076,-0.3107705,-0.3214662,-0.3321619,-0.32504165,-0.29830247,-0.27605546,-0.2707076,-0.27336627,-0.26804894,-0.24846059,-0.23153085,-0.22172141,-0.20213306,-0.16653168,-0.1264382,-0.111311495,-0.12824124,-0.15583605,-0.16741788,-0.15849465,-0.15317738,-0.1647287,-0.18165839,-0.18789256,-0.18877876,-0.21105629,-0.26535982,-0.32681406,-0.36599082,-0.36953568,-0.36330163,-0.36599082,-0.3713386,-0.36152917,-0.33928216,-0.32770026,-0.33570677,-0.34906107,-0.3517503,-0.34463,-0.34817487,-0.34906107,-0.29295462,-0.125552,0.15226054,0.4612434,0.7257322,0.8690847,0.8388009,0.5966202,0.1593808,-0.34463,-0.7444344,-0.9154124,-0.8601922,-0.7016822,-0.56544983,-0.48975503,-0.44434428,-0.40339512,-0.37222487,-0.35887057,-0.35529512,-0.3455162,-0.3223524,-0.30453646,-0.30187786,-0.30453646,-0.29206842,-0.26535982,-0.2493468,-0.25469464,-0.26893514,-0.26713222,-0.24577135,-0.22706926,-0.2244106,-0.22975844,-0.2190628,-0.19324028,-0.17187953,-0.17007655,-0.17365193,-0.16029763,-0.13001364,-0.10330492,-0.09349549,-0.08814764,-0.066786885,-0.027610183,0.0044463873,0.01868689,0.029382467,0.05697739,0.104191184,0.14248168,0.15760839,0.16295624,0.17985535,0.21371484,0.24042356,0.24219596,0.23150027,0.22884166,0.23684812,0.23507571,0.2074809,0.16295624,0.12466574,0.097957134,0.06409764,0.011566639,-0.048970938,-0.09529847,-0.12289339,-0.15494984,-0.20301926,-0.2537778,-0.28406197,-0.29295462,-0.30187786,-0.32592785,-0.35618138,-0.36953568,-0.36599082,-0.36687702,-0.38557917,-0.41140157,-0.41852188,-0.40339512,-0.39181322,-0.40070587,-0.41940808,-0.42298347,-0.40605372,-0.39181322,-0.39358562,-0.40159214,-0.40070587,-0.38200372,-0.36953568,-0.37311107,-0.38380677,-0.37757266,-0.35352272,-0.3339343,-0.33482057,-0.34371322,-0.34194082,-0.32412487,-0.3107705,-0.31434596,-0.32592785,-0.32504165,-0.30633944,-0.2947576,-0.30453646,-0.3223524,-0.32504165,-0.3072257,-0.2956438,-0.30453646,-0.3232386,-0.3321619,-0.3232386,-0.31345975,-0.3214662,-0.33570677,-0.33570677,-0.3196938,-0.3107705,-0.3223524,-0.34105462,-0.34640247,-0.33124512,-0.3196938,-0.32681406,-0.34194082,-0.3455162,-0.3321619,-0.3232386,-0.3321619,-0.34728867,-0.34994733,-0.33570677,-0.32504165,-0.33124512,-0.34371322,-0.33659297,-0.3072257,-0.2805171,-0.27336627,-0.27871412,-0.27694166,-0.25823945,-0.2395373,-0.22706926,-0.21017003,-0.17719686,-0.13447529,-0.1130839,-0.12824124,-0.1620701,-0.18254471,-0.17988598,-0.1763106,-0.18612003,-0.20393598,-0.21371496,-0.21817654,-0.24130976,-0.29295462,-0.35529512,-0.39447182,-0.39893347,-0.3900408,-0.39092702,-0.39804727,-0.39269942,-0.37576967,-0.36421835,-0.3704524,-0.3829205,-0.38557917,-0.37576967,-0.37845892,-0.3829205,-0.33570677,-0.18165839,0.09349549,0.4114015,0.69098663,0.8486103,0.82990813,0.60105133,0.1718489,-0.33747917,-0.7604779,-0.96259564,-0.9269943,-0.7738322,-0.632252,-0.54852015,-0.49956453,-0.4532675,-0.41140157,-0.38469297,-0.3713386,-0.35440892,-0.32947272,-0.31611836,-0.32058,-0.33124512,-0.32681406,-0.3001054,-0.27960032,-0.2814033,-0.29206842,-0.29206842,-0.27336627,-0.2537778,-0.2493468,-0.250233,-0.2395373,-0.21017003,-0.18612003,-0.17899978,-0.18434763,-0.17899978,-0.15317738,-0.12824124,-0.117545545,-0.10776657,-0.08460283,-0.04453981,-0.008907974,0.008907914,0.021376014,0.051629543,0.09972954,0.13979244,0.15137434,0.14514029,0.15048814,0.17808294,0.20659459,0.21460116,0.20567787,0.20213306,0.20925331,0.20659459,0.18165839,0.14067876,0.105077386,0.08014119,0.046312213,-0.006249368,-0.07124853,-0.12020415,-0.14694339,-0.1763106,-0.22083521,-0.26804894,-0.3001054,-0.3098843,-0.3196938,-0.34640247,-0.37845892,-0.39358562,-0.3891546,-0.3829205,-0.39538866,-0.42029428,-0.4336486,-0.42921752,-0.42475593,-0.43276238,-0.4461167,-0.44434428,-0.42652833,-0.41140157,-0.41228777,-0.42475593,-0.42564213,-0.40516752,-0.38557917,-0.38111752,-0.3829205,-0.37576967,-0.3579843,-0.34817487,-0.35529512,-0.3713386,-0.36953568,-0.34640247,-0.32681406,-0.33035892,-0.34371322,-0.3455162,-0.3321619,-0.32058,-0.32770026,-0.34817487,-0.35529512,-0.34194082,-0.32770026,-0.3321619,-0.34906107,-0.35618138,-0.34640247,-0.33482057,-0.33570677,-0.34906107,-0.3579843,-0.35352272,-0.34994733,-0.35618138,-0.36510456,-0.36064297,-0.34640247,-0.33839595,-0.35263652,-0.3713386,-0.3713386,-0.35352272,-0.34105462,-0.35263652,-0.37576967,-0.38469297,-0.3704524,-0.3517503,-0.34728867,-0.3517503,-0.34463,-0.3214662,-0.3001054,-0.2947576,-0.30453646,-0.30187786,-0.27960032,-0.25646704,-0.2395373,-0.2252968,-0.19947445,-0.1620701,-0.14159554,-0.15317738,-0.18612003,-0.2074809,-0.20393598,-0.19501281,-0.20213306,-0.22083521,-0.2368787,-0.24846059,-0.27336627,-0.3223524,-0.38023132,-0.41317403,-0.41140157,-0.39627486,-0.39181322,-0.39804727,-0.39447182,-0.37488347,-0.35887057,-0.36421835,-0.38111752,-0.3900408,-0.38646537,-0.38380677,-0.3713386,-0.31611836,-0.1629563,0.09349549,0.3846624,0.6259875,0.74620664,0.6981069,0.449692,0.033844113,-0.43633777,-0.8076611,-0.96082324,-0.8940211,-0.72661847,-0.57880425,-0.49867833,-0.45415372,-0.41586322,-0.3829205,-0.36599082,-0.36776322,-0.36776322,-0.3570981,-0.34371322,-0.33747917,-0.33659297,-0.3223524,-0.2956438,-0.27694166,-0.27960032,-0.29206842,-0.29118222,-0.26893514,-0.24754381,-0.24488515,-0.2528916,-0.24754381,-0.22352439,-0.19770193,-0.18612003,-0.18789256,-0.17988598,-0.15317738,-0.12735492,-0.11488682,-0.10953897,-0.09083688,-0.054318786,-0.016028225,0.005332589,0.014255762,0.032041073,0.065900564,0.10150194,0.12109041,0.12821066,0.14425409,0.1718489,0.19678521,0.20124674,0.18877864,0.18165839,0.18700624,0.1852032,0.16207004,0.123779535,0.08726144,0.06321144,0.03026867,-0.024951518,-0.091723084,-0.14605713,-0.17453814,-0.19770193,-0.23153085,-0.27782786,-0.31611836,-0.3339343,-0.34640247,-0.36776322,-0.39358562,-0.4078262,-0.40605372,-0.40605372,-0.42029428,-0.44257182,-0.45057833,-0.43899643,-0.42475593,-0.4274451,-0.44523048,-0.4532675,-0.44079942,-0.42298347,-0.41674942,-0.42029428,-0.41586322,-0.39716107,-0.38023132,-0.38111752,-0.39181322,-0.39181322,-0.3713386,-0.35086405,-0.34906107,-0.36064297,-0.36152917,-0.34371322,-0.32504165,-0.32592785,-0.34282702,-0.35086405,-0.33659297,-0.3214662,-0.3232386,-0.34016836,-0.35086405,-0.34194082,-0.32770026,-0.32947272,-0.34282702,-0.34906107,-0.33839595,-0.32858646,-0.33482057,-0.35440892,-0.36241543,-0.35086405,-0.33570677,-0.33659297,-0.3517503,-0.3579843,-0.34817487,-0.33482057,-0.33570677,-0.34906107,-0.35529512,-0.34728867,-0.34282702,-0.35086405,-0.36953568,-0.36864942,-0.34463,-0.31789076,-0.3072257,-0.3098843,-0.3072257,-0.29206842,-0.27605546,-0.27248,-0.26804894,-0.24222654,-0.19678521,-0.15760845,-0.1504882,-0.17187953,-0.18966496,-0.18877876,-0.18434763,-0.19055116,-0.20836711,-0.2190628,-0.21817654,-0.22975844,-0.26893514,-0.32858646,-0.37668645,-0.39358562,-0.39181322,-0.3900408,-0.39447182,-0.3891546,-0.36953568,-0.35352272,-0.3579843,-0.37399727,-0.37668645,-0.36152917,-0.3517503,-0.36421835,-0.36953568,-0.30633944,-0.1353615,0.123779535,0.3989334,0.6277597,0.75598586,0.729277,0.49241376,0.065900564,-0.41586322,-0.7818387,-0.9225327,-0.8575335,-0.70791626,-0.57969046,-0.49779212,-0.44168562,-0.40159214,-0.38023132,-0.37222487,-0.36152917,-0.33928216,-0.3188076,-0.31611836,-0.32504165,-0.32681406,-0.3107705,-0.28940976,-0.2831757,-0.29118222,-0.28940976,-0.26893514,-0.24577135,-0.2386511,-0.24665755,-0.2493468,-0.23241705,-0.21017003,-0.19947445,-0.19947445,-0.18966496,-0.1620701,-0.13267225,-0.12020415,-0.12020415,-0.10865277,-0.07390714,-0.03830588,-0.01780063,-0.011597216,0.006218791,0.04985702,0.098843336,0.12909687,0.13802004,0.14960194,0.17542434,0.20213306,0.21102571,0.20567787,0.20390546,0.21637356,0.22795534,0.21102571,0.16738725,0.122862816,0.09260929,0.06321144,0.01868689,-0.041850686,-0.097957134,-0.13447529,-0.1629563,-0.20124686,-0.24846059,-0.28583437,-0.30365026,-0.31434596,-0.33747917,-0.3704524,-0.39092702,-0.3900408,-0.38200372,-0.3891546,-0.40962917,-0.42209727,-0.41674942,-0.4078262,-0.41317403,-0.43276238,-0.44079942,-0.42921752,-0.41228777,-0.41051537,-0.42386973,-0.42652833,-0.41051537,-0.3900408,-0.38469297,-0.39538866,-0.39627486,-0.37668645,-0.34906107,-0.33928216,-0.34906107,-0.35529512,-0.34817487,-0.33659297,-0.33659297,-0.34906107,-0.34906107,-0.3321619,-0.31257355,-0.3098843,-0.32681406,-0.33928216,-0.33035892,-0.31611836,-0.31700456,-0.33124512,-0.33839595,-0.32947272,-0.31700456,-0.31523216,-0.32858646,-0.33928216,-0.3339343,-0.32770026,-0.3339343,-0.34906107,-0.35263652,-0.33928216,-0.32504165,-0.33124512,-0.35352272,-0.36510456,-0.35263652,-0.3339343,-0.32947272,-0.34371322,-0.35440892,-0.34640247,-0.33124512,-0.33035892,-0.34463,-0.35086405,-0.33839595,-0.31611836,-0.30542272,-0.30542272,-0.29918867,-0.27960032,-0.25735325,-0.2511192,-0.25646704,-0.24577135,-0.2057085,-0.16029763,-0.14425415,-0.15672225,-0.17365193,-0.1763106,-0.16741788,-0.16741788,-0.18434763,-0.1941266,-0.18700624,-0.18254471,-0.2074809,-0.2618149,-0.3196938,-0.3579843,-0.37576967,-0.3891546,-0.40428132,-0.40516752,-0.38823777,-0.36776322,-0.36421835,-0.37668645,-0.38111752,-0.36776322,-0.35618138,-0.3704524,-0.4025089,-0.39627486,-0.29918867,-0.09260929,0.18608952,0.46747756,0.71592283,0.8503827,0.7987379,0.5128882,0.04273677,-0.44703346,-0.7934206,-0.9145262,-0.8494965,-0.70880246,-0.5761455,-0.48174858,-0.42475593,-0.39981967,-0.39358562,-0.38111752,-0.35352272,-0.32858646,-0.32058,-0.32858646,-0.33035892,-0.31523216,-0.2956438,-0.28940976,-0.2974162,-0.29653,-0.27694166,-0.2511192,-0.24130976,-0.24754381,-0.24665755,-0.22618306,-0.20124686,-0.19235408,-0.19858813,-0.19770193,-0.17811358,-0.1504882,-0.1362477,-0.1353615,-0.12289339,-0.08906442,-0.04453981,-0.018717468,-0.012483418,-0.00090152025,0.029382467,0.071217895,0.10238814,0.115742564,0.13178599,0.1611532,0.19320977,0.21102571,0.21102571,0.21282876,0.22884166,0.24130976,0.23330319,0.20301914,0.17362142,0.15583599,0.13890624,0.103274465,0.04362309,-0.01336962,-0.05609119,-0.091723084,-0.1371339,-0.19146788,-0.23418951,-0.2528916,-0.2644735,-0.29029596,-0.3321619,-0.36510456,-0.37399727,-0.36864942,-0.37488347,-0.39447182,-0.40693992,-0.39893347,-0.38823777,-0.39358562,-0.41763562,-0.43633777,-0.43098998,-0.414977,-0.40962917,-0.41940808,-0.42475593,-0.41140157,-0.39181322,-0.38469297,-0.39181322,-0.39181322,-0.37576967,-0.35440892,-0.34906107,-0.35975677,-0.36421835,-0.34994733,-0.32947272,-0.32592785,-0.34105462,-0.35263652,-0.34371322,-0.32592785,-0.3196938,-0.33035892,-0.33839595,-0.32947272,-0.31523216,-0.3107705,-0.32504165,-0.33570677,-0.3321619,-0.3223524,-0.32412487,-0.33747917,-0.34194082,-0.33124512,-0.3196938,-0.32504165,-0.34817487,-0.36064297,-0.34817487,-0.32592785,-0.32058,-0.33659297,-0.35086405,-0.34817487,-0.33482057,-0.3330481,-0.34728867,-0.35529512,-0.34640247,-0.32858646,-0.32504165,-0.33747917,-0.34817487,-0.34640247,-0.33570677,-0.33659297,-0.3455162,-0.34016836,-0.31434596,-0.2814033,-0.26624602,-0.27428305,-0.27960032,-0.2644735,-0.23599249,-0.20393598,-0.18254471,-0.1629563,-0.1389063,-0.1264382,-0.14248174,-0.17453814,-0.19235408,-0.18254471,-0.16653168,-0.1647287,-0.18877876,-0.21729034,-0.2386511,-0.2618149,-0.30453646,-0.36152917,-0.40159214,-0.4025089,-0.38469297,-0.37668645,-0.38469297,-0.39181322,-0.38111752,-0.35887057,-0.34906107,-0.35529512,-0.36330163,-0.36864942,-0.36510456,-0.34016836,-0.25823945,-0.06590068,0.2226075,0.53962743,0.78626966,0.86997104,0.7524408,0.42741454,-0.03830588,-0.5102297,-0.8468379,-0.95189995,-0.85395813,-0.6758598,-0.5369688,-0.47551453,-0.44880593,-0.42029428,-0.38646537,-0.36510456,-0.36330163,-0.36330163,-0.34640247,-0.3196938,-0.3072257,-0.31434596,-0.31789076,-0.30365026,-0.2805171,-0.27248,-0.27871412,-0.27960032,-0.25912565,-0.23064464,-0.2190628,-0.22884166,-0.2386511,-0.2252968,-0.19858813,-0.18434763,-0.18523383,-0.18254471,-0.15849465,-0.11843175,-0.09083688,-0.08194417,-0.07036233,-0.041850686,-0.0053631663,0.01780057,0.024920821,0.041850567,0.078368664,0.12109041,0.14871573,0.14871573,0.15137434,0.17453814,0.20659459,0.219949,0.20836699,0.19143736,0.18608952,0.18789244,0.1727351,0.13267219,0.08814764,0.05520487,0.026693344,-0.016028225,-0.07748258,-0.13089985,-0.1647287,-0.18789256,-0.22263819,-0.27516925,-0.3196938,-0.33570677,-0.33747917,-0.34817487,-0.37311107,-0.39538866,-0.39981967,-0.39358562,-0.40428132,-0.43098998,-0.4461167,-0.43988264,-0.42209727,-0.41852188,-0.43722403,-0.44880593,-0.43811023,-0.41317403,-0.39981967,-0.40516752,-0.41140157,-0.40070587,-0.38111752,-0.37222487,-0.37934512,-0.38469297,-0.37222487,-0.35618138,-0.35352272,-0.36421835,-0.36421835,-0.34728867,-0.32412487,-0.3214662,-0.34194082,-0.3570981,-0.34994733,-0.32681406,-0.31700456,-0.32770026,-0.34016836,-0.33928216,-0.32858646,-0.33035892,-0.34640247,-0.35529512,-0.34906107,-0.3321619,-0.33035892,-0.34728867,-0.35975677,-0.3517503,-0.33124512,-0.32592785,-0.34371322,-0.36152917,-0.36241543,-0.34994733,-0.34728867,-0.3570981,-0.36330163,-0.35352272,-0.33747917,-0.33747917,-0.35618138,-0.3713386,-0.36421835,-0.34282702,-0.32858646,-0.33124512,-0.3321619,-0.31611836,-0.29295462,-0.28675115,-0.3001054,-0.30542272,-0.28406197,-0.24042356,-0.20124686,-0.18165839,-0.17453814,-0.1647287,-0.15760845,-0.16741788,-0.19055116,-0.20482218,-0.20124686,-0.18700624,-0.19235408,-0.22706926,-0.26982135,-0.30633944,-0.33124512,-0.36687702,-0.40962917,-0.43187618,-0.42386973,-0.39804727,-0.3829205,-0.38646537,-0.39092702,-0.37934512,-0.3579843,-0.34817487,-0.36064297,-0.37668645,-0.3713386,-0.3223524,-0.21817654,-0.043653607,0.19678521,0.4603573,0.6740873,0.7515547,0.6277597,0.3116567,-0.11931795,-0.53427964,-0.8210155,-0.9162986,-0.8361422,-0.6740874,-0.5245007,-0.44079942,-0.40962917,-0.39181322,-0.36330163,-0.32592785,-0.30542272,-0.31257355,-0.3188076,-0.3089981,-0.28763735,-0.27782786,-0.28675115,-0.29295462,-0.27960032,-0.25469464,-0.24130976,-0.24665755,-0.2537778,-0.24577135,-0.22352439,-0.21017003,-0.21105629,-0.21017003,-0.1941266,-0.16653168,-0.14782959,-0.14425415,-0.14070934,-0.12112087,-0.08995068,-0.06855929,-0.060552835,-0.047198534,-0.01780063,0.023148417,0.054318786,0.06944549,0.08637524,0.12020409,0.1593808,0.17985535,0.17896926,0.17542434,0.18789244,0.21371484,0.22618294,0.21906269,0.2074809,0.20036054,0.18877864,0.15137434,0.089920044,0.026693344,-0.01960367,-0.05077398,-0.091723084,-0.1487158,-0.19858813,-0.22884166,-0.24577135,-0.27336627,-0.31700456,-0.3570981,-0.37311107,-0.36864942,-0.37399727,-0.39538866,-0.41586322,-0.41940808,-0.41140157,-0.41586322,-0.43545157,-0.45415372,-0.45235074,-0.4336486,-0.42386973,-0.43098998,-0.43722403,-0.43010378,-0.40962917,-0.40070587,-0.40693992,-0.41140157,-0.39981967,-0.37757266,-0.36864942,-0.37934512,-0.38557917,-0.3704524,-0.34194082,-0.32592785,-0.33482057,-0.34817487,-0.34728867,-0.3330481,-0.32412487,-0.3330481,-0.34282702,-0.33659297,-0.3214662,-0.3188076,-0.3339343,-0.34994733,-0.34817487,-0.33124512,-0.3188076,-0.32681406,-0.33839595,-0.33928216,-0.3330481,-0.33570677,-0.34994733,-0.35887057,-0.35086405,-0.3339343,-0.33035892,-0.34463,-0.35887057,-0.3517503,-0.3339343,-0.33124512,-0.34817487,-0.36776322,-0.36776322,-0.35086405,-0.33928216,-0.34640247,-0.3579843,-0.34906107,-0.32947272,-0.3196938,-0.32592785,-0.33124512,-0.3188076,-0.29206842,-0.27694166,-0.2814033,-0.28494817,-0.2618149,-0.21548736,-0.17988598,-0.16653168,-0.16564548,-0.15760845,-0.14605713,-0.1504882,-0.17453814,-0.19947445,-0.20393598,-0.18877876,-0.18523383,-0.21105629,-0.2511192,-0.28852355,-0.3223524,-0.35618138,-0.39447182,-0.414977,-0.40693992,-0.37845892,-0.35887057,-0.35975677,-0.36599082,-0.35975677,-0.34105462,-0.33659297,-0.35887057,-0.38823777,-0.38111752,-0.3001054,-0.13358909,0.111311436,0.3953581,0.67051184,0.84414864,0.8272495,0.5752288,0.14067876,-0.32947272,-0.69456196,-0.8762357,-0.8735465,-0.7551301,-0.60908824,-0.49421668,-0.43098998,-0.40962917,-0.39804727,-0.37222487,-0.33839595,-0.3223524,-0.32681406,-0.3330481,-0.32412487,-0.29830247,-0.2805171,-0.2805171,-0.2814033,-0.2715938,-0.25469464,-0.24846059,-0.25558084,-0.25646704,-0.2395373,-0.21282876,-0.19589901,-0.19858813,-0.20124686,-0.18700624,-0.15941143,-0.14070934,-0.1353615,-0.125552,-0.10330492,-0.07036233,-0.048970938,-0.04542613,-0.037419558,-0.00713557,0.039161325,0.07567954,0.09349549,0.10684979,0.13444471,0.1727351,0.1976713,0.20213306,0.20124674,0.21102571,0.23150027,0.24130976,0.22529685,0.20124674,0.18254459,0.16830409,0.13979244,0.09349549,0.040964365,-0.00090152025,-0.03295803,-0.07571018,-0.13178605,-0.18612003,-0.22083521,-0.2377649,-0.2627011,-0.3001054,-0.3321619,-0.34728867,-0.34463,-0.35086405,-0.37222487,-0.39269942,-0.39358562,-0.37934512,-0.37668645,-0.39269942,-0.41051537,-0.41317403,-0.40070587,-0.39627486,-0.40874296,-0.41940808,-0.41051537,-0.38646537,-0.36776322,-0.37222487,-0.38023132,-0.37576967,-0.35975677,-0.34994733,-0.35440892,-0.35975677,-0.34906107,-0.32681406,-0.31611836,-0.32412487,-0.3339343,-0.32681406,-0.30542272,-0.2947576,-0.30453646,-0.31523216,-0.31434596,-0.30099165,-0.2947576,-0.30633944,-0.31789076,-0.3116567,-0.29295462,-0.28675115,-0.3001054,-0.3188076,-0.3223524,-0.3089981,-0.30453646,-0.31523216,-0.32770026,-0.3232386,-0.30542272,-0.29918867,-0.3107705,-0.32681406,-0.32770026,-0.3098843,-0.2974162,-0.30542272,-0.31523216,-0.31257355,-0.29918867,-0.2947576,-0.3089981,-0.32412487,-0.3223524,-0.30365026,-0.29206842,-0.30187786,-0.31611836,-0.31345975,-0.29118222,-0.2715938,-0.2644735,-0.26001197,-0.24488515,-0.219949,-0.20925331,-0.21282876,-0.20836711,-0.17899978,-0.13178605,-0.10153252,-0.10153252,-0.117545545,-0.12735492,-0.1264382,-0.13089985,-0.149602,-0.1647287,-0.1620701,-0.1513744,-0.1620701,-0.2057085,-0.26089817,-0.30542272,-0.32770026,-0.34371322,-0.36152917,-0.36776322,-0.35263652,-0.32681406,-0.31523216,-0.32592785,-0.34194082,-0.33747917,-0.3196938,-0.31700456,-0.34105462,-0.34906107,-0.2805171,-0.1006158,0.16738725,0.45858467,0.72038436,0.8788943,0.8646232,0.61709464,0.16384244,-0.34282702,-0.72842145,-0.88690084,-0.8397176,-0.7016822,-0.56722236,-0.47285593,-0.40962917,-0.3713386,-0.35263652,-0.33928216,-0.31789076,-0.2947576,-0.28583437,-0.29295462,-0.29918867,-0.28675115,-0.25823945,-0.2395373,-0.24399894,-0.2537778,-0.24577135,-0.2190628,-0.20213306,-0.20482218,-0.21105629,-0.20393598,-0.17899978,-0.1620701,-0.1638425,-0.16830415,-0.15583605,-0.125552,-0.10330492,-0.09618467,-0.09260929,-0.07213473,-0.034730434,-0.006249368,0.006218791,0.019573092,0.048084617,0.091723084,0.12555194,0.13890624,0.14602649,0.16830409,0.20390546,0.22529685,0.22795534,0.22618294,0.23507571,0.25377786,0.2582395,0.23596191,0.20479155,0.18608952,0.1727351,0.14156497,0.083685994,0.016914368,-0.030268788,-0.05878043,-0.09438175,-0.14605713,-0.20124686,-0.23599249,-0.24846059,-0.26089817,-0.28852355,-0.3223524,-0.33928216,-0.34105462,-0.34728867,-0.36687702,-0.38646537,-0.3891546,-0.37576967,-0.36687702,-0.37845892,-0.39627486,-0.40159214,-0.39181322,-0.38469297,-0.39092702,-0.39716107,-0.38646537,-0.36241543,-0.34994733,-0.3570981,-0.36864942,-0.36241543,-0.33570677,-0.31523216,-0.31434596,-0.32058,-0.31434596,-0.2938714,-0.2814033,-0.28675115,-0.2974162,-0.2938714,-0.27336627,-0.2644735,-0.27694166,-0.2956438,-0.29653,-0.2822895,-0.27428305,-0.28583437,-0.30187786,-0.30276406,-0.28583437,-0.27782786,-0.28583437,-0.30187786,-0.30542272,-0.29295462,-0.29118222,-0.3072257,-0.32412487,-0.32592785,-0.3107705,-0.30276406,-0.31700456,-0.33124512,-0.32858646,-0.3089981,-0.2947576,-0.30187786,-0.3188076,-0.3223524,-0.3107705,-0.30633944,-0.31789076,-0.3321619,-0.32947272,-0.3089981,-0.29206842,-0.29118222,-0.2956438,-0.28763735,-0.26713222,-0.25646704,-0.2627011,-0.26804894,-0.2511192,-0.20482218,-0.1611839,-0.14070934,-0.1353615,-0.13178605,-0.12735492,-0.13447529,-0.15672225,-0.17988598,-0.18434763,-0.17007655,-0.1638425,-0.18789256,-0.23153085,-0.27605546,-0.3107705,-0.34728867,-0.3829205,-0.40070587,-0.39447182,-0.36953568,-0.3517503,-0.3570981,-0.36687702,-0.36152917,-0.34016836,-0.32770026,-0.34016836,-0.36421835,-0.36864942,-0.31700456,-0.20124686,-0.0106803775,0.24308217,0.5218115,0.74709296,0.82190156,0.676746,0.31611824,-0.15229118,-0.57880425,-0.85395813,-0.9278805,-0.835256,-0.67054254,-0.52181154,-0.43988264,-0.414977,-0.40962917,-0.38823777,-0.34817487,-0.3196938,-0.31523216,-0.32058,-0.31523216,-0.2938714,-0.2805171,-0.28763735,-0.2956438,-0.28763735,-0.2635873,-0.24577135,-0.24665755,-0.2537778,-0.24488515,-0.21817654,-0.20036066,-0.20124686,-0.2065947,-0.19589901,-0.16830415,-0.14605713,-0.14070934,-0.1389063,-0.12020415,-0.079254985,-0.04542613,-0.03295803,-0.026723921,-0.00713557,0.03026867,0.066786885,0.08726144,0.10061574,0.12466574,0.16384244,0.19143736,0.19855762,0.19855762,0.20659459,0.22618294,0.2324171,0.21371484,0.1852032,0.1727351,0.17453814,0.1593808,0.115742564,0.05609119,0.0026738644,-0.03207177,-0.06855929,-0.11931795,-0.17542434,-0.21371496,-0.23418951,-0.25558084,-0.29295462,-0.3321619,-0.35263652,-0.35440892,-0.36064297,-0.38111752,-0.40516752,-0.41586322,-0.40693992,-0.4025089,-0.41763562,-0.43899643,-0.44345808,-0.43010378,-0.42029428,-0.42298347,-0.4336486,-0.42921752,-0.41051537,-0.39981967,-0.40516752,-0.414977,-0.4078262,-0.3829205,-0.36421835,-0.36599082,-0.37668645,-0.37399727,-0.3570981,-0.34640247,-0.35263652,-0.36152917,-0.35086405,-0.32592785,-0.3116567,-0.32412487,-0.34994733,-0.3579843,-0.34282702,-0.32858646,-0.33482057,-0.3517503,-0.3570981,-0.34463,-0.33482057,-0.34371322,-0.35887057,-0.36152917,-0.34906107,-0.34016836,-0.34728867,-0.36510456,-0.36864942,-0.35618138,-0.34817487,-0.35618138,-0.3704524,-0.3704524,-0.35352272,-0.34371322,-0.35618138,-0.37488347,-0.37757266,-0.35887057,-0.34016836,-0.33839595,-0.34640247,-0.34371322,-0.32058,-0.30187786,-0.30365026,-0.31345975,-0.3072257,-0.27694166,-0.24222654,-0.2190628,-0.20836711,-0.19501281,-0.17542434,-0.17007655,-0.18700624,-0.21105629,-0.21640414,-0.20393598,-0.19589901,-0.21017003,-0.24665755,-0.2814033,-0.30542272,-0.33659297,-0.37934512,-0.41674942,-0.42652833,-0.4078262,-0.3900408,-0.38735157,-0.39538866,-0.39447182,-0.37576967,-0.36152917,-0.36599082,-0.38200372,-0.39181322,-0.37222487,-0.31345975,-0.19589901,0.006218791,0.2715938,0.5476339,0.7390864,0.76044714,0.56988084,0.1976713,-0.2528916,-0.65184045,-0.8904762,-0.9216465,-0.7969654,-0.62690425,-0.50399566,-0.45146453,-0.43276238,-0.41140157,-0.37311107,-0.34016836,-0.33482057,-0.34282702,-0.34105462,-0.3223524,-0.3072257,-0.30633944,-0.31257355,-0.3081119,-0.28763735,-0.27248,-0.27516925,-0.2814033,-0.2707076,-0.24222654,-0.219949,-0.21817654,-0.2252968,-0.22083521,-0.19947445,-0.17899978,-0.17276573,-0.17007655,-0.1513744,-0.11488682,-0.08460283,-0.07479334,-0.07036233,-0.048970938,-0.008907974,0.027610064,0.046312213,0.053432465,0.07479334,0.11397004,0.14779902,0.1611532,0.16384244,0.17453814,0.1976713,0.21102571,0.20301914,0.18254459,0.16830409,0.16472864,0.14960194,0.10862231,0.054318786,0.008907914,-0.022262335,-0.05878043,-0.11400062,-0.17542434,-0.22263819,-0.2493468,-0.27428305,-0.3089981,-0.34817487,-0.3704524,-0.37311107,-0.37934512,-0.39893347,-0.42298347,-0.43010378,-0.41940808,-0.41406024,-0.42921752,-0.45235074,-0.46304643,-0.45415372,-0.44523048,-0.44880593,-0.45503998,-0.4461167,-0.42386973,-0.40962917,-0.41763562,-0.43545157,-0.43456537,-0.41140157,-0.3891546,-0.38735157,-0.39627486,-0.39269942,-0.37222487,-0.35887057,-0.36241543,-0.37488347,-0.37311107,-0.3517503,-0.3330481,-0.33570677,-0.34728867,-0.34463,-0.33124512,-0.32504165,-0.33928216,-0.36152917,-0.36510456,-0.34640247,-0.33124512,-0.33839595,-0.3570981,-0.36421835,-0.35352272,-0.34371322,-0.34994733,-0.36687702,-0.36864942,-0.35440892,-0.34371322,-0.34817487,-0.36152917,-0.36776322,-0.35618138,-0.35086405,-0.35975677,-0.37488347,-0.37576967,-0.36241543,-0.35263652,-0.35887057,-0.3713386,-0.36864942,-0.35352272,-0.34371322,-0.35529512,-0.37222487,-0.36953568,-0.34105462,-0.3098843,-0.2974162,-0.29918867,-0.2947576,-0.2822895,-0.27336627,-0.27248,-0.26535982,-0.23241705,-0.18254471,-0.149602,-0.1513744,-0.17811358,-0.19858813,-0.19501281,-0.18966496,-0.19858813,-0.21105629,-0.21371496,-0.2065947,-0.21729034,-0.2635873,-0.33035892,-0.3829205,-0.40428132,-0.40874296,-0.41586322,-0.42298347,-0.41763562,-0.39627486,-0.38023132,-0.38469297,-0.39981967,-0.40159214,-0.3891546,-0.38735157,-0.4025089,-0.39447182,-0.30276406,-0.08906442,0.20213306,0.4959892,0.7275046,0.82544637,0.7390864,0.42652833,-0.053432584,-0.5387413,-0.8646538,-0.94924134,-0.85395813,-0.70437145,-0.59304476,-0.5262732,-0.47551453,-0.43811023,-0.41763562,-0.40428132,-0.38735157,-0.36953568,-0.3570981,-0.36064297,-0.36864942,-0.3570981,-0.32592785,-0.30276406,-0.30276406,-0.31700456,-0.31789076,-0.29653,-0.27428305,-0.2707076,-0.27871412,-0.27694166,-0.25646704,-0.23599249,-0.22975844,-0.23330331,-0.22352439,-0.19235408,-0.1611839,-0.149602,-0.14782959,-0.13358909,-0.10153252,-0.06767309,-0.048970938,-0.040964484,-0.021376073,0.020459294,0.061439037,0.08191359,0.089920044,0.10684979,0.13802004,0.16738725,0.17362142,0.16384244,0.16384244,0.17719674,0.18789244,0.17453814,0.13979244,0.10862231,0.089920044,0.06409764,0.016028166,-0.048084736,-0.104191184,-0.13982314,-0.17365193,-0.22083521,-0.27428305,-0.31434596,-0.32770026,-0.33747917,-0.36152917,-0.39447182,-0.41317403,-0.41140157,-0.40693992,-0.41940808,-0.44257182,-0.45592618,-0.44880593,-0.43988264,-0.44523048,-0.46216023,-0.46839428,-0.45415372,-0.43811023,-0.43545157,-0.44434428,-0.44345808,-0.4274451,-0.41228777,-0.41317403,-0.42298347,-0.41940808,-0.40070587,-0.3829205,-0.38200372,-0.39447182,-0.39269942,-0.37311107,-0.35975677,-0.36421835,-0.37934512,-0.38380677,-0.36776322,-0.3517503,-0.35352272,-0.36687702,-0.36599082,-0.34906107,-0.33747917,-0.3455162,-0.36776322,-0.37488347,-0.36064297,-0.34728867,-0.35263652,-0.36687702,-0.36953568,-0.3579843,-0.3517503,-0.36599082,-0.39092702,-0.39804727,-0.37934512,-0.35975677,-0.36152917,-0.37668645,-0.3829205,-0.37222487,-0.36152917,-0.36776322,-0.38646537,-0.39269942,-0.37845892,-0.36687702,-0.37222487,-0.38646537,-0.38469297,-0.36599082,-0.35086405,-0.3579843,-0.37934512,-0.38469297,-0.35887057,-0.32412487,-0.30453646,-0.30453646,-0.30187786,-0.28940976,-0.27782786,-0.2707076,-0.25646704,-0.22083521,-0.17453814,-0.14694339,-0.15849465,-0.1941266,-0.21460116,-0.20925331,-0.19858813,-0.20393598,-0.22172141,-0.23330331,-0.23418951,-0.250233,-0.2938714,-0.3570981,-0.40516752,-0.42121106,-0.41940808,-0.42121106,-0.42921752,-0.42652833,-0.40605372,-0.38735157,-0.38646537,-0.39447182,-0.39358562,-0.38469297,-0.3829205,-0.3900408,-0.36599082,-0.2493468,-0.016914487,0.27782786,0.55741286,0.7444345,0.7880423,0.6366832,0.26979077,-0.22795546,-0.68921417,-0.9545892,-0.9670573,-0.8183568,-0.65272665,-0.5520956,-0.50133693,-0.46393263,-0.43010378,-0.40874296,-0.39981967,-0.3891546,-0.36687702,-0.34817487,-0.3455162,-0.35263652,-0.34906107,-0.32770026,-0.30633944,-0.30276406,-0.31257355,-0.3098843,-0.28675115,-0.2644735,-0.25823945,-0.2627011,-0.25735325,-0.23599249,-0.21371496,-0.2065947,-0.20925331,-0.20036066,-0.16919035,-0.1380201,-0.1246658,-0.123779595,-0.1121977,-0.08194417,-0.046312332,-0.022262335,-0.011597216,0.009794116,0.05074334,0.090806246,0.11397004,0.122862816,0.13713384,0.16384244,0.18789244,0.19055104,0.17631054,0.1718489,0.18254459,0.18966484,0.17719674,0.14156497,0.10773599,0.08460283,0.05520487,0.007104993,-0.05609119,-0.10776657,-0.1380201,-0.16564548,-0.2057085,-0.25469464,-0.29029596,-0.30453646,-0.31523216,-0.33839595,-0.37311107,-0.39447182,-0.39181322,-0.38469297,-0.39447182,-0.41763562,-0.43276238,-0.4336486,-0.43187618,-0.43722403,-0.45057833,-0.44703346,-0.42209727,-0.39981967,-0.39893347,-0.41406024,-0.41763562,-0.40159214,-0.38200372,-0.37845892,-0.38823777,-0.38823777,-0.36953568,-0.34994733,-0.34640247,-0.35975677,-0.36599082,-0.35440892,-0.33928216,-0.34016836,-0.35086405,-0.35263652,-0.33482057,-0.3196938,-0.3223524,-0.34016836,-0.35086405,-0.34371322,-0.3330481,-0.33659297,-0.35086405,-0.35529512,-0.34105462,-0.32681406,-0.33124512,-0.34906107,-0.36152917,-0.3570981,-0.34906107,-0.35352272,-0.36687702,-0.36599082,-0.35086405,-0.33570677,-0.34016836,-0.35887057,-0.36687702,-0.3570981,-0.34282702,-0.34371322,-0.3570981,-0.35975677,-0.34728867,-0.33570677,-0.34016836,-0.3570981,-0.35975677,-0.34016836,-0.31611836,-0.3089981,-0.31700456,-0.31523216,-0.29653,-0.27516925,-0.26804894,-0.26893514,-0.24754381,-0.19947445,-0.15672225,-0.14694339,-0.16830415,-0.19146788,-0.1941266,-0.18700624,-0.19146788,-0.2074809,-0.21194255,-0.20213306,-0.2057085,-0.2395373,-0.3001054,-0.35618138,-0.38200372,-0.38823777,-0.39538866,-0.40693992,-0.40516752,-0.38469297,-0.36510456,-0.36241543,-0.37576967,-0.37934512,-0.36241543,-0.34906107,-0.3570981,-0.36687702,-0.32504165,-0.18789256,0.03650272,0.28940964,0.5218115,0.68298006,0.7230431,0.5707977,0.21191192,-0.26089817,-0.6749736,-0.89848274,-0.9047168,-0.77826333,-0.6340245,-0.52269775,-0.44791967,-0.40339512,-0.38735157,-0.38557917,-0.37399727,-0.3455162,-0.3188076,-0.31257355,-0.3214662,-0.32412487,-0.3107705,-0.29118222,-0.28763735,-0.2974162,-0.2956438,-0.27605546,-0.2537778,-0.24754381,-0.2528916,-0.250233,-0.22795546,-0.20213306,-0.19678521,-0.20301926,-0.19589901,-0.16564548,-0.12912744,-0.111311495,-0.111311495,-0.10684985,-0.08283043,-0.05077398,-0.029382586,-0.01780063,0.0017876625,0.03827524,0.07656574,0.097957134,0.10596359,0.12109041,0.15314674,0.18608952,0.19855762,0.19501269,0.19501269,0.20390546,0.20836699,0.19055104,0.15494978,0.12555194,0.11219764,0.090806246,0.046312213,-0.020489872,-0.08014119,-0.11577314,-0.14514035,-0.18523383,-0.23507571,-0.27516925,-0.2938714,-0.30542272,-0.32858646,-0.36421835,-0.38646537,-0.39269942,-0.39269942,-0.40428132,-0.42833132,-0.44257182,-0.43545157,-0.42652833,-0.43276238,-0.45146453,-0.4585848,-0.4461167,-0.42833132,-0.4274451,-0.43988264,-0.44168562,-0.42298347,-0.39981967,-0.39269942,-0.39981967,-0.39804727,-0.38111752,-0.36330163,-0.36330163,-0.38023132,-0.38735157,-0.37222487,-0.35263652,-0.34817487,-0.3579843,-0.35975677,-0.3455162,-0.32858646,-0.33035892,-0.34640247,-0.35618138,-0.3455162,-0.33035892,-0.33035892,-0.3455162,-0.35440892,-0.34817487,-0.33839595,-0.3455162,-0.36510456,-0.37311107,-0.36152917,-0.3455162,-0.34728867,-0.36510456,-0.37488347,-0.36152917,-0.3455162,-0.34906107,-0.36687702,-0.37668645,-0.36421835,-0.34728867,-0.3455162,-0.35975677,-0.36776322,-0.3570981,-0.34371322,-0.34817487,-0.36776322,-0.37668645,-0.36330163,-0.34371322,-0.33928216,-0.34994733,-0.34817487,-0.32592785,-0.2974162,-0.28763735,-0.29918867,-0.30453646,-0.28583437,-0.2537778,-0.2244106,-0.20393598,-0.18165839,-0.15494984,-0.14159554,-0.15583605,-0.18966496,-0.21017003,-0.20482218,-0.18877876,-0.18877876,-0.21017003,-0.23330331,-0.2520054,-0.27871412,-0.3232386,-0.37934512,-0.41228777,-0.40693992,-0.38823777,-0.38111752,-0.3891546,-0.39358562,-0.37757266,-0.35529512,-0.34994733,-0.36510456,-0.38200372,-0.3900408,-0.37845892,-0.32412487,-0.19501281,0.040078163,0.34282696,0.6349106,0.8129784,0.8031995,0.5859245,0.18966484,-0.27960032,-0.69013095,-0.9207603,-0.92519134,-0.77914953,-0.6108607,-0.507571,-0.46750808,-0.4461167,-0.41228777,-0.37399727,-0.35263652,-0.35529512,-0.35440892,-0.33659297,-0.31434596,-0.30633944,-0.31345975,-0.31434596,-0.2956438,-0.2707076,-0.26089817,-0.26713222,-0.26804894,-0.250233,-0.22795546,-0.21817654,-0.22263819,-0.22352439,-0.2074809,-0.18877876,-0.18165839,-0.18343091,-0.17096275,-0.1380201,-0.0997296,-0.079254985,-0.07390714,-0.059666634,-0.02583772,0.013339043,0.035616517,0.04273677,0.05697739,0.090806246,0.13444471,0.1611532,0.16561484,0.1718489,0.19055104,0.21102571,0.21637356,0.20301914,0.19143736,0.19412649,0.19412649,0.1718489,0.12643826,0.08014119,0.048084617,0.020459294,-0.022262335,-0.08194417,-0.13358909,-0.1638425,-0.18966496,-0.22975844,-0.28406197,-0.32504165,-0.33747917,-0.33570677,-0.34463,-0.36953568,-0.38646537,-0.38646537,-0.37845892,-0.38735157,-0.41140157,-0.42386973,-0.41674942,-0.4025089,-0.4025089,-0.41763562,-0.42564213,-0.41140157,-0.39447182,-0.39447182,-0.41140157,-0.41674942,-0.39804727,-0.3704524,-0.35975677,-0.36864942,-0.37488347,-0.36330163,-0.34282702,-0.3339343,-0.33839595,-0.33747917,-0.3223524,-0.30633944,-0.3089981,-0.32412487,-0.32947272,-0.31789076,-0.30276406,-0.30276406,-0.3214662,-0.32947272,-0.31789076,-0.30276406,-0.30542272,-0.32504165,-0.33747917,-0.32858646,-0.3098843,-0.3081119,-0.3196938,-0.32770026,-0.32058,-0.3081119,-0.31345975,-0.33035892,-0.33839595,-0.32770026,-0.3107705,-0.3107705,-0.32858646,-0.33928216,-0.32947272,-0.31523216,-0.31700456,-0.3339343,-0.34282702,-0.33124512,-0.31345975,-0.3098843,-0.32412487,-0.33035892,-0.32058,-0.30187786,-0.2938714,-0.30187786,-0.29830247,-0.2715938,-0.24311274,-0.23330331,-0.24665755,-0.25469464,-0.23330331,-0.18789256,-0.1487158,-0.13178605,-0.1246658,-0.116659224,-0.11488682,-0.13178605,-0.16029763,-0.17811358,-0.17453814,-0.15849465,-0.15672225,-0.17811358,-0.2065947,-0.23241705,-0.25912565,-0.2974162,-0.34282702,-0.36953568,-0.36776322,-0.35440892,-0.3517503,-0.35887057,-0.35529512,-0.3330481,-0.3081119,-0.30633944,-0.33035892,-0.35618138,-0.35440892,-0.30276406,-0.17988598,0.025807142,0.30808127,0.61529183,0.853958,0.9153819,0.7524408,0.37754214,-0.10330492,-0.5422861,-0.8263633,-0.8967103,-0.79161763,-0.6224426,-0.48798263,-0.42564213,-0.4078262,-0.3891546,-0.34994733,-0.3116567,-0.3001054,-0.31434596,-0.3223524,-0.30542272,-0.27605546,-0.25912565,-0.25912565,-0.25646704,-0.24311274,-0.2252968,-0.22263819,-0.23599249,-0.2395373,-0.22352439,-0.19770193,-0.18612003,-0.19146788,-0.18966496,-0.16830415,-0.13982314,-0.12112087,-0.116659224,-0.10776657,-0.08194417,-0.05166018,-0.03295803,-0.02583772,-0.011597216,0.023148417,0.06409764,0.08903384,0.097040296,0.111311436,0.14336789,0.17896926,0.1976713,0.20036054,0.20659459,0.22972786,0.2573533,0.26178432,0.23953736,0.21548724,0.20479155,0.19678521,0.1727351,0.12909687,0.08637524,0.057863593,0.032041073,-0.014255822,-0.07748258,-0.1353615,-0.17096275,-0.19589901,-0.22706926,-0.26893514,-0.29918867,-0.30542272,-0.30099165,-0.31257355,-0.34105462,-0.36330163,-0.36864942,-0.36421835,-0.36953568,-0.39092702,-0.40516752,-0.39716107,-0.37668645,-0.3713386,-0.38380677,-0.39447182,-0.39181322,-0.37934512,-0.37488347,-0.38200372,-0.3829205,-0.36510456,-0.34194082,-0.3339343,-0.34282702,-0.34728867,-0.3339343,-0.31434596,-0.3098843,-0.3232386,-0.33035892,-0.31611836,-0.2974162,-0.2938714,-0.3081119,-0.32058,-0.3116567,-0.2938714,-0.28940976,-0.3001054,-0.3116567,-0.3072257,-0.2974162,-0.30276406,-0.32412487,-0.33570677,-0.32592785,-0.3081119,-0.30453646,-0.3196938,-0.3330481,-0.32858646,-0.31257355,-0.3081119,-0.3214662,-0.32947272,-0.3232386,-0.3089981,-0.30633944,-0.3232386,-0.33570677,-0.32858646,-0.31434596,-0.3098843,-0.3232386,-0.3321619,-0.3196938,-0.29653,-0.28675115,-0.2947576,-0.30099165,-0.28940976,-0.26624602,-0.25735325,-0.26624602,-0.26982135,-0.2493468,-0.2074809,-0.17007655,-0.15583605,-0.14694339,-0.1371339,-0.13178605,-0.14159554,-0.16564548,-0.18077219,-0.17453814,-0.1611839,-0.16919035,-0.20301926,-0.24577135,-0.2805171,-0.3116567,-0.34817487,-0.38469297,-0.39893347,-0.38380677,-0.36064297,-0.35529512,-0.36864942,-0.37222487,-0.35529512,-0.3339343,-0.32592785,-0.34105462,-0.35529512,-0.34817487,-0.3072257,-0.22352439,-0.07390714,0.15583599,0.43098986,0.66962576,0.78003573,0.69098663,0.3989334,-0.026723921,-0.46127403,-0.78718656,-0.9225327,-0.8601922,-0.69101715,-0.5271594,-0.43456537,-0.40605372,-0.39269942,-0.36510456,-0.32858646,-0.31257355,-0.32058,-0.32858646,-0.31789076,-0.29029596,-0.2715938,-0.27516925,-0.27782786,-0.26535982,-0.24846059,-0.24222654,-0.2493468,-0.250233,-0.23330331,-0.20836711,-0.20036066,-0.2065947,-0.20482218,-0.18434763,-0.15406364,-0.1389063,-0.14159554,-0.13358909,-0.105077446,-0.066786885,-0.043653607,-0.041850686,-0.034730434,-0.004446447,0.04362309,0.078368664,0.09260929,0.10596359,0.13178599,0.16472864,0.1852032,0.18877864,0.19412649,0.21191192,0.23507571,0.24130976,0.22349381,0.20390546,0.19501269,0.18966484,0.16650105,0.12020409,0.07213473,0.035616517,0.0026738644,-0.043653607,-0.10596365,-0.15760845,-0.17899978,-0.18612003,-0.21640414,-0.2715938,-0.32504165,-0.3570981,-0.36241543,-0.36687702,-0.38557917,-0.39893347,-0.39804727,-0.38735157,-0.39181322,-0.41406024,-0.43098998,-0.42833132,-0.414977,-0.41228777,-0.42298347,-0.42833132,-0.414977,-0.39627486,-0.39181322,-0.40428132,-0.41140157,-0.39716107,-0.36864942,-0.35440892,-0.35975677,-0.36599082,-0.35887057,-0.34016836,-0.3321619,-0.33928216,-0.34282702,-0.3330481,-0.3196938,-0.31789076,-0.3330481,-0.34282702,-0.33570677,-0.32504165,-0.32681406,-0.34640247,-0.3579843,-0.34817487,-0.32770026,-0.32412487,-0.34282702,-0.35887057,-0.35440892,-0.33482057,-0.32504165,-0.33839595,-0.3570981,-0.36330163,-0.35529512,-0.35440892,-0.36241543,-0.36599082,-0.35887057,-0.34640247,-0.34728867,-0.36421835,-0.37311107,-0.36241543,-0.34282702,-0.33747917,-0.35263652,-0.36599082,-0.35975677,-0.34282702,-0.33482057,-0.34463,-0.35440892,-0.34728867,-0.33124512,-0.3223524,-0.3232386,-0.31700456,-0.2938714,-0.26982135,-0.2627011,-0.26893514,-0.26089817,-0.22172141,-0.17007655,-0.14336795,-0.15229118,-0.17187953,-0.17988598,-0.17276573,-0.17365193,-0.18789256,-0.20213306,-0.20213306,-0.19678521,-0.21460116,-0.2627011,-0.31611836,-0.35263652,-0.36953568,-0.38111752,-0.39181322,-0.39716107,-0.38557917,-0.3704524,-0.37311107,-0.3900408,-0.39627486,-0.37845892,-0.35086405,-0.34640247,-0.37222487,-0.38200372,-0.3223524,-0.1620701,0.08191359,0.3499472,0.6019374,0.7684537,0.7791494,0.56722224,0.14960194,-0.33570677,-0.7239598,-0.9091784,-0.8931349,-0.76579523,-0.62067014,-0.507571,-0.43633777,-0.40159214,-0.3900408,-0.37845892,-0.35529512,-0.3321619,-0.32592785,-0.33482057,-0.3330481,-0.3116567,-0.2822895,-0.26893514,-0.27516925,-0.27871412,-0.26624602,-0.24311274,-0.23241705,-0.24130976,-0.24577135,-0.23153085,-0.20393598,-0.18877876,-0.19235408,-0.18877876,-0.16919035,-0.13982314,-0.123779595,-0.12735492,-0.12824124,-0.10684985,-0.06855929,-0.03830588,-0.024034739,-0.0035601258,0.032927394,0.07479334,0.103274465,0.111311436,0.11931789,0.14602649,0.18165839,0.20390546,0.20390546,0.20301914,0.21814597,0.24130976,0.24665761,0.22172141,0.18877864,0.16295624,0.14602649,0.11665928,0.066786885,0.015141964,-0.02583772,-0.059666634,-0.10241872,-0.15849465,-0.20836711,-0.23507571,-0.24754381,-0.27248,-0.3098843,-0.34194082,-0.3517503,-0.34817487,-0.35529512,-0.37757266,-0.39627486,-0.39538866,-0.3829205,-0.3829205,-0.40159214,-0.41763562,-0.414977,-0.39804727,-0.39269942,-0.40516752,-0.41406024,-0.40339512,-0.38380677,-0.37488347,-0.38200372,-0.38646537,-0.3713386,-0.3455162,-0.33570677,-0.34282702,-0.3517503,-0.34016836,-0.3214662,-0.31700456,-0.32947272,-0.34016836,-0.33035892,-0.3089981,-0.30099165,-0.31257355,-0.32412487,-0.31700456,-0.2974162,-0.29118222,-0.30633944,-0.3223524,-0.3232386,-0.31345975,-0.31257355,-0.32770026,-0.33747917,-0.33035892,-0.31257355,-0.3089981,-0.32412487,-0.3339343,-0.32947272,-0.31345975,-0.3107705,-0.32858646,-0.34371322,-0.34016836,-0.32504165,-0.3232386,-0.33839595,-0.34906107,-0.34105462,-0.3232386,-0.31789076,-0.33035892,-0.33659297,-0.3196938,-0.29295462,-0.2822895,-0.29918867,-0.3214662,-0.32858646,-0.31345975,-0.2974162,-0.29830247,-0.3001054,-0.29118222,-0.2822895,-0.2814033,-0.29029596,-0.29295462,-0.27605546,-0.24577135,-0.2244106,-0.21548736,-0.19858813,-0.1647287,-0.13178605,-0.1264382,-0.15494984,-0.18789256,-0.19770193,-0.18612003,-0.18077219,-0.19501281,-0.21105629,-0.21194255,-0.2074809,-0.22706926,-0.27605546,-0.33747917,-0.37757266,-0.39269942,-0.40070587,-0.41228777,-0.41674942,-0.40516752,-0.38469297,-0.37668645,-0.38823777,-0.39804727,-0.39092702,-0.37576967,-0.38111752,-0.39447182,-0.3579843,-0.22083521,0.03026867,0.32770026,0.60285413,0.787156,0.8147813,0.6349106,0.2324171,-0.27871412,-0.71861196,-0.9465827,-0.9323116,-0.79073143,-0.6456064,-0.55120933,-0.49510288,-0.45235074,-0.42475593,-0.41140157,-0.39893347,-0.37845892,-0.3517503,-0.34016836,-0.3455162,-0.34640247,-0.33035892,-0.30633944,-0.29653,-0.30633944,-0.31257355,-0.29830247,-0.2707076,-0.25558084,-0.26089817,-0.26713222,-0.25469464,-0.22975844,-0.21460116,-0.21548736,-0.21460116,-0.19235408,-0.15760845,-0.13358909,-0.12912744,-0.1246658,-0.104191184,-0.066786885,-0.031185508,-0.009794235,0.008021712,0.035616517,0.071217895,0.09349549,0.103274465,0.11665928,0.14336789,0.17719674,0.1976713,0.19855762,0.19232345,0.19855762,0.20836699,0.20301914,0.17808294,0.14871573,0.13001359,0.11397004,0.078368664,0.020459294,-0.03830588,-0.08014119,-0.10596365,-0.14248174,-0.1941266,-0.24488515,-0.27428305,-0.28583437,-0.30542272,-0.33839595,-0.36687702,-0.37488347,-0.37311107,-0.3829205,-0.41051537,-0.43722403,-0.44168562,-0.4274451,-0.42298347,-0.43545157,-0.44880593,-0.4461167,-0.43010378,-0.42386973,-0.43187618,-0.43722403,-0.4274451,-0.40605372,-0.39804727,-0.40516752,-0.41051537,-0.39538866,-0.37222487,-0.36510456,-0.37845892,-0.39092702,-0.3829205,-0.3570981,-0.34194082,-0.3517503,-0.36241543,-0.3579843,-0.33928216,-0.3330481,-0.34817487,-0.36776322,-0.37222487,-0.36241543,-0.36064297,-0.37488347,-0.3891546,-0.38469297,-0.36421835,-0.35263652,-0.3570981,-0.36241543,-0.35440892,-0.33839595,-0.33659297,-0.35440892,-0.37222487,-0.37311107,-0.35975677,-0.3570981,-0.3713386,-0.38380677,-0.38023132,-0.36421835,-0.35887057,-0.37399727,-0.38469297,-0.38200372,-0.36864942,-0.36510456,-0.38023132,-0.39358562,-0.38735157,-0.36510456,-0.35618138,-0.36687702,-0.37934512,-0.37845892,-0.36152917,-0.3517503,-0.36064297,-0.36776322,-0.35618138,-0.32504165,-0.3001054,-0.2956438,-0.3001054,-0.2947576,-0.26893514,-0.2377649,-0.21282876,-0.18966496,-0.16919035,-0.15760845,-0.17007655,-0.20124686,-0.22352439,-0.22263819,-0.2074809,-0.2065947,-0.22706926,-0.25558084,-0.27782786,-0.29653,-0.33570677,-0.3891546,-0.4336486,-0.43988264,-0.41940808,-0.4025089,-0.40428132,-0.41317403,-0.40962917,-0.39269942,-0.38200372,-0.38646537,-0.39538866,-0.39627486,-0.38557917,-0.35263652,-0.26982135,-0.08906442,0.18254459,0.4861796,0.7141503,0.777377,0.6349106,0.29206836,-0.16741788,-0.6135499,-0.9154124,-0.99376595,-0.87978053,-0.69456196,-0.555671,-0.49421668,-0.47105289,-0.44523048,-0.4078262,-0.38023132,-0.37576967,-0.38023132,-0.36953568,-0.34463,-0.3330481,-0.33747917,-0.34016836,-0.32858646,-0.30187786,-0.28675115,-0.29206842,-0.29830247,-0.28763735,-0.2618149,-0.24665755,-0.2511192,-0.25469464,-0.2386511,-0.21105629,-0.19501281,-0.19501281,-0.19324028,-0.17542434,-0.13982314,-0.11400062,-0.10684985,-0.098843336,-0.07036233,-0.027610183,0.006218791,0.021376014,0.034730315,0.06321144,0.10061574,0.12466574,0.13001359,0.13533092,0.15583599,0.18789244,0.20301914,0.19320977,0.17808294,0.17362142,0.17719674,0.16472864,0.12643826,0.08014119,0.045395494,0.01868689,-0.020489872,-0.07836878,-0.1362477,-0.17365193,-0.19501281,-0.22352439,-0.2707076,-0.31700456,-0.34371322,-0.35086405,-0.36064297,-0.38469297,-0.4078262,-0.41586322,-0.41140157,-0.41586322,-0.43456537,-0.44969213,-0.44880593,-0.4336486,-0.43010378,-0.4461167,-0.46038783,-0.45415372,-0.43187618,-0.41763562,-0.42209727,-0.43010378,-0.42029428,-0.39804727,-0.3829205,-0.38823777,-0.39627486,-0.3900408,-0.37222487,-0.36330163,-0.36953568,-0.37488347,-0.36510456,-0.34728867,-0.34194082,-0.3579843,-0.37488347,-0.3713386,-0.3517503,-0.34463,-0.35887057,-0.37399727,-0.37311107,-0.3579843,-0.35263652,-0.36687702,-0.38380677,-0.3829205,-0.36776322,-0.36152917,-0.37399727,-0.38823777,-0.38646537,-0.3713386,-0.36330163,-0.37399727,-0.38823777,-0.38646537,-0.37576967,-0.37488347,-0.38557917,-0.39447182,-0.38469297,-0.36421835,-0.3579843,-0.37222487,-0.38823777,-0.38469297,-0.36599082,-0.3570981,-0.36330163,-0.36864942,-0.35529512,-0.32947272,-0.31345975,-0.31345975,-0.32058,-0.31345975,-0.29029596,-0.26804894,-0.2520054,-0.23153085,-0.20301926,-0.17542434,-0.17276573,-0.19501281,-0.2190628,-0.22263819,-0.21194255,-0.20925331,-0.22352439,-0.24577135,-0.26535982,-0.2831757,-0.3196938,-0.37399727,-0.41763562,-0.42833132,-0.41317403,-0.39981967,-0.40159214,-0.40605372,-0.39358562,-0.37311107,-0.36776322,-0.38200372,-0.39804727,-0.39981967,-0.38557917,-0.35887057,-0.2956438,-0.15229118,0.08637524,0.36953568,0.6108607,0.7283908,0.6749736,0.43276227,0.034730315,-0.41674942,-0.7844974,-0.9554754,-0.9082922,-0.74088955,-0.5894999,-0.5093435,-0.47640073,-0.44880593,-0.41140157,-0.38111752,-0.37311107,-0.37399727,-0.36152917,-0.33659297,-0.3223524,-0.32681406,-0.33570677,-0.32681406,-0.30099165,-0.2831757,-0.2831757,-0.28852355,-0.2805171,-0.25735325,-0.24311274,-0.24754381,-0.2520054,-0.24042356,-0.21371496,-0.19501281,-0.1941266,-0.19501281,-0.17719686,-0.14514035,-0.11931795,-0.11042529,-0.10241872,-0.07659638,-0.03207177,0.0017876625,0.016914368,0.027610064,0.052546263,0.09349549,0.12466574,0.13802004,0.14514029,0.16561484,0.19501269,0.20836699,0.1976713,0.17808294,0.1718489,0.17719674,0.17007649,0.13802004,0.09438169,0.058749795,0.031154871,-0.008907974,-0.06767309,-0.12912744,-0.17365193,-0.20213306,-0.23599249,-0.2831757,-0.32504165,-0.3455162,-0.34728867,-0.35440892,-0.37934512,-0.40516752,-0.414977,-0.4078262,-0.40693992,-0.42386973,-0.44345808,-0.44791967,-0.43722403,-0.43456537,-0.44703346,-0.45950156,-0.45592618,-0.43545157,-0.42121106,-0.42833132,-0.43633777,-0.43010378,-0.40874296,-0.39092702,-0.39181322,-0.39981967,-0.39447182,-0.37668645,-0.36421835,-0.36510456,-0.36953568,-0.36241543,-0.34371322,-0.33659297,-0.34640247,-0.3579843,-0.35263652,-0.33482057,-0.32681406,-0.33839595,-0.35263652,-0.35352272,-0.33928216,-0.3330481,-0.34463,-0.35618138,-0.35263652,-0.33839595,-0.33570677,-0.3517503,-0.3713386,-0.3704524,-0.35352272,-0.34463,-0.35352272,-0.36510456,-0.36330163,-0.3455162,-0.33839595,-0.35086405,-0.36510456,-0.36599082,-0.3517503,-0.34105462,-0.3517503,-0.36510456,-0.36421835,-0.34994733,-0.34282702,-0.35263652,-0.36421835,-0.35975677,-0.33928216,-0.32412487,-0.3232386,-0.32504165,-0.3107705,-0.2831757,-0.26982135,-0.27516925,-0.27960032,-0.26001197,-0.21017003,-0.16653168,-0.15229118,-0.15672225,-0.1638425,-0.16741788,-0.1763106,-0.1941266,-0.21017003,-0.2065947,-0.18966496,-0.18700624,-0.21371496,-0.26001197,-0.30276406,-0.33659297,-0.3704524,-0.40159214,-0.414977,-0.4025089,-0.37576967,-0.36241543,-0.37311107,-0.3891546,-0.38646537,-0.36510456,-0.35618138,-0.37311107,-0.4025089,-0.39981967,-0.32412487,-0.1647287,0.07479334,0.35529506,0.6331078,0.8210155,0.82190156,0.5850382,0.14871573,-0.33659297,-0.7212707,-0.91272324,-0.905603,-0.7764909,-0.6233288,-0.507571,-0.44703346,-0.42921752,-0.42029428,-0.39447182,-0.35975677,-0.34105462,-0.34371322,-0.34906107,-0.33659297,-0.3081119,-0.29029596,-0.2947576,-0.30099165,-0.29295462,-0.2715938,-0.25646704,-0.2618149,-0.27248,-0.26535982,-0.2395373,-0.21729034,-0.21194255,-0.21371496,-0.20301926,-0.18077219,-0.16029763,-0.15317738,-0.14605713,-0.1246658,-0.08906442,-0.06232524,-0.05166018,-0.040078282,-0.011597216,0.034730315,0.06944549,0.08279979,0.090806246,0.11308384,0.15226054,0.1852032,0.1976713,0.19855762,0.20925331,0.22884166,0.23684812,0.22438002,0.20301914,0.19143736,0.1852032,0.16207004,0.11485624,0.059666634,0.019573092,-0.00713557,-0.042736888,-0.1006158,-0.1620701,-0.20482218,-0.2252968,-0.24577135,-0.2805171,-0.31700456,-0.33570677,-0.33747917,-0.34371322,-0.36776322,-0.39358562,-0.4025089,-0.39181322,-0.38469297,-0.39358562,-0.40428132,-0.40428132,-0.3900408,-0.38646537,-0.39981967,-0.41228777,-0.40605372,-0.38557917,-0.37222487,-0.37845892,-0.39181322,-0.38557917,-0.36330163,-0.34728867,-0.34906107,-0.35618138,-0.34906107,-0.32681406,-0.31434596,-0.31789076,-0.32504165,-0.3196938,-0.30099165,-0.2938714,-0.3081119,-0.32681406,-0.32592785,-0.3081119,-0.2974162,-0.3072257,-0.3232386,-0.3223524,-0.30633944,-0.2956438,-0.30365026,-0.31789076,-0.31611836,-0.30099165,-0.2947576,-0.3072257,-0.32504165,-0.32858646,-0.31345975,-0.30453646,-0.3116567,-0.3232386,-0.31789076,-0.30099165,-0.2938714,-0.3081119,-0.32592785,-0.32858646,-0.3098843,-0.29830247,-0.30542272,-0.31523216,-0.3098843,-0.28494817,-0.26624602,-0.2644735,-0.26804894,-0.26089817,-0.2368787,-0.219949,-0.2190628,-0.20836711,-0.17899978,-0.13178605,-0.0997296,-0.10153252,-0.1246658,-0.14070934,-0.14070934,-0.14248174,-0.15583605,-0.17007655,-0.17187953,-0.17007655,-0.19055116,-0.2395373,-0.30187786,-0.34016836,-0.34463,-0.34105462,-0.34817487,-0.35887057,-0.3570981,-0.33747917,-0.3214662,-0.3232386,-0.3321619,-0.32947272,-0.31789076,-0.3214662,-0.33482057,-0.3081119,-0.19055116,0.040964365,0.32770026,0.59570324,0.78272486,0.835256,0.6918727,0.33124506,-0.16029763,-0.6144361,-0.8744327,-0.8913625,-0.7551301,-0.5992788,-0.49333048,-0.43098998,-0.38469297,-0.35440892,-0.34282702,-0.33570677,-0.32058,-0.2938714,-0.27605546,-0.27694166,-0.28583437,-0.2822895,-0.26001197,-0.24488515,-0.24577135,-0.250233,-0.24130976,-0.21640414,-0.19678521,-0.19678521,-0.20301926,-0.1941266,-0.16653168,-0.14514035,-0.14336795,-0.1504882,-0.14336795,-0.11577314,-0.08995068,-0.07748258,-0.07124853,-0.052546382,-0.01336962,0.021376014,0.039161325,0.052546263,0.07567954,0.11219764,0.14336789,0.15672219,0.16472864,0.18789244,0.22618294,0.25466406,0.2564366,0.2448852,0.24219596,0.25111926,0.25020242,0.22706926,0.18966484,0.1611532,0.14156497,0.11219764,0.057863593,-0.006249368,-0.05609119,-0.08814764,-0.1246658,-0.17453814,-0.2244106,-0.25469464,-0.26535982,-0.27782786,-0.3089981,-0.34463,-0.36064297,-0.35887057,-0.36064297,-0.37934512,-0.40605372,-0.414977,-0.40605372,-0.39716107,-0.40339512,-0.414977,-0.41406024,-0.39447182,-0.38111752,-0.38557917,-0.39804727,-0.39804727,-0.37934512,-0.36421835,-0.36421835,-0.3704524,-0.36510456,-0.34194082,-0.32412487,-0.32681406,-0.33839595,-0.33747917,-0.3196938,-0.30542272,-0.3098843,-0.32058,-0.3196938,-0.30276406,-0.29029596,-0.29653,-0.3098843,-0.3116567,-0.29830247,-0.2947576,-0.3081119,-0.32504165,-0.32592785,-0.30633944,-0.29206842,-0.30187786,-0.3214662,-0.32858646,-0.32058,-0.31434596,-0.3223524,-0.3339343,-0.3321619,-0.31789076,-0.3089981,-0.3196938,-0.33570677,-0.3330481,-0.3107705,-0.29206842,-0.29206842,-0.29830247,-0.29029596,-0.26893514,-0.2537778,-0.25558084,-0.25646704,-0.23418951,-0.19055116,-0.15494984,-0.14605713,-0.15406364,-0.15672225,-0.14694339,-0.14605713,-0.16653168,-0.19055116,-0.19678521,-0.18523383,-0.18700624,-0.219949,-0.27428305,-0.3214662,-0.34282702,-0.35440892,-0.36953568,-0.38111752,-0.37668645,-0.35263652,-0.33747917,-0.34194082,-0.3579843,-0.36152917,-0.34817487,-0.34194082,-0.3570981,-0.3713386,-0.32947272,-0.19589901,0.023148417,0.27960026,0.5253564,0.71057487,0.7693707,0.6242149,0.26267052,-0.21460116,-0.632252,-0.8619646,-0.8824698,-0.76579523,-0.6233288,-0.51291883,-0.44168562,-0.40339512,-0.39181322,-0.38469297,-0.36421835,-0.33570677,-0.3196938,-0.3214662,-0.32770026,-0.31700456,-0.28940976,-0.2715938,-0.27605546,-0.28852355,-0.28406197,-0.26089817,-0.2395373,-0.2395373,-0.24754381,-0.24577135,-0.22172141,-0.20301926,-0.20301926,-0.20836711,-0.20036066,-0.16919035,-0.1389063,-0.1264382,-0.123779595,-0.10865277,-0.07571018,-0.046312332,-0.030268788,-0.021376073,0.0035600662,0.047198415,0.08637524,0.10684979,0.11485624,0.13444471,0.17096269,0.20301914,0.21282876,0.20479155,0.20036054,0.2074809,0.21102571,0.19678521,0.16919029,0.14336789,0.123779535,0.08814764,0.032927394,-0.031185508,-0.08102739,-0.1130839,-0.149602,-0.20213306,-0.25912565,-0.2956438,-0.3089981,-0.3223524,-0.35086405,-0.38469297,-0.40159214,-0.39716107,-0.39716107,-0.41317403,-0.43633777,-0.44523048,-0.43633777,-0.43098998,-0.44079942,-0.45769858,-0.45950156,-0.44523048,-0.43633777,-0.44345808,-0.45592618,-0.45235074,-0.43098998,-0.41140157,-0.41586322,-0.43276238,-0.43899643,-0.42475593,-0.41051537,-0.40516752,-0.40516752,-0.39269942,-0.36953568,-0.35618138,-0.36330163,-0.37488347,-0.3713386,-0.34640247,-0.32858646,-0.3321619,-0.3455162,-0.35352272,-0.34640247,-0.34994733,-0.3704524,-0.3900408,-0.38380677,-0.3570981,-0.33839595,-0.34463,-0.36687702,-0.37757266,-0.36776322,-0.35529512,-0.35975677,-0.37399727,-0.37668645,-0.36599082,-0.36241543,-0.37311107,-0.38823777,-0.38735157,-0.36864942,-0.35618138,-0.36687702,-0.38735157,-0.39092702,-0.3713386,-0.35086405,-0.3455162,-0.34728867,-0.33659297,-0.3081119,-0.29118222,-0.2974162,-0.31345975,-0.3098843,-0.27428305,-0.22884166,-0.20036066,-0.18700624,-0.17453814,-0.16741788,-0.17899978,-0.21105629,-0.24399894,-0.2493468,-0.2244106,-0.2057085,-0.219949,-0.2618149,-0.30453646,-0.3339343,-0.36599082,-0.40516752,-0.43633777,-0.44345808,-0.42298347,-0.4025089,-0.4025089,-0.414977,-0.414977,-0.39447182,-0.38023132,-0.3900408,-0.41940808,-0.44079942,-0.40605372,-0.2974162,-0.10330492,0.16830409,0.46836364,0.73551106,0.8521551,0.74532056,0.40425074,-0.07659638,-0.5369688,-0.8512995,-0.95905083,-0.8887038,-0.73108006,-0.58057666,-0.49155807,-0.46127403,-0.45235074,-0.43098998,-0.39358562,-0.36776322,-0.3704524,-0.38646537,-0.3829205,-0.35529512,-0.32858646,-0.3214662,-0.32681406,-0.3223524,-0.3001054,-0.2805171,-0.2822895,-0.29206842,-0.28940976,-0.26535982,-0.24042356,-0.23599249,-0.24311274,-0.24042356,-0.21817654,-0.1941266,-0.18434763,-0.18434763,-0.17187953,-0.14070934,-0.11042529,-0.09438175,-0.08726144,-0.066786885,-0.024951518,0.016914368,0.04362309,0.059666634,0.085489035,0.123779535,0.15137434,0.15672219,0.15226054,0.1611532,0.18966484,0.21282876,0.20836699,0.1852032,0.16561484,0.15494978,0.13624763,0.09260929,0.034730315,-0.015142024,-0.048084736,-0.08637524,-0.14070934,-0.19947445,-0.24042356,-0.26001197,-0.28406197,-0.32681406,-0.37668645,-0.40159214,-0.39627486,-0.3900408,-0.4025089,-0.42921752,-0.4461167,-0.43988264,-0.43187618,-0.43899643,-0.45769858,-0.46662188,-0.46127403,-0.45235074,-0.46038783,-0.47374213,-0.47374213,-0.45769858,-0.44345808,-0.44523048,-0.45415372,-0.44969213,-0.4274451,-0.41051537,-0.41051537,-0.42029428,-0.41763562,-0.39804727,-0.3829205,-0.38557917,-0.39716107,-0.39627486,-0.37488347,-0.3579843,-0.36241543,-0.37934512,-0.38469297,-0.37222487,-0.3579843,-0.36064297,-0.37222487,-0.37399727,-0.36241543,-0.35086405,-0.3570981,-0.37576967,-0.3829205,-0.37488347,-0.36776322,-0.37399727,-0.38735157,-0.38735157,-0.36864942,-0.35618138,-0.36421835,-0.38380677,-0.39181322,-0.38023132,-0.36864942,-0.37399727,-0.3891546,-0.3900408,-0.36599082,-0.34194082,-0.33659297,-0.34194082,-0.33839595,-0.3188076,-0.30276406,-0.30276406,-0.30542272,-0.2822895,-0.2368787,-0.19589901,-0.18343091,-0.1941266,-0.20213306,-0.19501281,-0.19324028,-0.20836711,-0.23241705,-0.24222654,-0.23507571,-0.23330331,-0.2644735,-0.31700456,-0.36330163,-0.3900408,-0.40693992,-0.42209727,-0.43276238,-0.42652833,-0.4025089,-0.38823777,-0.39716107,-0.41674942,-0.41852188,-0.39538866,-0.37668645,-0.38823777,-0.41586322,-0.40874296,-0.31611836,-0.123779595,0.13979244,0.42652833,0.68298006,0.8227879,0.75778866,0.4514644,-0.029382586,-0.5093435,-0.8334836,-0.9421211,-0.8753495,-0.7337387,-0.59662014,-0.49687535,-0.43988264,-0.41674942,-0.40874296,-0.39181322,-0.36241543,-0.3455162,-0.34994733,-0.35887057,-0.35263652,-0.33124512,-0.31257355,-0.31345975,-0.32504165,-0.3214662,-0.2974162,-0.27428305,-0.2715938,-0.27871412,-0.27516925,-0.2528916,-0.23153085,-0.22706926,-0.22975844,-0.21817654,-0.18700624,-0.15760845,-0.1487158,-0.15317738,-0.14070934,-0.105077446,-0.06947613,-0.048084736,-0.040078282,-0.023148477,0.016914368,0.057863593,0.08279979,0.09972954,0.121976495,0.15849459,0.19055104,0.19855762,0.19320977,0.19320977,0.2074809,0.21906269,0.2074809,0.18077219,0.15314674,0.13355851,0.104191184,0.054318786,-0.0106803775,-0.06767309,-0.104191184,-0.14070934,-0.18966496,-0.24222654,-0.2805171,-0.2974162,-0.31257355,-0.34105462,-0.37668645,-0.39893347,-0.39893347,-0.39627486,-0.40962917,-0.43545157,-0.44880593,-0.4461167,-0.44257182,-0.45057833,-0.46662188,-0.46839428,-0.45235074,-0.43811023,-0.44168562,-0.45592618,-0.45769858,-0.43988264,-0.42029428,-0.41674942,-0.42475593,-0.41940808,-0.39804727,-0.37934512,-0.38111752,-0.39269942,-0.39358562,-0.37488347,-0.35887057,-0.36064297,-0.37488347,-0.37488347,-0.3570981,-0.34105462,-0.3455162,-0.36152917,-0.36510456,-0.35263652,-0.34016836,-0.34282702,-0.35529512,-0.3579843,-0.34371322,-0.3339343,-0.34463,-0.36241543,-0.36776322,-0.35440892,-0.3455162,-0.35618138,-0.37757266,-0.38469297,-0.3704524,-0.35440892,-0.3570981,-0.3713386,-0.37757266,-0.36864942,-0.36064297,-0.36330163,-0.37399727,-0.36864942,-0.3455162,-0.32504165,-0.32058,-0.32947272,-0.32947272,-0.3107705,-0.29118222,-0.2805171,-0.26893514,-0.24399894,-0.20393598,-0.17453814,-0.17453814,-0.19770193,-0.21729034,-0.21817654,-0.21548736,-0.22263819,-0.2386511,-0.24754381,-0.2528916,-0.27428305,-0.3214662,-0.37934512,-0.41674942,-0.41940808,-0.4078262,-0.40605372,-0.41406024,-0.41406024,-0.39804727,-0.38200372,-0.37757266,-0.38469297,-0.3900408,-0.38823777,-0.39804727,-0.41317403,-0.38380677,-0.2537778,-0.0106803775,0.2840619,0.55475414,0.7337388,0.7684537,0.6162083,0.2582395,-0.219949,-0.65807444,-0.9082922,-0.9198435,-0.7863003,-0.64203095,-0.54852015,-0.49421668,-0.44523048,-0.40339512,-0.38469297,-0.3829205,-0.37845892,-0.36152917,-0.34105462,-0.33482057,-0.33928216,-0.3330481,-0.3081119,-0.28675115,-0.28494817,-0.29653,-0.29653,-0.27605546,-0.25469464,-0.2520054,-0.2635873,-0.2627011,-0.24130976,-0.21817654,-0.21017003,-0.21460116,-0.2074809,-0.17899978,-0.14782959,-0.12912744,-0.11931795,-0.09707093,-0.061439037,-0.031185508,-0.01960367,-0.01960367,-0.00090152025,0.045395494,0.09526789,0.12555194,0.13802004,0.15403295,0.184317,0.20836699,0.21460116,0.20301914,0.19855762,0.20925331,0.21191192,0.19143736,0.14960194,0.11308384,0.08814764,0.052546263,-0.0035601258,-0.07659638,-0.1389063,-0.17719686,-0.20925331,-0.2520054,-0.30187786,-0.3330481,-0.34194082,-0.34728867,-0.36687702,-0.39804727,-0.41763562,-0.41586322,-0.41140157,-0.41852188,-0.43899643,-0.44791967,-0.44079942,-0.4336486,-0.44168562,-0.4585848,-0.46393263,-0.45235074,-0.44257182,-0.44703346,-0.45950156,-0.45950156,-0.44079942,-0.42386973,-0.42386973,-0.43010378,-0.42298347,-0.39716107,-0.37668645,-0.37757266,-0.3900408,-0.39092702,-0.3704524,-0.34817487,-0.34463,-0.35352272,-0.35529512,-0.34371322,-0.3339343,-0.33839595,-0.35352272,-0.35263652,-0.33747917,-0.32592785,-0.3330481,-0.35086405,-0.35529512,-0.34105462,-0.32770026,-0.3339343,-0.35352272,-0.36064297,-0.34994733,-0.34016836,-0.34371322,-0.35887057,-0.36241543,-0.34906107,-0.33928216,-0.34728867,-0.36421835,-0.36776322,-0.35263652,-0.33928216,-0.34728867,-0.36599082,-0.3713386,-0.35529512,-0.33839595,-0.34282702,-0.36064297,-0.36864942,-0.35618138,-0.34105462,-0.34282702,-0.35529512,-0.35529512,-0.3321619,-0.30276406,-0.28852355,-0.28852355,-0.28406197,-0.26982135,-0.25823945,-0.2537778,-0.24311274,-0.21017003,-0.1629563,-0.13267225,-0.14248174,-0.17899978,-0.20393598,-0.19858813,-0.18612003,-0.18789256,-0.20482218,-0.219949,-0.22263819,-0.23507571,-0.27428305,-0.3321619,-0.37934512,-0.39269942,-0.39269942,-0.39716107,-0.40693992,-0.40962917,-0.39269942,-0.37488347,-0.37576967,-0.3891546,-0.39538866,-0.39092702,-0.39627486,-0.41317403,-0.39804727,-0.28940976,-0.054318786,0.2591257,0.56456375,0.79250383,0.86731255,0.74085903,0.39001024,-0.10953897,-0.5886137,-0.8824698,-0.9287667,-0.8076611,-0.65715766,-0.5574434,-0.50222313,-0.45592618,-0.41674942,-0.39627486,-0.3900408,-0.3829205,-0.36330163,-0.34282702,-0.33747917,-0.34640247,-0.34463,-0.32592785,-0.30453646,-0.29653,-0.3001054,-0.29653,-0.27782786,-0.26001197,-0.25823945,-0.26535982,-0.26089817,-0.23599249,-0.21194255,-0.20482218,-0.21105629,-0.20482218,-0.17899978,-0.149602,-0.1371339,-0.1353615,-0.11931795,-0.08194417,-0.041850686,-0.021376073,-0.015142024,0.0026738644,0.040078163,0.08102739,0.10684979,0.11931789,0.13713384,0.17096269,0.20036054,0.20925331,0.20036054,0.1976713,0.2074809,0.21371484,0.19855762,0.16295624,0.13089979,0.109508395,0.08014119,0.026693344,-0.043653607,-0.10153252,-0.13447529,-0.1629563,-0.20482218,-0.25912565,-0.30365026,-0.32412487,-0.33482057,-0.35975677,-0.39538866,-0.41763562,-0.414977,-0.40605372,-0.41051537,-0.43098998,-0.44434428,-0.44079942,-0.4336486,-0.43988264,-0.45592618,-0.46038783,-0.44880593,-0.43633777,-0.43988264,-0.45592618,-0.45950156,-0.44257182,-0.42564213,-0.42475593,-0.43545157,-0.43276238,-0.41051537,-0.38557917,-0.37845892,-0.38823777,-0.39092702,-0.37934512,-0.36687702,-0.36599082,-0.37757266,-0.37757266,-0.35887057,-0.34016836,-0.34105462,-0.3570981,-0.36510456,-0.3570981,-0.34282702,-0.34105462,-0.3517503,-0.3570981,-0.34728867,-0.33659297,-0.34016836,-0.35352272,-0.35618138,-0.34282702,-0.32858646,-0.33124512,-0.3455162,-0.35529512,-0.34994733,-0.3455162,-0.35529512,-0.36864942,-0.36776322,-0.34994733,-0.33570677,-0.34105462,-0.36241543,-0.36953568,-0.3570981,-0.34371322,-0.34640247,-0.36152917,-0.36864942,-0.35618138,-0.34282702,-0.34728867,-0.36152917,-0.36510456,-0.34906107,-0.3321619,-0.33124512,-0.34105462,-0.33482057,-0.30453646,-0.2707076,-0.26089817,-0.27248,-0.27248,-0.24130976,-0.19501281,-0.16029763,-0.15406364,-0.16029763,-0.16653168,-0.17276573,-0.18343091,-0.19858813,-0.19858813,-0.18254471,-0.17276573,-0.18700624,-0.2252968,-0.26713222,-0.29918867,-0.32858646,-0.36421835,-0.39538866,-0.40070587,-0.38200372,-0.36064297,-0.35975677,-0.37757266,-0.37845892,-0.36064297,-0.34194082,-0.3455162,-0.37845892,-0.39627486,-0.35618138,-0.2377649,-0.033844173,0.22972786,0.5200391,0.7684537,0.86731255,0.73551106,0.36418784,-0.13267225,-0.5823796,-0.859306,-0.9189573,-0.8201293,-0.6616193,-0.5271594,-0.45057833,-0.42475593,-0.42298347,-0.40693992,-0.36864942,-0.33570677,-0.32858646,-0.34282702,-0.34906107,-0.3339343,-0.3098843,-0.30099165,-0.3089981,-0.30542272,-0.28406197,-0.2627011,-0.25735325,-0.26624602,-0.26624602,-0.24399894,-0.219949,-0.21548736,-0.2252968,-0.2244106,-0.19589901,-0.1620701,-0.14336795,-0.14248174,-0.1389063,-0.11843175,-0.08995068,-0.07036233,-0.054318786,-0.028496325,0.015141964,0.05609119,0.07656574,0.08191359,0.097957134,0.13444471,0.17453814,0.19678521,0.20036054,0.20479155,0.21906269,0.23150027,0.22438002,0.20124674,0.18700624,0.18700624,0.17719674,0.13802004,0.07213473,0.008021712,-0.036502838,-0.07213473,-0.12020415,-0.17899978,-0.22618306,-0.2520054,-0.27428305,-0.3081119,-0.34994733,-0.37576967,-0.37668645,-0.37222487,-0.38111752,-0.40605372,-0.42121106,-0.42029428,-0.41674942,-0.42833132,-0.4532675,-0.46662188,-0.46038783,-0.45057833,-0.45235074,-0.46216023,-0.4585848,-0.43633777,-0.414977,-0.41228777,-0.42652833,-0.4336486,-0.41940808,-0.39893347,-0.39358562,-0.39981967,-0.39893347,-0.38111752,-0.35975677,-0.35618138,-0.36687702,-0.3704524,-0.35887057,-0.34463,-0.34463,-0.3570981,-0.36064297,-0.34640247,-0.3321619,-0.33570677,-0.35618138,-0.36864942,-0.36330163,-0.35352272,-0.35618138,-0.3704524,-0.37576967,-0.36421835,-0.35263652,-0.3579843,-0.37576967,-0.38557917,-0.37488347,-0.36064297,-0.36421835,-0.38111752,-0.3900408,-0.38111752,-0.3713386,-0.37757266,-0.39716107,-0.39804727,-0.38111752,-0.3570981,-0.35352272,-0.36864942,-0.37757266,-0.36864942,-0.35887057,-0.36776322,-0.38469297,-0.38557917,-0.36064297,-0.32770026,-0.3116567,-0.31523216,-0.31523216,-0.29918867,-0.2814033,-0.27605546,-0.27871412,-0.2618149,-0.22352439,-0.18789256,-0.17988598,-0.19947445,-0.21817654,-0.21548736,-0.20301926,-0.20124686,-0.21282876,-0.22172141,-0.21729034,-0.219949,-0.2537778,-0.3081119,-0.35618138,-0.37757266,-0.3829205,-0.39181322,-0.40605372,-0.4078262,-0.39092702,-0.3704524,-0.36864942,-0.3829205,-0.38823777,-0.37576967,-0.3704524,-0.3891546,-0.40693992,-0.36330163,-0.21371496,0.033844113,0.3098843,0.55741286,0.7230431,0.7506684,0.5761149,0.19589889,-0.28583437,-0.69367576,-0.90025514,-0.8913625,-0.76402277,-0.62956285,-0.53250724,-0.46662188,-0.42298347,-0.39893347,-0.39269942,-0.3829205,-0.36241543,-0.34371322,-0.34282702,-0.35352272,-0.35440892,-0.3330481,-0.30453646,-0.29118222,-0.2956438,-0.29830247,-0.28406197,-0.26535982,-0.26089817,-0.26713222,-0.26713222,-0.2511192,-0.22975844,-0.22263819,-0.22706926,-0.22263819,-0.19770193,-0.16653168,-0.1504882,-0.1487158,-0.1380201,-0.105077446,-0.06767309,-0.048084736,-0.040964484,-0.02583772,0.008907914,0.052546263,0.08279979,0.09438169,0.11397004,0.1469127,0.17719674,0.18877864,0.18254459,0.18165839,0.19678521,0.21191192,0.20479155,0.17631054,0.14248168,0.115742564,0.08102739,0.02403462,-0.046312332,-0.10241872,-0.1353615,-0.1620701,-0.20482218,-0.2618149,-0.3072257,-0.32681406,-0.33570677,-0.35440892,-0.38735157,-0.4078262,-0.40874296,-0.40159214,-0.41228777,-0.43988264,-0.46038783,-0.45950156,-0.44880593,-0.45057833,-0.46750808,-0.47551453,-0.46393263,-0.44703346,-0.44880593,-0.46750808,-0.47551453,-0.46216023,-0.43899643,-0.4336486,-0.44434428,-0.4461167,-0.43098998,-0.40693992,-0.39716107,-0.40693992,-0.40874296,-0.39447182,-0.37488347,-0.37311107,-0.38469297,-0.38646537,-0.36864942,-0.34906107,-0.3455162,-0.35887057,-0.36687702,-0.3579843,-0.34728867,-0.35263652,-0.3704524,-0.37576967,-0.36152917,-0.34282702,-0.34282702,-0.36241543,-0.37488347,-0.36510456,-0.34994733,-0.35086405,-0.36864942,-0.37757266,-0.36864942,-0.35440892,-0.35618138,-0.37668645,-0.3900408,-0.38469297,-0.36864942,-0.36421835,-0.37488347,-0.37757266,-0.36687702,-0.35618138,-0.3579843,-0.37399727,-0.38200372,-0.36776322,-0.34994733,-0.34906107,-0.36510456,-0.37488347,-0.36510456,-0.34728867,-0.34371322,-0.36064297,-0.37311107,-0.36687702,-0.34906107,-0.33747917,-0.3330481,-0.3214662,-0.2938714,-0.26535982,-0.25912565,-0.26713222,-0.25823945,-0.22083521,-0.17811358,-0.16029763,-0.17811358,-0.20213306,-0.2074809,-0.19678521,-0.19146788,-0.20036066,-0.2065947,-0.19770193,-0.19324028,-0.21105629,-0.2520054,-0.2938714,-0.3223524,-0.34463,-0.37488347,-0.41140157,-0.42652833,-0.41406024,-0.39092702,-0.38200372,-0.3891546,-0.39269942,-0.38023132,-0.36953568,-0.37845892,-0.3891546,-0.33747917,-0.18077219,0.07567954,0.36507392,0.6268736,0.7996241,0.81655383,0.62332857,0.21548724,-0.28940976,-0.7114917,-0.9189573,-0.9029443,-0.7702569,-0.6349107,-0.5405137,-0.47728693,-0.43187618,-0.40693992,-0.39804727,-0.38646537,-0.36687702,-0.35263652,-0.35440892,-0.36776322,-0.36776322,-0.34463,-0.31257355,-0.3001054,-0.3072257,-0.3098843,-0.2947576,-0.27428305,-0.26624602,-0.2715938,-0.2715938,-0.25558084,-0.2368787,-0.23153085,-0.2386511,-0.23153085,-0.20301926,-0.16919035,-0.15494984,-0.15672225,-0.14782959,-0.11577314,-0.07390714,-0.04453981,-0.033844173,-0.018717468,0.014255762,0.053432465,0.08191359,0.09438169,0.11397004,0.15137434,0.18877864,0.20659459,0.20213306,0.1976713,0.2074809,0.219949,0.21371484,0.18700624,0.15849459,0.13802004,0.11665928,0.07479334,0.014255762,-0.041850686,-0.08283043,-0.11577314,-0.1611839,-0.22172141,-0.26893514,-0.2938714,-0.3072257,-0.32770026,-0.35975677,-0.38380677,-0.3891546,-0.38646537,-0.39538866,-0.42029428,-0.43811023,-0.43456537,-0.42386973,-0.42564213,-0.44168562,-0.44969213,-0.43811023,-0.42386973,-0.42475593,-0.44523048,-0.46038783,-0.45235074,-0.4336486,-0.42564213,-0.43276238,-0.4336486,-0.41852188,-0.39893347,-0.39447182,-0.40339512,-0.40339512,-0.38380677,-0.36064297,-0.35263652,-0.36510456,-0.37399727,-0.36421835,-0.34817487,-0.3455162,-0.3570981,-0.36330163,-0.3517503,-0.3321619,-0.33035892,-0.3455162,-0.35529512,-0.34994733,-0.33747917,-0.33928216,-0.3570981,-0.36599082,-0.35618138,-0.33659297,-0.33124512,-0.3455162,-0.35618138,-0.34994733,-0.33747917,-0.33747917,-0.3517503,-0.36152917,-0.35440892,-0.34105462,-0.34282702,-0.35887057,-0.36776322,-0.3579843,-0.34282702,-0.34105462,-0.35352272,-0.36152917,-0.35440892,-0.33928216,-0.34194082,-0.3570981,-0.3704524,-0.3579843,-0.33482057,-0.33035892,-0.33747917,-0.34463,-0.33839595,-0.32504165,-0.32681406,-0.34371322,-0.35263652,-0.3330481,-0.30099165,-0.27694166,-0.26893514,-0.2618149,-0.24130976,-0.2244106,-0.22618306,-0.2368787,-0.22884166,-0.18966496,-0.14336795,-0.12735492,-0.14694339,-0.17365193,-0.17811358,-0.16653168,-0.1638425,-0.17453814,-0.18612003,-0.18523383,-0.18700624,-0.21371496,-0.2644735,-0.31611836,-0.34906107,-0.36599082,-0.38380677,-0.40339512,-0.40693992,-0.3900408,-0.36776322,-0.36241543,-0.37399727,-0.37934512,-0.37399727,-0.36599082,-0.36330163,-0.3330481,-0.21817654,0.015141964,0.31877697,0.6099744,0.7960793,0.8183261,0.6366832,0.25111926,-0.24042356,-0.68032146,-0.9243051,-0.9269943,-0.78006625,-0.6215564,-0.5298486,-0.48352098,-0.43988264,-0.39627486,-0.3704524,-0.3704524,-0.37576967,-0.36687702,-0.34282702,-0.32592785,-0.32504165,-0.3214662,-0.30453646,-0.2822895,-0.27782786,-0.28852355,-0.2947576,-0.27960032,-0.2511192,-0.23418951,-0.2377649,-0.2377649,-0.22263819,-0.19770193,-0.18077219,-0.18165839,-0.17811358,-0.16029763,-0.1371339,-0.12289339,-0.12020415,-0.10596365,-0.07213473,-0.031185508,-0.004446447,0.010680318,0.03650272,0.07390714,0.11308384,0.13178599,0.13267219,0.14425409,0.17896926,0.219949,0.23773432,0.22972786,0.21725965,0.21548724,0.21906269,0.20836699,0.17985535,0.14871573,0.12466574,0.10061574,0.05609119,-0.0053631663,-0.059666634,-0.0997296,-0.13267225,-0.17453814,-0.22884166,-0.27605546,-0.30276406,-0.3188076,-0.34282702,-0.37399727,-0.39358562,-0.39092702,-0.38023132,-0.38557917,-0.40962917,-0.42652833,-0.42298347,-0.41317403,-0.41406024,-0.43187618,-0.4461167,-0.43811023,-0.42209727,-0.42121106,-0.43545157,-0.44434428,-0.43276238,-0.40962917,-0.39981967,-0.40159214,-0.39538866,-0.3713386,-0.34463,-0.33928216,-0.3579843,-0.37488347,-0.3713386,-0.35529512,-0.35086405,-0.36064297,-0.36241543,-0.34817487,-0.32770026,-0.3232386,-0.34371322,-0.3579843,-0.3517503,-0.33659297,-0.32947272,-0.33482057,-0.34194082,-0.33839595,-0.3321619,-0.34105462,-0.36330163,-0.37222487,-0.35887057,-0.34194082,-0.33928216,-0.3570981,-0.3713386,-0.36421835,-0.3455162,-0.33928216,-0.3517503,-0.36330163,-0.36599082,-0.36152917,-0.36864942,-0.38557917,-0.39181322,-0.37757266,-0.35618138,-0.35086405,-0.36241543,-0.36953568,-0.35887057,-0.34016836,-0.33747917,-0.34994733,-0.3579843,-0.35352272,-0.34194082,-0.34194082,-0.3579843,-0.36510456,-0.34640247,-0.31611836,-0.29653,-0.2938714,-0.29029596,-0.27336627,-0.25558084,-0.24665755,-0.24399894,-0.22795546,-0.19324028,-0.1620701,-0.1629563,-0.19235408,-0.21548736,-0.21105629,-0.18434763,-0.16919035,-0.17988598,-0.19858813,-0.21105629,-0.2244106,-0.25912565,-0.31345975,-0.3579843,-0.38023132,-0.38111752,-0.38646537,-0.40605372,-0.41406024,-0.39893347,-0.37311107,-0.36330163,-0.37399727,-0.38200372,-0.37845892,-0.36510456,-0.34906107,-0.3001054,-0.1647287,0.07033169,0.35171974,0.5975063,0.7275046,0.6901003,0.4621601,0.06855929,-0.39269942,-0.7720293,-0.9465827,-0.9029443,-0.74177575,-0.5903861,-0.5084572,-0.46839428,-0.43187618,-0.39181322,-0.36953568,-0.36510456,-0.36064297,-0.34640247,-0.32412487,-0.31523216,-0.32770026,-0.3321619,-0.3116567,-0.2814033,-0.26624602,-0.27248,-0.2805171,-0.2715938,-0.2493468,-0.23599249,-0.2395373,-0.2368787,-0.21729034,-0.18966496,-0.17453814,-0.17899978,-0.17899978,-0.1611839,-0.13267225,-0.11488682,-0.1130839,-0.10241872,-0.07213473,-0.030268788,-1.5318394e-05,0.016028166,0.034730315,0.07033169,0.11219764,0.13890624,0.14779902,0.15849459,0.1852032,0.21906269,0.23507571,0.22972786,0.22083509,0.22438002,0.22795534,0.21191192,0.16830409,0.12109041,0.08814764,0.061439037,0.019573092,-0.041850686,-0.104191184,-0.1504882,-0.18165839,-0.2190628,-0.26535982,-0.30453646,-0.32504165,-0.33482057,-0.35529512,-0.38557917,-0.4025089,-0.39716107,-0.38557917,-0.3900408,-0.42209727,-0.44880593,-0.4532675,-0.44168562,-0.43899643,-0.45146453,-0.46038783,-0.45057833,-0.42833132,-0.41852188,-0.42564213,-0.43276238,-0.42652833,-0.40874296,-0.40159214,-0.41051537,-0.41140157,-0.39538866,-0.37222487,-0.36330163,-0.37311107,-0.37668645,-0.36064297,-0.33570677,-0.32858646,-0.34105462,-0.35618138,-0.35440892,-0.33928216,-0.3339343,-0.33928216,-0.34105462,-0.32947272,-0.31611836,-0.3188076,-0.33928216,-0.35529512,-0.34906107,-0.33570677,-0.3339343,-0.3455162,-0.35529512,-0.34728867,-0.3321619,-0.33570677,-0.3579843,-0.37488347,-0.36599082,-0.34463,-0.3339343,-0.34463,-0.35975677,-0.35887057,-0.3455162,-0.34282702,-0.35618138,-0.36953568,-0.36330163,-0.34640247,-0.34016836,-0.34994733,-0.35975677,-0.35352272,-0.33747917,-0.3339343,-0.34640247,-0.35618138,-0.3455162,-0.32681406,-0.32058,-0.33482057,-0.34817487,-0.3455162,-0.3321619,-0.32770026,-0.33928216,-0.3455162,-0.3339343,-0.3089981,-0.29029596,-0.28583437,-0.27605546,-0.2537778,-0.22795546,-0.219949,-0.2252968,-0.21640414,-0.18612003,-0.14514035,-0.12912744,-0.14425415,-0.1638425,-0.1647287,-0.1513744,-0.149602,-0.16564548,-0.17899978,-0.18077219,-0.18254471,-0.2065947,-0.26089817,-0.31700456,-0.34994733,-0.36064297,-0.3704524,-0.3829205,-0.3829205,-0.36421835,-0.34371322,-0.34463,-0.36776322,-0.3891546,-0.3900408,-0.3713386,-0.32858646,-0.23599249,-0.046312332,0.23418951,0.5342796,0.7640226,0.8281357,0.69367576,0.36953568,-0.07571018,-0.5164637,-0.82459086,-0.9154124,-0.819243,-0.65184045,-0.5245007,-0.46928048,-0.43988264,-0.40516752,-0.36421835,-0.33839595,-0.34371322,-0.35352272,-0.34194082,-0.31434596,-0.2956438,-0.29653,-0.30187786,-0.29118222,-0.26982135,-0.25912565,-0.26535982,-0.26893514,-0.25646704,-0.23241705,-0.21817654,-0.22172141,-0.22172141,-0.20393598,-0.17988598,-0.16919035,-0.17365193,-0.17007655,-0.14782959,-0.1121977,-0.08906442,-0.085489035,-0.079254985,-0.049887657,-0.0106803775,0.020459294,0.034730315,0.051629543,0.08726144,0.13267219,0.16207004,0.17096269,0.17896926,0.1976713,0.22529685,0.23773432,0.22972786,0.21814597,0.21906269,0.22438002,0.21460116,0.18165839,0.14779902,0.12109041,0.09438169,0.045395494,-0.024951518,-0.09260929,-0.13447529,-0.16029763,-0.19235408,-0.2395373,-0.2822895,-0.30365026,-0.31345975,-0.33035892,-0.36330163,-0.3891546,-0.39181322,-0.37934512,-0.37934512,-0.39627486,-0.414977,-0.41763562,-0.4078262,-0.41228777,-0.43276238,-0.44791967,-0.44523048,-0.4274451,-0.41852188,-0.42833132,-0.43545157,-0.42386973,-0.40159214,-0.39181322,-0.39981967,-0.40516752,-0.3891546,-0.36330163,-0.34994733,-0.3579843,-0.36421835,-0.35352272,-0.33124512,-0.32412487,-0.34016836,-0.35529512,-0.35086405,-0.33035892,-0.3196938,-0.32681406,-0.33482057,-0.32858646,-0.31345975,-0.31345975,-0.33124512,-0.3455162,-0.34016836,-0.3188076,-0.3098843,-0.32504165,-0.34194082,-0.34371322,-0.3321619,-0.3330481,-0.34994733,-0.36510456,-0.36064297,-0.34016836,-0.32947272,-0.33747917,-0.3517503,-0.35263652,-0.34194082,-0.34371322,-0.3579843,-0.36421835,-0.34906107,-0.32770026,-0.3232386,-0.34282702,-0.36510456,-0.36241543,-0.34105462,-0.32681406,-0.33035892,-0.33839595,-0.33482057,-0.32412487,-0.3232386,-0.33839595,-0.34994733,-0.34282702,-0.3223524,-0.31523216,-0.3232386,-0.32592785,-0.30276406,-0.2627011,-0.23507571,-0.23418951,-0.24665755,-0.24488515,-0.2244106,-0.20393598,-0.18877876,-0.17365193,-0.15317738,-0.1380201,-0.14514035,-0.17007655,-0.18700624,-0.17719686,-0.15317738,-0.14694339,-0.17096275,-0.20482218,-0.22884166,-0.2528916,-0.29118222,-0.34194082,-0.38646537,-0.39716107,-0.38200372,-0.3713386,-0.37668645,-0.3829205,-0.3704524,-0.34906107,-0.34282702,-0.35618138,-0.36776322,-0.34906107,-0.26982135,-0.12912744,0.07656574,0.32770026,0.588583,0.77025676,0.7693707,0.5342796,0.109508395,-0.36241543,-0.7257322,-0.9047168,-0.8967103,-0.7720293,-0.6251012,-0.5120326,-0.44791967,-0.42209727,-0.40605372,-0.38023132,-0.34728867,-0.3321619,-0.34016836,-0.34640247,-0.3330481,-0.3072257,-0.2947576,-0.30099165,-0.3089981,-0.3001054,-0.27248,-0.24846059,-0.24311274,-0.24311274,-0.23418951,-0.22083521,-0.21640414,-0.21729034,-0.21371496,-0.19501281,-0.16741788,-0.15760845,-0.1620701,-0.15849465,-0.13267225,-0.09260929,-0.06232524,-0.05077398,-0.036502838,-0.0053631663,0.03650272,0.064983845,0.073020816,0.085489035,0.12109041,0.17007649,0.20124674,0.20567787,0.20213306,0.21371484,0.23507571,0.24396837,0.22884166,0.2101394,0.20479155,0.20479155,0.1852032,0.13533092,0.08014119,0.040078163,0.012452841,-0.027610183,-0.091723084,-0.15583605,-0.20124686,-0.2252968,-0.2511192,-0.29118222,-0.32947272,-0.34906107,-0.35263652,-0.36064297,-0.38200372,-0.40159214,-0.40339512,-0.39893347,-0.40516752,-0.4274451,-0.44969213,-0.44880593,-0.42833132,-0.41852188,-0.42652833,-0.43545157,-0.4274451,-0.4078262,-0.39804727,-0.40516752,-0.41317403,-0.40428132,-0.38469297,-0.37399727,-0.38111752,-0.38646537,-0.37311107,-0.34371322,-0.32412487,-0.32947272,-0.34194082,-0.34371322,-0.33747917,-0.33928216,-0.35529512,-0.36776322,-0.35975677,-0.33570677,-0.3196938,-0.3232386,-0.3330481,-0.3321619,-0.3196938,-0.31700456,-0.33124512,-0.34640247,-0.34728867,-0.33482057,-0.33124512,-0.34105462,-0.35086405,-0.34817487,-0.33659297,-0.33747917,-0.35618138,-0.3713386,-0.36687702,-0.34817487,-0.34016836,-0.3517503,-0.36510456,-0.36241543,-0.3455162,-0.33482057,-0.34194082,-0.35086405,-0.3455162,-0.3321619,-0.32947272,-0.34463,-0.36152917,-0.35887057,-0.34194082,-0.33035892,-0.3339343,-0.33659297,-0.3214662,-0.29206842,-0.2707076,-0.26535982,-0.26535982,-0.25646704,-0.23330331,-0.21460116,-0.20393598,-0.19501281,-0.17542434,-0.15672225,-0.15672225,-0.18077219,-0.19947445,-0.1941266,-0.17365193,-0.16653168,-0.18434763,-0.21460116,-0.2377649,-0.25735325,-0.28675115,-0.33570677,-0.38200372,-0.39804727,-0.38823777,-0.38023132,-0.38735157,-0.39538866,-0.3891546,-0.36599082,-0.34906107,-0.35618138,-0.37222487,-0.37488347,-0.33659297,-0.24130976,-0.07659638,0.1611532,0.42918694,0.65715766,0.75690234,0.658044,0.35795367,-0.06767309,-0.48798263,-0.79161763,-0.907406,-0.8450655,-0.69013095,-0.5405137,-0.45592618,-0.43187618,-0.42652833,-0.4078262,-0.37311107,-0.34906107,-0.34463,-0.34817487,-0.33839595,-0.31434596,-0.30099165,-0.30633944,-0.3098843,-0.29653,-0.26982135,-0.25646704,-0.2627011,-0.26982135,-0.25469464,-0.22263819,-0.20301926,-0.21817654,-0.23330331,-0.22706926,-0.19858813,-0.17007655,-0.1629563,-0.16564548,-0.15229118,-0.117545545,-0.08637524,-0.06947613,-0.055204988,-0.027610183,0.011566639,0.04273677,0.058749795,0.073020816,0.10238814,0.14425409,0.17453814,0.1852032,0.19055104,0.20925331,0.23596191,0.24843001,0.23865104,0.22172141,0.21371484,0.21102571,0.19055104,0.14425409,0.090806246,0.047198415,0.011566639,-0.037419558,-0.10153252,-0.1629563,-0.20124686,-0.21548736,-0.23418951,-0.2707076,-0.3116567,-0.34016836,-0.35352272,-0.36776322,-0.39181322,-0.4078262,-0.40693992,-0.39627486,-0.39893347,-0.42121106,-0.44523048,-0.44969213,-0.4336486,-0.42475593,-0.4336486,-0.44434428,-0.43811023,-0.42386973,-0.414977,-0.42475593,-0.43545157,-0.42475593,-0.39627486,-0.38023132,-0.38646537,-0.39627486,-0.3900408,-0.36241543,-0.34282702,-0.34282702,-0.35263652,-0.35086405,-0.33482057,-0.32592785,-0.3330481,-0.34194082,-0.33570677,-0.3188076,-0.31345975,-0.32770026,-0.34282702,-0.33839595,-0.31789076,-0.3098843,-0.32504165,-0.34371322,-0.34463,-0.32947272,-0.32412487,-0.33928216,-0.35618138,-0.35263652,-0.3330481,-0.3232386,-0.33570677,-0.35440892,-0.35529512,-0.33482057,-0.32412487,-0.33570677,-0.3517503,-0.35352272,-0.33839595,-0.32947272,-0.33928216,-0.35440892,-0.35529512,-0.34105462,-0.3330481,-0.34105462,-0.35086405,-0.34728867,-0.33035892,-0.3214662,-0.33035892,-0.33659297,-0.32058,-0.28763735,-0.26624602,-0.26893514,-0.2814033,-0.2814033,-0.26001197,-0.23241705,-0.20925331,-0.18523383,-0.15760845,-0.13001364,-0.12912744,-0.15672225,-0.18877876,-0.20213306,-0.19235408,-0.18434763,-0.19146788,-0.2057085,-0.21548736,-0.23153085,-0.26535982,-0.3188076,-0.3704524,-0.39447182,-0.3900408,-0.38557917,-0.39447182,-0.40159214,-0.39269942,-0.37311107,-0.36241543,-0.37222487,-0.39092702,-0.39716107,-0.38823777,-0.36330163,-0.2974162,-0.14248174,0.117545485,0.4238696,0.69367576,0.82190156,0.75956106,0.49421656,0.07213473,-0.39447182,-0.7702569,-0.9403486,-0.8931349,-0.7257322,-0.5716839,-0.4906413,-0.45592618,-0.42833132,-0.39181322,-0.36064297,-0.35440892,-0.3579843,-0.34817487,-0.3188076,-0.29918867,-0.30099165,-0.3107705,-0.3081119,-0.28940976,-0.27516925,-0.27516925,-0.27782786,-0.2635873,-0.2377649,-0.2244106,-0.23064464,-0.24130976,-0.23330331,-0.20482218,-0.18077219,-0.17453814,-0.1763106,-0.15760845,-0.12112087,-0.09349549,-0.08371663,-0.08014119,-0.06412828,-0.029382586,0.00087094307,0.016028166,0.031154871,0.06321144,0.109508395,0.14602649,0.15760839,0.16207004,0.18254459,0.21814597,0.23953736,0.23953736,0.22972786,0.22618294,0.2324171,0.22172141,0.18789244,0.14156497,0.103274465,0.07479334,0.034730315,-0.02583772,-0.08814764,-0.13089985,-0.15672225,-0.18789256,-0.2368787,-0.28583437,-0.31434596,-0.3223524,-0.33124512,-0.3579843,-0.38735157,-0.39893347,-0.39447182,-0.39447182,-0.41140157,-0.43276238,-0.43722403,-0.42475593,-0.41940808,-0.42921752,-0.44257182,-0.44345808,-0.42921752,-0.42209727,-0.43187618,-0.43899643,-0.43098998,-0.4078262,-0.39269942,-0.39804727,-0.40605372,-0.39893347,-0.37757266,-0.36599082,-0.36864942,-0.37668645,-0.36687702,-0.34371322,-0.33124512,-0.33928216,-0.35086405,-0.3455162,-0.32412487,-0.31434596,-0.32592785,-0.34728867,-0.35263652,-0.33747917,-0.32681406,-0.33035892,-0.34016836,-0.33839595,-0.32504165,-0.32058,-0.33747917,-0.3579843,-0.36064297,-0.34640247,-0.33659297,-0.3455162,-0.35975677,-0.35975677,-0.3455162,-0.33928216,-0.35086405,-0.36510456,-0.36152917,-0.34016836,-0.32592785,-0.33570677,-0.35529512,-0.36241543,-0.3517503,-0.34371322,-0.34994733,-0.35440892,-0.34016836,-0.30633944,-0.27694166,-0.2707076,-0.2814033,-0.28583437,-0.2715938,-0.2528916,-0.23330331,-0.20836711,-0.17276573,-0.1380201,-0.1264382,-0.14605713,-0.17899978,-0.19501281,-0.18966496,-0.18789256,-0.19947445,-0.21640414,-0.2244106,-0.22795546,-0.2493468,-0.30099165,-0.36241543,-0.40070587,-0.40605372,-0.40159214,-0.4025089,-0.40159214,-0.38557917,-0.35887057,-0.34817487,-0.35975677,-0.37934512,-0.38646537,-0.37934512,-0.37488347,-0.35352272,-0.2707076,-0.07836878,0.2074809,0.507571,0.73551106,0.8138646,0.6981069,0.3713081,-0.10596365,-0.5832658,-0.9011719,-0.97506374,-0.85395813,-0.6758598,-0.5503231,-0.48975503,-0.44969213,-0.40159214,-0.36687702,-0.35440892,-0.3570981,-0.35529512,-0.33659297,-0.3188076,-0.31611836,-0.31789076,-0.30542272,-0.27871412,-0.26001197,-0.2635873,-0.27694166,-0.27605546,-0.25646704,-0.2395373,-0.23599249,-0.23599249,-0.22352439,-0.19589901,-0.17811358,-0.17899978,-0.18434763,-0.17276573,-0.14159554,-0.11400062,-0.1006158,-0.091723084,-0.066786885,-0.02583772,0.008021712,0.02403462,0.035616517,0.060552716,0.10238814,0.13533092,0.15048814,0.16207004,0.184317,0.22172141,0.24396837,0.23953736,0.22438002,0.22172141,0.23418951,0.23507571,0.20836699,0.16919029,0.13444471,0.109508395,0.07479334,0.016028166,-0.052546382,-0.10596365,-0.1362477,-0.16919035,-0.21548736,-0.2644735,-0.29918867,-0.31345975,-0.32681406,-0.35263652,-0.38111752,-0.39358562,-0.3900408,-0.39269942,-0.41051537,-0.4336486,-0.44079942,-0.42833132,-0.42209727,-0.43456537,-0.45057833,-0.44880593,-0.42921752,-0.41406024,-0.41852188,-0.43098998,-0.43098998,-0.41140157,-0.39447182,-0.39447182,-0.40070587,-0.39447182,-0.3713386,-0.35529512,-0.3579843,-0.36687702,-0.36421835,-0.3455162,-0.33482057,-0.34105462,-0.35086405,-0.34463,-0.32412487,-0.31611836,-0.33035892,-0.35352272,-0.35887057,-0.34194082,-0.32858646,-0.33659297,-0.35086405,-0.35440892,-0.34016836,-0.3321619,-0.34282702,-0.35887057,-0.35975677,-0.34105462,-0.32770026,-0.33747917,-0.35529512,-0.36241543,-0.35263652,-0.34463,-0.35352272,-0.36687702,-0.36776322,-0.3517503,-0.33839595,-0.33928216,-0.34371322,-0.3321619,-0.30453646,-0.28494817,-0.28852355,-0.30453646,-0.3072257,-0.28675115,-0.25735325,-0.23330331,-0.21105629,-0.18523383,-0.15672225,-0.14782959,-0.16830415,-0.19770193,-0.21548736,-0.21282876,-0.21194255,-0.2244106,-0.2493468,-0.27336627,-0.2938714,-0.32681406,-0.37222487,-0.40962917,-0.41406024,-0.38735157,-0.36510456,-0.36687702,-0.38023132,-0.38646537,-0.37668645,-0.36599082,-0.36864942,-0.37934512,-0.38469297,-0.3713386,-0.3321619,-0.24665755,-0.07659638,0.17453814,0.45235074,0.6642779,0.73108006,0.60551274,0.29472697,-0.12824124,-0.5432029,-0.8361422,-0.9278805,-0.8325974,-0.65807444,-0.5155775,-0.4461167,-0.42298347,-0.40428132,-0.3704524,-0.34282702,-0.33482057,-0.33928216,-0.3321619,-0.30633944,-0.28675115,-0.28494817,-0.29206842,-0.28494817,-0.2618149,-0.24665755,-0.2511192,-0.2627011,-0.25646704,-0.22884166,-0.20301926,-0.19947445,-0.2057085,-0.19947445,-0.1763106,-0.15317738,-0.14694339,-0.14782959,-0.13447529,-0.105077446,-0.07748258,-0.06412828,-0.052546382,-0.026723921,0.015141964,0.048970938,0.06409764,0.073020816,0.10150194,0.15137434,0.19232345,0.2074809,0.2101394,0.22083509,0.24308217,0.2608981,0.2608981,0.24665761,0.24042356,0.24396837,0.22972786,0.19143736,0.13624763,0.089920044,0.05520487,0.011566639,-0.049887657,-0.116659224,-0.1638425,-0.19055116,-0.21729034,-0.25558084,-0.29653,-0.3223524,-0.32858646,-0.34016836,-0.36599082,-0.39627486,-0.40516752,-0.39269942,-0.38823777,-0.40339512,-0.42564213,-0.4336486,-0.42121106,-0.41140157,-0.41763562,-0.43010378,-0.4274451,-0.40693992,-0.39269942,-0.40070587,-0.414977,-0.41406024,-0.38823777,-0.36421835,-0.36330163,-0.37311107,-0.37399727,-0.3570981,-0.34194082,-0.34105462,-0.34817487,-0.34463,-0.3232386,-0.30633944,-0.3098843,-0.32412487,-0.32770026,-0.31434596,-0.30453646,-0.3116567,-0.3232386,-0.3232386,-0.3081119,-0.30365026,-0.31700456,-0.33570677,-0.33747917,-0.31611836,-0.30187786,-0.31257355,-0.3330481,-0.33928216,-0.32858646,-0.31700456,-0.3214662,-0.33659297,-0.34016836,-0.32770026,-0.3196938,-0.32947272,-0.34282702,-0.34194082,-0.32770026,-0.3188076,-0.33035892,-0.34994733,-0.35263652,-0.3330481,-0.31700456,-0.32058,-0.33482057,-0.33928216,-0.32412487,-0.3081119,-0.30633944,-0.3081119,-0.29206842,-0.25823945,-0.23599249,-0.2386511,-0.25558084,-0.25469464,-0.2190628,-0.1763106,-0.1513744,-0.14694339,-0.14694339,-0.14248174,-0.14425415,-0.15941143,-0.17899978,-0.18254471,-0.16830415,-0.15849465,-0.17187953,-0.2065947,-0.24399894,-0.27694166,-0.31523216,-0.35975677,-0.39538866,-0.39981967,-0.37845892,-0.35887057,