-0.5124499,-0.5069928,-0.4968894,-0.48834527,-0.48678607,-0.4922431,-0.50000775,-0.5023465,-0.50000775,-0.49533033,-0.48912483,-0.48288816,-0.47824186,-0.47668272,-0.4790215,-0.4821086,-0.48058063,-0.4774623,-0.47122562,-0.46657932,-0.46657932,-0.46891809,-0.47044605,-0.46966648,-0.46657932,-0.46112227,-0.4556964,-0.45491678,-0.4587835,-0.46268147,-0.46579975,-0.46579975,-0.46579975,-0.46735895,-0.46813852,-0.46657932,-0.4603427,-0.45647597,-0.45647597,-0.46268147,-0.46502018,-0.46268147,-0.45800394,-0.45335764,-0.4502393,-0.45101893,-0.44868016,-0.44868016,-0.44868016,-0.44790053,-0.4463414,-0.4393564,-0.4346789,-0.4416951,-0.45335764,-0.46112227,-0.4603427,-0.452578,-0.44556183,-0.44403386,-0.44868016,-0.452578,-0.4541372,-0.4541372,-0.45335764,-0.4517985,-0.4463414,-0.44091552,-0.436238,-0.4346789,-0.42613465,-0.41681087,-0.4105742,-0.40979463,-0.4144721,-0.4199292,-0.4160313,-0.40670753,-0.39735252,-0.3864696,-0.3724683,-0.3507024,-0.32659775,-0.30795014,-0.29781556,-0.2962876,-0.30015433,-0.313376,-0.3304956,-0.35615945,-0.3872491,-0.41914964,-0.4463414,-0.46657932,-0.47824186,-0.47668272,-0.46813852,-0.46268147,-0.46346104,-0.47044605,-0.4821086,-0.4922431,-0.4938023,-0.4922431,-0.49068397,-0.4899044,-0.4899044,-0.49068397,-0.4899044,-0.49302274,-0.5093316,-0.5365546,-0.55445373,-0.5147886,-0.37094033,-0.10809672,0.24418044,0.60263205,0.8553722,0.9362302,0.8009263,0.44868028,-0.05131197,-0.5388933,-0.8639163,-0.9463648,-0.80872196,-0.5886618,-0.42535508,-0.37016076,-0.39504498,-0.4393564,-0.46891809,-0.4774623,-0.47278482,-0.46268147,-0.4502393,-0.44325423,-0.43857676,-0.43545848,-0.43237132,-0.42535508,-0.41525167,-0.4082355,-0.4035892,-0.39735252,-0.38958788,-0.3818233,-0.37714577,-0.37480706,-0.37016076,-0.36314452,-0.35537988,-0.3507024,-0.34371734,-0.33436233,-0.32192022,-0.30483186,-0.2923897,-0.27994758,-0.26204842,-0.23794371,-0.21305948,-0.18895483,-0.16874814,-0.14854133,-0.124436736,-0.097213745,-0.07232946,-0.052871108,-0.03032571,-0.0062209964,0.018663168,0.039649487,0.048973322,0.04588616,0.03266442,0.010867357,-0.021001875,-0.062226176,-0.10887635,-0.15786517,-0.20295614,-0.24804717,-0.29394883,-0.33826023,-0.3802641,-0.41525167,-0.44403386,-0.46735895,-0.48444736,-0.49302274,-0.49610984,-0.49766904,-0.5007874,-0.5093316,-0.5147886,-0.5194349,-0.52333283,-0.5194349,-0.5147886,-0.5093316,-0.5023465,-0.5023465,-0.50390565,-0.5046853,-0.5023465,-0.50156695,-0.50390565,-0.50777245,-0.51167035,-0.5108907,-0.5062444,-0.5007874,-0.49766904,-0.49533033,-0.49533033,-0.49922818,-0.50546485,-0.5093316,-0.50546485,-0.4938023,-0.48288816,-0.47824186,-0.48058063,-0.48522693,-0.48678607,-0.4813602,-0.4790215,-0.47668272,-0.47512352,-0.47512352,-0.4759031,-0.47824186,-0.48058063,-0.47824186,-0.47200525,-0.46657932,-0.46657932,-0.46891809,-0.47122562,-0.46891809,-0.46579975,-0.46502018,-0.46891809,-0.47512352,-0.4774623,-0.47434396,-0.46891809,-0.46657932,-0.47122562,-0.47278482,-0.47512352,-0.47278482,-0.46657932,-0.4603427,-0.45647597,-0.4556964,-0.45647597,-0.46112227,-0.46502018,-0.4642406,-0.46190184,-0.4603427,-0.46112227,-0.46268147,-0.4603427,-0.45956308,-0.46579975,-0.47278482,-0.4774623,-0.47824186,-0.47044605,-0.45722437,-0.4463414,-0.43545848,-0.42691422,-0.42301637,-0.42925298,-0.43857676,-0.4416951,-0.4377972,-0.42769384,-0.4160313,-0.40436876,-0.39504498,-0.3864696,-0.37792534,-0.3662628,-0.35382068,-0.33826023,-0.3188331,-0.30561143,-0.30405223,-0.3172739,-0.33592153,-0.36314452,-0.39579338,-0.42613465,-0.4541372,-0.46966648,-0.47278482,-0.46813852,-0.46346104,-0.46657932,-0.47044605,-0.4790215,-0.48522693,-0.48522693,-0.4821086,-0.47824186,-0.47434396,-0.47512352,-0.48058063,-0.48678607,-0.49068397,-0.49610984,-0.51167035,-0.5381137,-0.54279125,-0.47434396,-0.2962876,-0.0163244,0.31649446,0.6057502,0.776042,0.7838378,0.59252846,0.21227992,-0.2690646,-0.6944042,-0.931584,-0.9308044,-0.7573943,-0.54977626,-0.4199292,-0.38335127,-0.4074871,-0.44556183,-0.47122562,-0.4759031,-0.46502018,-0.44868016,-0.43545848,-0.43003255,-0.43003255,-0.4315917,-0.4331197,-0.4331197,-0.42379594,-0.41135383,-0.3981321,-0.3872491,-0.3872491,-0.39192665,-0.39114708,-0.3849104,-0.3740275,-0.36314452,-0.35615945,-0.34758407,-0.33748066,-0.32425898,-0.31259644,-0.30171353,-0.29394883,-0.2853735,-0.2675054,-0.24496001,-0.21695739,-0.18817532,-0.1617319,-0.13918638,-0.11820006,-0.096434176,-0.07619619,-0.055989444,-0.033444047,-0.013237238,0.0046619177,0.017883658,0.024089098,0.019442797,0.0054415464,-0.020222306,-0.057548642,-0.102639616,-0.15396726,-0.20295614,-0.2511654,-0.2962876,-0.33436233,-0.37094033,-0.40514833,-0.43389928,-0.45647597,-0.47200525,-0.4836678,-0.49533033,-0.5062444,-0.5147886,-0.51634777,-0.5132295,-0.50855196,-0.5062444,-0.5062444,-0.50855196,-0.5147886,-0.52099407,-0.52255327,-0.51868653,-0.51011115,-0.50390565,-0.50390565,-0.51011115,-0.51634777,-0.5147886,-0.5124499,-0.50777245,-0.50546485,-0.5062444,-0.5046853,-0.50312614,-0.4968894,-0.49302274,-0.4899044,-0.49068397,-0.49533033,-0.49922818,-0.5007874,-0.49610984,-0.4899044,-0.48288816,-0.47824186,-0.47824186,-0.4790215,-0.47980106,-0.48058063,-0.47980106,-0.47512352,-0.47122562,-0.46966648,-0.46657932,-0.46579975,-0.4642406,-0.4642406,-0.46346104,-0.46502018,-0.46891809,-0.47122562,-0.46891809,-0.46190184,-0.45647597,-0.45491678,-0.4587835,-0.46657932,-0.47200525,-0.47200525,-0.4735644,-0.47512352,-0.47200525,-0.46813852,-0.46346104,-0.46268147,-0.46657932,-0.46813852,-0.46502018,-0.4603427,-0.4587835,-0.4642406,-0.47278482,-0.47512352,-0.47122562,-0.4642406,-0.4587835,-0.4517985,-0.44481343,-0.4377972,-0.42925298,-0.4284734,-0.43081218,-0.43081218,-0.42769384,-0.4206776,-0.41759044,-0.41914964,-0.41681087,-0.41369253,-0.40047085,-0.3802641,-0.35460025,-0.32737732,-0.30795014,-0.3009339,-0.3087297,-0.3234794,-0.33748066,-0.3507024,-0.36704242,-0.38958788,-0.41914964,-0.44556183,-0.46813852,-0.48522693,-0.4968894,-0.4984486,-0.49146354,-0.4821086,-0.47434396,-0.47512352,-0.48522693,-0.4945507,-0.50000775,-0.50000775,-0.4984486,-0.49610984,-0.4922431,-0.48912483,-0.4899044,-0.50390565,-0.5373341,-0.5653367,-0.54279125,-0.42379594,-0.18661612,0.13684773,0.47824192,0.73406935,0.8405913,0.75739443,0.47200525,0.024089098,-0.45647597,-0.815707,-0.9525703,-0.86160874,-0.6516519,-0.47044605,-0.39270622,-0.4035892,-0.44945973,-0.4836678,-0.4984486,-0.49302274,-0.48058063,-0.46657932,-0.452578,-0.44481343,-0.44403386,-0.44712102,-0.44790053,-0.44403386,-0.43701762,-0.42769384,-0.41681087,-0.40670753,-0.3981321,-0.39426535,-0.39426535,-0.39426535,-0.3888083,-0.37792534,-0.3662628,-0.35615945,-0.34992284,-0.3421582,-0.3304956,-0.31571478,-0.30015433,-0.28384554,-0.26594633,-0.24418044,-0.22163492,-0.201397,-0.17963105,-0.15630597,-0.12830341,-0.097213745,-0.068431556,-0.04510653,-0.027986944,-0.015544891,-0.0054413676,0.00076401234,0.0046619177,-0.00079512596,-0.012457669,-0.037341893,-0.07619619,-0.12209797,-0.17108685,-0.21695739,-0.26360756,-0.3110373,-0.35537988,-0.39270622,-0.41914964,-0.43857676,-0.45647597,-0.4759031,-0.49302274,-0.50546485,-0.5132295,-0.52021456,-0.52723074,-0.53187704,-0.53187704,-0.52878994,-0.5264512,-0.5264512,-0.52489203,-0.52255327,-0.51790696,-0.5147886,-0.51790696,-0.51634777,-0.51167035,-0.5062444,-0.5007874,-0.5007874,-0.5007874,-0.4984486,-0.49302274,-0.49068397,-0.49302274,-0.4984486,-0.50312614,-0.50312614,-0.5023465,-0.49922818,-0.4945507,-0.4899044,-0.48834527,-0.49068397,-0.4922431,-0.4945507,-0.49068397,-0.47980106,-0.47278482,-0.46813852,-0.46735895,-0.46891809,-0.47122562,-0.47278482,-0.47122562,-0.46891809,-0.4642406,-0.46190184,-0.4642406,-0.46735895,-0.46657932,-0.46190184,-0.4556964,-0.452578,-0.4556964,-0.45956308,-0.45956308,-0.45800394,-0.45722437,-0.45800394,-0.45956308,-0.4587835,-0.45722437,-0.45722437,-0.4587835,-0.46112227,-0.4642406,-0.4642406,-0.4642406,-0.46579975,-0.46657932,-0.46190184,-0.45800394,-0.45722437,-0.4603427,-0.4642406,-0.46346104,-0.4603427,-0.45647597,-0.45491678,-0.4556964,-0.45491678,-0.4517985,-0.4502393,-0.44945973,-0.44945973,-0.44556183,-0.44325423,-0.44013596,-0.4393564,-0.4377972,-0.436238,-0.43857676,-0.44325423,-0.44403386,-0.4377972,-0.4245755,-0.4074871,-0.39192665,-0.3826028,-0.37558657,-0.36158532,-0.3421582,-0.31961268,-0.3009339,-0.29161012,-0.29859513,-0.31805354,-0.34293777,-0.3740275,-0.4035892,-0.42925298,-0.44945973,-0.46502018,-0.4735644,-0.47512352,-0.47044605,-0.4642406,-0.4603427,-0.46346104,-0.47044605,-0.4759031,-0.48058063,-0.48288816,-0.48444736,-0.48288816,-0.4790215,-0.4759031,-0.47668272,-0.49146354,-0.52333283,-0.55211496,-0.53187704,-0.4206776,-0.1897344,0.13840687,0.501567,0.7931615,0.93856895,0.87791777,0.59564686,0.12908316,-0.38413084,-0.77838063,-0.9448056,-0.8678142,-0.6562982,-0.46502018,-0.37792534,-0.3888083,-0.4377972,-0.4735644,-0.47980106,-0.46813852,-0.45491678,-0.44868016,-0.44556183,-0.44403386,-0.44013596,-0.4346789,-0.4284734,-0.4199292,-0.4105742,-0.40280962,-0.39579338,-0.38958788,-0.38413084,-0.3849104,-0.3818233,-0.3763662,-0.3639241,-0.34605604,-0.33127517,-0.32425898,-0.32117188,-0.3172739,-0.3087297,-0.2962876,-0.28228635,-0.26516676,-0.24573958,-0.22085536,-0.19597107,-0.17264599,-0.15240812,-0.13298088,-0.10497838,-0.07544786,-0.046665728,-0.021001875,-1.5556812e-05,0.019442797,0.03809035,0.048973322,0.05053258,0.04354751,0.026427865,-0.00079512596,-0.038869858,-0.08711034,-0.14230472,-0.19597107,-0.24729878,-0.29394883,-0.33826023,-0.37792534,-0.40670753,-0.42925298,-0.44712102,-0.46346104,-0.47980106,-0.49302274,-0.50156695,-0.50546485,-0.5062444,-0.5069928,-0.50855196,-0.5124499,-0.51634777,-0.5194349,-0.5194349,-0.5147886,-0.5108907,-0.51011115,-0.5108907,-0.5093316,-0.5062444,-0.50312614,-0.50156695,-0.50390565,-0.5062444,-0.5023465,-0.49766904,-0.49766904,-0.50000775,-0.50312614,-0.5023465,-0.49533033,-0.4899044,-0.48912483,-0.49068397,-0.4922431,-0.4899044,-0.48756564,-0.48522693,-0.4836678,-0.47980106,-0.4759031,-0.4735644,-0.47668272,-0.48058063,-0.4813602,-0.48058063,-0.47668272,-0.47434396,-0.47122562,-0.46657932,-0.46190184,-0.46112227,-0.4642406,-0.46966648,-0.46966648,-0.46657932,-0.46268147,-0.4642406,-0.46813852,-0.47044605,-0.46891809,-0.46346104,-0.45956308,-0.4587835,-0.46112227,-0.46502018,-0.46579975,-0.46657932,-0.46502018,-0.45956308,-0.45800394,-0.45956308,-0.46346104,-0.46579975,-0.4642406,-0.46268147,-0.46190184,-0.46268147,-0.4642406,-0.46112227,-0.45335764,-0.44790053,-0.44712102,-0.44868016,-0.45101893,-0.4517985,-0.452578,-0.45335764,-0.4556964,-0.45647597,-0.4541372,-0.45101893,-0.44945973,-0.4463414,-0.4416951,-0.4346789,-0.42691422,-0.4206776,-0.4199292,-0.42301637,-0.43237132,-0.44325423,-0.44945973,-0.44556183,-0.4315917,-0.41291296,-0.39969128,-0.39348578,-0.3903675,-0.3849104,-0.37094033,-0.34914327,-0.3250386,-0.30561143,-0.29781556,-0.30717063,-0.33127517,-0.36158532,-0.39426535,-0.4206776,-0.4393564,-0.45335764,-0.4603427,-0.45956308,-0.4556964,-0.45101893,-0.4517985,-0.4556964,-0.46190184,-0.46735895,-0.47044605,-0.47200525,-0.47122562,-0.47044605,-0.46735895,-0.46735895,-0.47200525,-0.47824186,-0.49302274,-0.51556826,-0.52489203,-0.4813602,-0.3421582,-0.09331584,0.22784042,0.53577507,0.7402749,0.78692484,0.64307666,0.3133762,-0.1469822,-0.5956468,-0.88958013,-0.95023155,-0.80326486,-0.5824251,-0.42145717,-0.36860156,-0.39114708,-0.43081218,-0.45647597,-0.4603427,-0.452578,-0.44247472,-0.43237132,-0.42379594,-0.41914964,-0.41759044,-0.41681087,-0.4121334,-0.40514833,-0.39891165,-0.39426535,-0.3888083,-0.3826028,-0.37558657,-0.36938113,-0.3662628,-0.36158532,-0.35460025,-0.3468045,-0.34137863,-0.3367011,-0.32815695,-0.31493515,-0.29781556,-0.27994758,-0.2643872,-0.24804717,-0.23017907,-0.21305948,-0.19830984,-0.18352902,-0.16251147,-0.13531965,-0.10653758,-0.07931453,-0.05832821,-0.040429056,-0.021781504,-0.0054413676,0.006221175,0.012426496,0.009339452,-1.5556812e-05,-0.021001875,-0.052871108,-0.09487498,-0.14308435,-0.19051397,-0.23872334,-0.28771222,-0.3351419,-0.37480706,-0.40436876,-0.42535508,-0.44403386,-0.46346104,-0.4813602,-0.49533033,-0.50390565,-0.5108907,-0.51868653,-0.52255327,-0.52021456,-0.5147886,-0.5108907,-0.51011115,-0.5108907,-0.5093316,-0.5046853,-0.50312614,-0.50546485,-0.50777245,-0.51011115,-0.5108907,-0.5132295,-0.5147886,-0.5147886,-0.5093316,-0.5023465,-0.4984486,-0.5007874,-0.50390565,-0.5069928,-0.50777245,-0.5069928,-0.5046853,-0.50000775,-0.4938023,-0.48912483,-0.48912483,-0.4922431,-0.49146354,-0.48678607,-0.47824186,-0.47044605,-0.46813852,-0.46657932,-0.46502018,-0.4642406,-0.46657932,-0.47044605,-0.47434396,-0.4735644,-0.46966648,-0.46657932,-0.46657932,-0.46813852,-0.46657932,-0.46502018,-0.4642406,-0.4642406,-0.46502018,-0.46502018,-0.46346104,-0.46190184,-0.46346104,-0.46579975,-0.46579975,-0.46502018,-0.46502018,-0.46502018,-0.46502018,-0.4642406,-0.46268147,-0.46190184,-0.4642406,-0.46813852,-0.46891809,-0.46735895,-0.46579975,-0.46657932,-0.46813852,-0.46657932,-0.4642406,-0.46346104,-0.46502018,-0.46579975,-0.46657932,-0.46502018,-0.46502018,-0.46735895,-0.46735895,-0.4603427,-0.4502393,-0.4393564,-0.4346789,-0.4377972,-0.44325423,-0.44790053,-0.44868016,-0.44481343,-0.4346789,-0.4199292,-0.4074871,-0.39969128,-0.39426535,-0.3849104,-0.3662628,-0.34449697,-0.32971603,-0.32659775,-0.33592153,-0.34914327,-0.36470366,-0.3888083,-0.41914964,-0.44945973,-0.47122562,-0.48058063,-0.48058063,-0.47980106,-0.47668272,-0.4735644,-0.4735644,-0.47434396,-0.4774623,-0.48058063,-0.48058063,-0.47824186,-0.4774623,-0.48058063,-0.4836678,-0.48522693,-0.48912483,-0.50312614,-0.53187704,-0.55211496,-0.51634777,-0.38413084,-0.1469822,0.16173196,0.47122562,0.6920655,0.76983654,0.664063,0.36704242,-0.07544786,-0.52411246,-0.8359449,-0.92924523,-0.81339943,-0.6065298,-0.44325423,-0.3802641,-0.3981321,-0.44325423,-0.47512352,-0.4813602,-0.4735644,-0.4642406,-0.45800394,-0.45491678,-0.44712102,-0.43857676,-0.4315917,-0.42691422,-0.42379594,-0.42223674,-0.41914964,-0.41525167,-0.40979463,-0.40125042,-0.39192665,-0.38335127,-0.37948453,-0.37948453,-0.37714577,-0.37094033,-0.35924655,-0.3468045,-0.3367011,-0.32659775,-0.31571478,-0.30405223,-0.29161012,-0.27449048,-0.2527246,-0.22550166,-0.201397,-0.18119025,-0.16329104,-0.14308435,-0.1158613,-0.08711034,-0.06375414,-0.042767823,-0.022561073,-0.004661858,0.008559823,0.011646986,-0.002323091,-0.026427805,-0.057548642,-0.096434176,-0.14074558,-0.18895483,-0.23794371,-0.2853735,-0.32815695,-0.367822,-0.4035892,-0.4346789,-0.45800394,-0.4735644,-0.4860065,-0.49610984,-0.5046853,-0.51167035,-0.5171274,-0.52411246,-0.5310975,-0.53265667,-0.5303491,-0.52333283,-0.5171274,-0.5171274,-0.52021456,-0.52021456,-0.5194349,-0.51868653,-0.51790696,-0.51634777,-0.5124499,-0.5108907,-0.51400906,-0.51868653,-0.52099407,-0.51790696,-0.5132295,-0.51167035,-0.5132295,-0.5147886,-0.51011115,-0.5069928,-0.5069928,-0.5093316,-0.51167035,-0.50855196,-0.50000775,-0.4945507,-0.4922431,-0.4899044,-0.48444736,-0.47824186,-0.47668272,-0.4790215,-0.4860065,-0.48834527,-0.48912483,-0.48756564,-0.4860065,-0.48444736,-0.47668272,-0.46966648,-0.46813852,-0.47044605,-0.47434396,-0.47512352,-0.47278482,-0.47044605,-0.47122562,-0.47278482,-0.47044605,-0.46502018,-0.46190184,-0.46268147,-0.46891809,-0.4735644,-0.47278482,-0.46891809,-0.46579975,-0.46346104,-0.46502018,-0.46813852,-0.46813852,-0.46891809,-0.46813852,-0.46502018,-0.46502018,-0.46502018,-0.4642406,-0.46190184,-0.45722437,-0.4541372,-0.45647597,-0.46346104,-0.47044605,-0.46813852,-0.46268147,-0.4556964,-0.452578,-0.4556964,-0.45647597,-0.45491678,-0.452578,-0.45101893,-0.4517985,-0.45335764,-0.4517985,-0.44712102,-0.44091552,-0.4377972,-0.43701762,-0.4377972,-0.4377972,-0.43389928,-0.42535508,-0.4144721,-0.4059279,-0.40047085,-0.39504498,-0.38413084,-0.3639241,-0.340599,-0.32039225,-0.306391,-0.30405223,-0.3118168,-0.33127517,-0.36236495,-0.3981321,-0.43081218,-0.4517985,-0.46190184,-0.46502018,-0.46735895,-0.46891809,-0.46735895,-0.46813852,-0.46813852,-0.47200525,-0.4790215,-0.4836678,-0.48678607,-0.48834527,-0.48912483,-0.48834527,-0.48678607,-0.48912483,-0.50312614,-0.5295695,-0.5614388,-0.55676126,-0.46891809,-0.26984417,0.029546142,0.38413095,0.696743,0.8810359,0.87791777,0.65551865,0.23326635,-0.27218294,-0.69518375,-0.9105976,-0.8841542,-0.69518375,-0.4922431,-0.3818233,-0.37558657,-0.4245755,-0.47122562,-0.48912483,-0.4836678,-0.47122562,-0.46268147,-0.45956308,-0.452578,-0.44403386,-0.43545848,-0.43081218,-0.42769384,-0.42379594,-0.41837007,-0.4121334,-0.4074871,-0.40203005,-0.39192665,-0.38335127,-0.37792534,-0.37558657,-0.37480706,-0.36860156,-0.35924655,-0.34836364,-0.33592153,-0.3234794,-0.30795014,-0.2908305,-0.27604967,-0.26360756,-0.24651921,-0.22319412,-0.19753027,-0.17186642,-0.14854133,-0.12674433,-0.10030085,-0.07310909,-0.047445297,-0.026427805,-0.0077801347,0.010119081,0.024868727,0.033444047,0.029546142,0.013985634,-0.010118902,-0.043547392,-0.083992064,-0.13064218,-0.18119025,-0.23251784,-0.28306592,-0.32971603,-0.37324786,-0.41369253,-0.4416951,-0.4603427,-0.47434396,-0.4836678,-0.4938023,-0.50312614,-0.5108907,-0.51556826,-0.52021456,-0.5217737,-0.52099407,-0.5171274,-0.51400906,-0.5124499,-0.5108907,-0.50777245,-0.5046853,-0.50390565,-0.5062444,-0.5069928,-0.5062444,-0.5046853,-0.50390565,-0.50546485,-0.50546485,-0.49922818,-0.49146354,-0.48756564,-0.48756564,-0.48912483,-0.48834527,-0.4860065,-0.48756564,-0.49146354,-0.4945507,-0.49068397,-0.48522693,-0.4821086,-0.48444736,-0.48678607,-0.48678607,-0.4836678,-0.47824186,-0.47512352,-0.47278482,-0.47044605,-0.46966648,-0.47200525,-0.47824186,-0.4836678,-0.4813602,-0.47668272,-0.47278482,-0.47200525,-0.4735644,-0.47278482,-0.46966648,-0.4642406,-0.46268147,-0.46346104,-0.4642406,-0.46579975,-0.46735895,-0.46813852,-0.46579975,-0.46112227,-0.45491678,-0.45101893,-0.45647597,-0.46112227,-0.46112227,-0.45956308,-0.45647597,-0.45722437,-0.46190184,-0.46268147,-0.4587835,-0.4541372,-0.45335764,-0.4517985,-0.44556183,-0.4346789,-0.42223674,-0.41369253,-0.41135383,-0.4121334,-0.4121334,-0.41525167,-0.41914964,-0.42145717,-0.41759044,-0.4035892,-0.37948453,-0.34992284,-0.3188331,-0.29472846,-0.2853735,-0.29161012,-0.30795014,-0.32971603,-0.34836364,-0.3639241,-0.3849104,-0.41525167,-0.4463414,-0.47200525,-0.4860065,-0.49068397,-0.4899044,-0.48834527,-0.48756564,-0.48756564,-0.48834527,-0.49068397,-0.49302274,-0.4938023,-0.49533033,-0.49766904,-0.50156695,-0.50546485,-0.50390565,-0.5046853,-0.51790696,-0.54821706,-0.5801176,-0.56377757,-0.4517985,-0.22085536,0.11196351,0.48288822,0.7838378,0.9323636,0.8670347,0.568424,0.082432985,-0.44013596,-0.83204705,-0.98525035,-0.8950372,-0.67419744,-0.4759031,-0.38569003,-0.39504498,-0.44790053,-0.4922431,-0.5062444,-0.49922818,-0.4813602,-0.46657932,-0.4556964,-0.44945973,-0.44945973,-0.44790053,-0.44247472,-0.43545848,-0.42535508,-0.4206776,-0.41681087,-0.41369253,-0.4035892,-0.3903675,-0.38413084,-0.38413084,-0.3864696,-0.3826028,-0.37016076,-0.35382068,-0.340599,-0.3320548,-0.32192022,-0.30561143,-0.2892714,-0.27604967,-0.2667259,-0.26048923,-0.24184167,-0.20763361,-0.167189,-0.13064218,-0.10030085,-0.07931453,-0.06066698,-0.037341893,-0.012457669,0.009339452,0.025648236,0.033444047,0.03188491,0.026427865,0.012426496,-0.012457669,-0.049004495,-0.097993314,-0.15630597,-0.21461868,-0.26984417,-0.31961268,-0.3639241,-0.40280962,-0.43237132,-0.4541372,-0.47044605,-0.4860065,-0.5023465,-0.51634777,-0.52255327,-0.52411246,-0.52411246,-0.52723074,-0.53187704,-0.53343624,-0.5310975,-0.52489203,-0.51790696,-0.5147886,-0.5147886,-0.5171274,-0.52255327,-0.5256716,-0.52489203,-0.52021456,-0.51556826,-0.51556826,-0.51790696,-0.52099407,-0.52021456,-0.5171274,-0.51556826,-0.5171274,-0.51556826,-0.51011115,-0.50312614,-0.50000775,-0.50156695,-0.50546485,-0.50546485,-0.50156695,-0.4968894,-0.4938023,-0.4922431,-0.4899044,-0.4860065,-0.4836678,-0.48288816,-0.4813602,-0.47824186,-0.47434396,-0.4759031,-0.48058063,-0.48288816,-0.4813602,-0.4759031,-0.47044605,-0.47200525,-0.47512352,-0.47980106,-0.4774623,-0.47122562,-0.46657932,-0.46268147,-0.45956308,-0.45956308,-0.4603427,-0.45800394,-0.452578,-0.44403386,-0.43389928,-0.42613465,-0.42379594,-0.42145717,-0.41914964,-0.41837007,-0.41759044,-0.41759044,-0.41291296,-0.39504498,-0.36548322,-0.33361393,-0.30483186,-0.2892714,-0.28849185,-0.29706722,-0.31259644,-0.33127517,-0.35226154,-0.37792534,-0.41369253,-0.4517985,-0.48756564,-0.5093316,-0.51790696,-0.51634777,-0.50855196,-0.50546485,-0.50546485,-0.5046853,-0.5108907,-0.5194349,-0.5264512,-0.5303491,-0.52801037,-0.5217737,-0.51868653,-0.51634777,-0.5171274,-0.52333283,-0.54431915,-0.5816455,-0.5979855,-0.5381137,-0.35537988,-0.049784005,0.33202362,0.6858599,0.9121256,0.9432465,0.73871565,0.3133762,-0.22628123,-0.6998612,-0.965792,-0.9704695,-0.7869561,-0.56920344,-0.436238,-0.40979463,-0.44481343,-0.48522693,-0.5023465,-0.49922818,-0.4899044,-0.48522693,-0.4813602,-0.4790215,-0.47044605,-0.45722437,-0.4463414,-0.4416951,-0.43857676,-0.4346789,-0.42769384,-0.4199292,-0.4144721,-0.40979463,-0.4082355,-0.40280962,-0.39657295,-0.39114708,-0.3818233,-0.37094033,-0.35693902,-0.34449697,-0.33436233,-0.3250386,-0.31571478,-0.29859513,-0.2776088,-0.25428373,-0.2309587,-0.20841318,-0.18196982,-0.1555264,-0.1275239,-0.097993314,-0.069990754,-0.041988194,-0.01788354,0.0015436411,0.013206124,0.021001935,0.027987003,0.027207375,0.0163244,-0.009339333,-0.049784005,-0.10108048,-0.15864474,-0.21851659,-0.2752701,-0.32425898,-0.36548322,-0.40125042,-0.43237132,-0.4603427,-0.4836678,-0.49922818,-0.50855196,-0.5194349,-0.5295695,-0.5381137,-0.54279125,-0.54279125,-0.54279125,-0.5420116,-0.5404525,-0.5365546,-0.53187704,-0.5310975,-0.5349954,-0.53967285,-0.53967285,-0.5349954,-0.5295695,-0.52723074,-0.5264512,-0.5264512,-0.52723074,-0.52801037,-0.5295695,-0.5264512,-0.51868653,-0.5093316,-0.5007874,-0.4984486,-0.50390565,-0.50855196,-0.5124499,-0.5132295,-0.51011115,-0.5069928,-0.50546485,-0.5062444,-0.50855196,-0.50855196,-0.5062444,-0.5007874,-0.49533033,-0.49302274,-0.4938023,-0.4922431,-0.48834527,-0.4860065,-0.4860065,-0.4899044,-0.49068397,-0.4836678,-0.47044605,-0.45800394,-0.45101893,-0.44868016,-0.44790053,-0.4502393,-0.44945973,-0.44403386,-0.44013596,-0.4346789,-0.42925298,-0.42535508,-0.41759044,-0.39579338,-0.36236495,-0.32893646,-0.30717063,-0.30015433,-0.30717063,-0.3188331,-0.3320548,-0.3507024,-0.37792534,-0.4105742,-0.44712102,-0.47824186,-0.50156695,-0.5147886,-0.52021456,-0.51868653,-0.5171274,-0.52099407,-0.52489203,-0.5310975,-0.5349954,-0.53967285,-0.54279125,-0.54587835,-0.5450988,-0.5381137,-0.5310975,-0.52878994,-0.53265667,-0.5466579,-0.57544005,-0.6127664,-0.62520856,-0.5552333,-0.36158532,-0.043547392,0.34914327,0.7091851,0.93467116,0.95724773,0.7449522,0.31103742,-0.2348566,-0.7107442,-0.9774545,-0.9805728,-0.79627985,-0.5777788,-0.4463414,-0.42301637,-0.46112227,-0.50390565,-0.5256716,-0.5310975,-0.5256716,-0.5171274,-0.51011115,-0.5023465,-0.4938023,-0.4860065,-0.4774623,-0.47122562,-0.46502018,-0.46112227,-0.4556964,-0.44325423,-0.43237132,-0.4245755,-0.4206776,-0.41837007,-0.4144721,-0.4074871,-0.39891165,-0.38802874,-0.37480706,-0.35849822,-0.34371734,-0.33361393,-0.3250386,-0.3118168,-0.2892714,-0.262828,-0.23794371,-0.21695739,-0.19830984,-0.17651272,-0.15084898,-0.12209797,-0.09097713,-0.06066698,-0.03188491,-0.013237238,-0.0015747547,0.0015436411,-1.5556812e-05,-0.002323091,-0.013985693,-0.040429056,-0.082432926,-0.13531965,-0.19051397,-0.24262124,-0.29394883,-0.33826023,-0.37714577,-0.4082355,-0.4346789,-0.4603427,-0.48444736,-0.5023465,-0.5132295,-0.51556826,-0.52021456,-0.52723074,-0.5349954,-0.5404525,-0.54431915,-0.5466579,-0.54743755,-0.54431915,-0.5373341,-0.52878994,-0.52411246,-0.52489203,-0.5264512,-0.5264512,-0.5264512,-0.52878994,-0.5295695,-0.52723074,-0.5194349,-0.5093316,-0.5046853,-0.5069928,-0.5108907,-0.51011115,-0.5069928,-0.50390565,-0.5023465,-0.50156695,-0.50156695,-0.5007874,-0.5007874,-0.50000775,-0.4968894,-0.49302274,-0.49146354,-0.49302274,-0.49610984,-0.49533033,-0.49146354,-0.48756564,-0.48834527,-0.4922431,-0.4945507,-0.4922431,-0.48834527,-0.48678607,-0.4836678,-0.47980106,-0.47278482,-0.46579975,-0.46346104,-0.46657932,-0.46891809,-0.4642406,-0.45800394,-0.4517985,-0.4463414,-0.44247472,-0.43701762,-0.4331197,-0.4315917,-0.43389928,-0.43701762,-0.43389928,-0.42379594,-0.4121334,-0.39348578,-0.36236495,-0.32815695,-0.30171353,-0.28849185,-0.29316926,-0.30947816,-0.32659775,-0.34371734,-0.36470366,-0.39504498,-0.42925298,-0.46268147,-0.4922431,-0.5132295,-0.5217737,-0.51868653,-0.5093316,-0.49922818,-0.4945507,-0.49610984,-0.50156695,-0.50546485,-0.50777245,-0.51400906,-0.5171274,-0.5132295,-0.5046853,-0.4968894,-0.49302274,-0.50000775,-0.52099407,-0.5513354,-0.5661163,-0.52021456,-0.37168872,-0.11352253,0.22472215,0.55520225,0.7846174,0.8491355,0.70294845,0.34914327,-0.13996595,-0.60808897,-0.904361,-0.95646816,-0.80482405,-0.5871026,-0.43389928,-0.3818233,-0.40203005,-0.43857676,-0.46112227,-0.46813852,-0.46579975,-0.45800394,-0.44945973,-0.44013596,-0.43389928,-0.4315917,-0.4284734,-0.42145717,-0.41291296,-0.40436876,-0.39735252,-0.39114708,-0.3864696,-0.3818233,-0.37948453,-0.37948453,-0.37792534,-0.36938113,-0.35537988,-0.33903986,-0.32192022,-0.31025773,-0.30171353,-0.29472846,-0.28615308,-0.2729314,-0.25038582,-0.22394246,-0.19753027,-0.17264599,-0.15006936,-0.1275239,-0.10186005,-0.07931453,-0.05910784,-0.041208625,-0.024120152,-0.0054413676,0.008559823,0.013206124,0.010867357,0.0046619177,-0.008559704,-0.028766513,-0.063005745,-0.111214995,-0.16407067,-0.21461868,-0.262828,-0.31025773,-0.35693902,-0.39579338,-0.42301637,-0.44013596,-0.45491678,-0.46966648,-0.48444736,-0.4945507,-0.5007874,-0.5046853,-0.50855196,-0.5093316,-0.5093316,-0.51011115,-0.51400906,-0.51868653,-0.5217737,-0.51790696,-0.51167035,-0.5069928,-0.50390565,-0.50156695,-0.4984486,-0.4968894,-0.50156695,-0.50855196,-0.5108907,-0.5069928,-0.50000775,-0.4938023,-0.4938023,-0.4968894,-0.49610984,-0.49302274,-0.48912483,-0.48678607,-0.48756564,-0.48678607,-0.4860065,-0.48522693,-0.48444736,-0.4836678,-0.48058063,-0.47668272,-0.47434396,-0.47200525,-0.46735895,-0.46346104,-0.46346104,-0.46657932,-0.47044605,-0.47122562,-0.46735895,-0.46268147,-0.46268147,-0.46502018,-0.46813852,-0.46966648,-0.47044605,-0.47122562,-0.47122562,-0.46891809,-0.46268147,-0.45800394,-0.45800394,-0.46346104,-0.46966648,-0.47278482,-0.4735644,-0.47122562,-0.46891809,-0.46891809,-0.46891809,-0.46813852,-0.46657932,-0.46190184,-0.4541372,-0.44247472,-0.43237132,-0.4315917,-0.4393564,-0.4463414,-0.44712102,-0.44403386,-0.43389928,-0.42379594,-0.4144721,-0.40047085,-0.38104367,-0.36080575,-0.34293777,-0.32815695,-0.32039225,-0.3234794,-0.33826023,-0.35537988,-0.3763662,-0.3981321,-0.42379594,-0.45335764,-0.48058063,-0.4984486,-0.50156695,-0.4984486,-0.49610984,-0.4968894,-0.5023465,-0.5069928,-0.5069928,-0.50546485,-0.5007874,-0.49610984,-0.49533033,-0.49922818,-0.5046853,-0.5093316,-0.50777245,-0.50312614,-0.50855196,-0.53343624,-0.55910003,-0.5381137,-0.42613465,-0.2052949,0.09097707,0.39192677,0.6127665,0.7021688,0.6174128,0.34758413,-0.07388866,-0.51790696,-0.83903205,-0.94558525,-0.8437096,-0.6392098,-0.46813852,-0.39192665,-0.40047085,-0.44403386,-0.4790215,-0.49146354,-0.48288816,-0.46966648,-0.4587835,-0.4541372,-0.45101893,-0.44556183,-0.43857676,-0.43389928,-0.4315917,-0.42613465,-0.41759044,-0.40670753,-0.39735252,-0.39579338,-0.39735252,-0.39657295,-0.39192665,-0.3849104,-0.3763662,-0.36548322,-0.35382068,-0.340599,-0.32815695,-0.31805354,-0.30947816,-0.2962876,-0.28150678,-0.26516676,-0.24573958,-0.22628123,-0.20295614,-0.18041068,-0.15786517,-0.13454008,-0.10887635,-0.0816533,-0.055209875,-0.036562324,-0.02567935,-0.021001875,-0.019442737,-0.023340583,-0.033444047,-0.054430306,-0.08555114,-0.1228776,-0.16874814,-0.21773702,-0.2667259,-0.3110373,-0.34836364,-0.37948453,-0.40670753,-0.43003255,-0.452578,-0.46813852,-0.4774623,-0.4860065,-0.4922431,-0.49766904,-0.50000775,-0.50156695,-0.50156695,-0.50390565,-0.50777245,-0.51167035,-0.51556826,-0.5147886,-0.5132295,-0.50855196,-0.50312614,-0.50312614,-0.5093316,-0.5132295,-0.51634777,-0.51011115,-0.4984486,-0.49146354,-0.48912483,-0.49068397,-0.49146354,-0.4922431,-0.4922431,-0.4922431,-0.4922431,-0.48912483,-0.48678607,-0.48678607,-0.4860065,-0.4860065,-0.4836678,-0.4813602,-0.4790215,-0.4790215,-0.4790215,-0.47668272,-0.4774623,-0.47980106,-0.4813602,-0.4813602,-0.47668272,-0.47278482,-0.47044605,-0.46891809,-0.46813852,-0.46190184,-0.45800394,-0.45491678,-0.45491678,-0.45647597,-0.45647597,-0.45956308,-0.46268147,-0.46735895,-0.46966648,-0.46735895,-0.46346104,-0.46112227,-0.46190184,-0.46502018,-0.46579975,-0.46502018,-0.46346104,-0.46346104,-0.4642406,-0.4642406,-0.46657932,-0.46579975,-0.46268147,-0.45800394,-0.4517985,-0.44868016,-0.45101893,-0.45335764,-0.4502393,-0.44247472,-0.43857676,-0.4393564,-0.44790053,-0.45491678,-0.45101893,-0.44091552,-0.43003255,-0.4199292,-0.41369253,-0.40436876,-0.3903675,-0.37094033,-0.34758407,-0.32425898,-0.30561143,-0.29394883,-0.29394883,-0.30795014,-0.32815695,-0.35382068,-0.3849104,-0.41837007,-0.4463414,-0.4642406,-0.47044605,-0.47044605,-0.46735895,-0.46657932,-0.46735895,-0.46502018,-0.46657932,-0.47044605,-0.47512352,-0.4759031,-0.47200525,-0.46891809,-0.47122562,-0.47512352,-0.4790215,-0.4813602,-0.49146354,-0.51790696,-0.5528946,-0.5513354,-0.46346104,-0.25896126,0.04510653,0.3981322,0.7021688,0.87401974,0.8530334,0.61120725,0.17261493,-0.3320548,-0.7278638,-0.9074793,-0.84994626,-0.6516519,-0.46346104,-0.37094033,-0.37324786,-0.4199292,-0.46268147,-0.4821086,-0.4790215,-0.46502018,-0.452578,-0.44403386,-0.44091552,-0.43857676,-0.436238,-0.43237132,-0.42535508,-0.4160313,-0.4074871,-0.4035892,-0.3981321,-0.39192665,-0.3818233,-0.36704242,-0.35615945,-0.35382068,-0.35382068,-0.34992284,-0.3421582,-0.3304956,-0.31961268,-0.3110373,-0.3009339,-0.28615308,-0.2690646,-0.25506335,-0.23638457,-0.21461868,-0.18661612,-0.1555264,-0.12830341,-0.10575795,-0.083212495,-0.05910784,-0.034223557,-0.012457669,0.00076401234,0.010119081,0.017883658,0.024089098,0.025648236,0.018663168,-0.002323091,-0.037341893,-0.083992064,-0.13918638,-0.19753027,-0.25194502,-0.29859513,-0.33826023,-0.3724683,-0.40280962,-0.4284734,-0.44790053,-0.46268147,-0.47512352,-0.48678607,-0.4968894,-0.50390565,-0.50777245,-0.5108907,-0.5132295,-0.51400906,-0.5132295,-0.51167035,-0.5093316,-0.50855196,-0.5046853,-0.49922818,-0.49533033,-0.49533033,-0.4984486,-0.5023465,-0.4984486,-0.49146354,-0.48756564,-0.48912483,-0.4899044,-0.48756564,-0.4821086,-0.4759031,-0.47512352,-0.4774623,-0.47980106,-0.47980106,-0.4790215,-0.4813602,-0.4836678,-0.4821086,-0.4790215,-0.4759031,-0.4735644,-0.47278482,-0.4735644,-0.47434396,-0.47512352,-0.47668272,-0.47668272,-0.47434396,-0.47278482,-0.47122562,-0.46966648,-0.46966648,-0.46891809,-0.46966648,-0.47278482,-0.47512352,-0.4774623,-0.4774623,-0.47668272,-0.4774623,-0.4774623,-0.4759031,-0.47200525,-0.47044605,-0.47044605,-0.4735644,-0.47512352,-0.46891809,-0.46112227,-0.45491678,-0.45491678,-0.45722437,-0.45956308,-0.4603427,-0.46190184,-0.4642406,-0.46657932,-0.46657932,-0.46657932,-0.46813852,-0.46966648,-0.47044605,-0.46657932,-0.46112227,-0.45722437,-0.45800394,-0.45800394,-0.45800394,-0.4541372,-0.452578,-0.4517985,-0.4517985,-0.452578,-0.4502393,-0.44712102,-0.44403386,-0.44013596,-0.43389928,-0.42769384,-0.42301637,-0.42145717,-0.42535508,-0.42925298,-0.4315917,-0.4284734,-0.41914964,-0.40670753,-0.3888083,-0.3724683,-0.36314452,-0.35849822,-0.35460025,-0.34137863,-0.32269984,-0.3024931,-0.29005098,-0.29161012,-0.30327266,-0.32425898,-0.35615945,-0.39192665,-0.42613465,-0.44868016,-0.45800394,-0.4587835,-0.45800394,-0.45722437,-0.45647597,-0.4556964,-0.45800394,-0.46268147,-0.46891809,-0.47122562,-0.47200525,-0.4735644,-0.4759031,-0.47668272,-0.47200525,-0.46813852,-0.4735644,-0.5007874,-0.54123205,-0.54821706,-0.47434396,-0.28384554,0.014765263,0.37480712,0.7037281,0.90978694,0.92924523,0.72240686,0.30405223,-0.21695739,-0.66796076,-0.91137725,-0.9028018,-0.7161701,-0.50156695,-0.37558657,-0.35924655,-0.40203005,-0.44790053,-0.46657932,-0.46346104,-0.4502393,-0.43857676,-0.43081218,-0.4245755,-0.42223674,-0.4206776,-0.41759044,-0.41291296,-0.4035892,-0.39426535,-0.3888083,-0.38802874,-0.38569003,-0.3763662,-0.3662628,-0.35460025,-0.34758407,-0.34137863,-0.33592153,-0.33127517,-0.3234794,-0.31571478,-0.30483186,-0.28693265,-0.27062374,-0.25740212,-0.24418044,-0.23017907,-0.20841318,-0.18196982,-0.15942436,-0.13996595,-0.11897963,-0.09097713,-0.05988741,-0.03032571,-0.0062209964,0.013206124,0.027987003,0.038869977,0.042767882,0.03809035,0.026427865,0.0070006847,-0.024899721,-0.069990754,-0.12209797,-0.17573315,-0.22472209,-0.26828504,-0.30947816,-0.34836364,-0.38335127,-0.4121334,-0.43545848,-0.4541372,-0.46813852,-0.4774623,-0.48288816,-0.4860065,-0.48756564,-0.4899044,-0.49068397,-0.4899044,-0.48912483,-0.49146354,-0.4938023,-0.4938023,-0.49068397,-0.4860065,-0.4821086,-0.4821086,-0.48444736,-0.4860065,-0.48678607,-0.48756564,-0.48522693,-0.4821086,-0.47980106,-0.4759031,-0.47434396,-0.47512352,-0.4735644,-0.47044605,-0.47122562,-0.47278482,-0.47512352,-0.4735644,-0.46579975,-0.4587835,-0.45800394,-0.46346104,-0.46966648,-0.47200525,-0.47044605,-0.46657932,-0.46346104,-0.46346104,-0.46346104,-0.46268147,-0.4587835,-0.45491678,-0.452578,-0.4502393,-0.4517985,-0.45647597,-0.46190184,-0.46502018,-0.4642406,-0.46190184,-0.45956308,-0.45722437,-0.45647597,-0.45647597,-0.45722437,-0.46112227,-0.46190184,-0.4603427,-0.45647597,-0.45335764,-0.45335764,-0.4556964,-0.45800394,-0.45722437,-0.45722437,-0.46112227,-0.46346104,-0.46502018,-0.46112227,-0.4556964,-0.4541372,-0.45335764,-0.4541372,-0.4502393,-0.4463414,-0.44556183,-0.44868016,-0.452578,-0.4517985,-0.44712102,-0.44247472,-0.4393564,-0.43545848,-0.4331197,-0.43003255,-0.42925298,-0.43081218,-0.436238,-0.4393564,-0.44013596,-0.4393564,-0.43237132,-0.4199292,-0.4035892,-0.39192665,-0.3888083,-0.3872491,-0.37792534,-0.35771865,-0.33283436,-0.3118168,-0.30561143,-0.3118168,-0.32581818,-0.3530411,-0.38958788,-0.42613465,-0.4541372,-0.46657932,-0.46813852,-0.46735895,-0.46891809,-0.47122562,-0.47200525,-0.47122562,-0.47200525,-0.4735644,-0.4759031,-0.47824186,-0.48058063,-0.48288816,-0.4836678,-0.4860065,-0.4821086,-0.4836678,-0.4984486,-0.5217737,-0.52411246,-0.4603427,-0.29706722,-0.04432696,0.25584304,0.5217738,0.6835213,0.696743,0.5248921,0.17417407,-0.279168,-0.6850804,-0.91680306,-0.91836226,-0.74651134,-0.5365546,-0.3981321,-0.36314452,-0.39426535,-0.43857676,-0.46346104,-0.46502018,-0.4556964,-0.4463414,-0.44013596,-0.43545848,-0.4284734,-0.4206776,-0.41525167,-0.4121334,-0.40901506,-0.40280962,-0.39657295,-0.39114708,-0.3872491,-0.38104367,-0.37324786,-0.36470366,-0.35771865,-0.35460025,-0.3507024,-0.3421582,-0.3320548,-0.3234794,-0.31805354,-0.30947816,-0.29550803,-0.27682924,-0.25584292,-0.23716414,-0.2224145,-0.2052949,-0.18430859,-0.16020393,-0.13376051,-0.10731715,-0.0816533,-0.05910784,-0.040429056,-0.024120152,-0.009339333,-0.00079512596,-0.00079512596,-0.0070005655,-0.024120152,-0.046665728,-0.07232946,-0.10809672,-0.15318763,-0.20685399,-0.26048923,-0.30483186,-0.34137863,-0.3740275,-0.4035892,-0.42925298,-0.44868016,-0.46112227,-0.47200525,-0.48522693,-0.49533033,-0.5023465,-0.5046853,-0.50390565,-0.5062444,-0.5093316,-0.50855196,-0.50855196,-0.5093316,-0.5108907,-0.5132295,-0.5108907,-0.50546485,-0.50156695,-0.49922818,-0.50000775,-0.50312614,-0.5046853,-0.5062444,-0.50855196,-0.50777245,-0.50156695,-0.49302274,-0.48834527,-0.48756564,-0.48912483,-0.4899044,-0.48834527,-0.48522693,-0.48288816,-0.4813602,-0.47668272,-0.47044605,-0.46657932,-0.46657932,-0.46891809,-0.47044605,-0.47044605,-0.47200525,-0.47434396,-0.47122562,-0.4642406,-0.46190184,-0.46112227,-0.4642406,-0.46966648,-0.46657932,-0.4603427,-0.4556964,-0.45491678,-0.45491678,-0.45491678,-0.45647597,-0.4587835,-0.46268147,-0.4642406,-0.46190184,-0.45956308,-0.4603427,-0.4603427,-0.4603427,-0.45800394,-0.4541372,-0.45335764,-0.4556964,-0.45491678,-0.45335764,-0.4502393,-0.4502393,-0.45335764,-0.45722437,-0.45800394,-0.452578,-0.44481343,-0.4393564,-0.436238,-0.4346789,-0.4331197,-0.43081218,-0.42691422,-0.4199292,-0.4121334,-0.40901506,-0.4121334,-0.41837007,-0.42145717,-0.41837007,-0.40901506,-0.39657295,-0.3849104,-0.37016076,-0.34371734,-0.31415558,-0.29161012,-0.28150678,-0.28615308,-0.29550803,-0.306391,-0.3188331,-0.33826023,-0.36470366,-0.39657295,-0.42769384,-0.4541372,-0.47122562,-0.4790215,-0.4759031,-0.47278482,-0.47122562,-0.4759031,-0.4813602,-0.4813602,-0.47980106,-0.4774623,-0.47668272,-0.47824186,-0.47980106,-0.4813602,-0.4836678,-0.48678607,-0.49610984,-0.51556826,-0.54431915,-0.5489967,-0.47980106,-0.29937476,-0.012457669,0.33202362,0.63765085,0.81804585,0.81804585,0.61042774,0.20994127,-0.28384554,-0.70372796,-0.9214806,-0.8950372,-0.70297956,-0.4968894,-0.3849104,-0.37558657,-0.4160313,-0.4541372,-0.46891809,-0.46657932,-0.45956308,-0.4502393,-0.44403386,-0.43857676,-0.4331197,-0.42769384,-0.42301637,-0.4206776,-0.41837007,-0.4121334,-0.40125042,-0.3872491,-0.37792534,-0.37714577,-0.37948453,-0.37870497,-0.36938113,-0.35849822,-0.34914327,-0.340599,-0.33436233,-0.3250386,-0.3172739,-0.30717063,-0.2962876,-0.28228635,-0.26360756,-0.23872334,-0.21539825,-0.19285274,-0.16796857,-0.14308435,-0.11975926,-0.096434176,-0.07310909,-0.050563574,-0.026427805,-0.003882289,0.013206124,0.024089098,0.028766513,0.026427865,0.013985634,-0.010898471,-0.047445297,-0.09253621,-0.13840681,-0.18817532,-0.2410621,-0.28849185,-0.3304956,-0.36314452,-0.3888083,-0.41369253,-0.4377972,-0.45956308,-0.47434396,-0.4836678,-0.49146354,-0.49533033,-0.49610984,-0.4938023,-0.4922431,-0.49610984,-0.50312614,-0.50777245,-0.50546485,-0.49922818,-0.4945507,-0.4945507,-0.49610984,-0.49533033,-0.49146354,-0.48834527,-0.48756564,-0.49146354,-0.4945507,-0.4945507,-0.4922431,-0.48834527,-0.48288816,-0.4774623,-0.47512352,-0.47512352,-0.4774623,-0.47824186,-0.47668272,-0.4735644,-0.47044605,-0.46966648,-0.47200525,-0.47434396,-0.4735644,-0.4735644,-0.47044605,-0.46657932,-0.46190184,-0.46190184,-0.46502018,-0.46579975,-0.4642406,-0.4587835,-0.4517985,-0.44868016,-0.45101893,-0.4541372,-0.4541372,-0.45491678,-0.45722437,-0.4587835,-0.45647597,-0.4502393,-0.44481343,-0.44403386,-0.44868016,-0.4556964,-0.45800394,-0.45722437,-0.45800394,-0.45956308,-0.4587835,-0.45722437,-0.45335764,-0.4517985,-0.452578,-0.45491678,-0.4556964,-0.4556964,-0.4587835,-0.46190184,-0.45956308,-0.452578,-0.44403386,-0.43701762,-0.43389928,-0.43701762,-0.43857676,-0.4377972,-0.43701762,-0.43545848,-0.43237132,-0.42691422,-0.42223674,-0.42301637,-0.42769384,-0.43081218,-0.42925298,-0.4206776,-0.40979463,-0.39735252,-0.38569003,-0.37168872,-0.35924655,-0.34449697,-0.32737732,-0.30947816,-0.2923897,-0.2853735,-0.2923897,-0.30947816,-0.33592153,-0.3662628,-0.40125042,-0.43545848,-0.4603427,-0.47044605,-0.47122562,-0.46966648,-0.46891809,-0.47122562,-0.4735644,-0.47122562,-0.47200525,-0.47278482,-0.4774623,-0.47824186,-0.47512352,-0.47122562,-0.47044605,-0.4735644,-0.4821086,-0.49922818,-0.5310975,-0.55676126,-0.5310975,-0.40280962,-0.15084898,0.19827867,0.56299794,0.8320471,0.9308044,0.8133683,0.47512364,-0.021001875,-0.5194349,-0.8600496,-0.954909,-0.8242824,-0.59876513,-0.42379594,-0.36158532,-0.3826028,-0.43237132,-0.46657932,-0.47668272,-0.46966648,-0.45722437,-0.44556183,-0.43701762,-0.43237132,-0.4315917,-0.4284734,-0.42301637,-0.41681087,-0.40670753,-0.3981321,-0.39270622,-0.3864696,-0.3826028,-0.37948453,-0.3724683,-0.3639241,-0.35771865,-0.3530411,-0.3468045,-0.33826023,-0.32425898,-0.31259644,-0.30327266,-0.29394883,-0.27994758,-0.25974083,-0.23872334,-0.22319412,-0.20373577,-0.18352902,-0.15474683,-0.1228776,-0.09877294,-0.07388866,-0.050563574,-0.022561073,0.0038824081,0.024089098,0.0357517,0.040429115,0.040429115,0.030325651,0.011646986,-0.01710397,-0.055209875,-0.097993314,-0.14854133,-0.20295614,-0.25974083,-0.3087297,-0.34992284,-0.3849104,-0.41291296,-0.43701762,-0.45491678,-0.46579975,-0.47434396,-0.48444736,-0.4938023,-0.4984486,-0.50156695,-0.50546485,-0.50777245,-0.5093316,-0.50855196,-0.5046853,-0.5007874,-0.5007874,-0.50390565,-0.5062444,-0.50546485,-0.5046853,-0.5023465,-0.50000775,-0.49766904,-0.49302274,-0.49068397,-0.48912483,-0.48912483,-0.49068397,-0.48678607,-0.48678607,-0.48912483,-0.4860065,-0.48058063,-0.47044605,-0.46112227,-0.46190184,-0.46657932,-0.47200525,-0.47122562,-0.46813852,-0.46502018,-0.4642406,-0.46502018,-0.46346104,-0.4642406,-0.46579975,-0.4642406,-0.46190184,-0.45800394,-0.45647597,-0.4603427,-0.46268147,-0.46268147,-0.45722437,-0.45101893,-0.44868016,-0.452578,-0.46268147,-0.46502018,-0.46268147,-0.45647597,-0.44868016,-0.44790053,-0.4517985,-0.45647597,-0.46112227,-0.46190184,-0.45956308,-0.45647597,-0.45491678,-0.45647597,-0.4587835,-0.4587835,-0.4556964,-0.452578,-0.4541372,-0.45491678,-0.4587835,-0.4603427,-0.45647597,-0.45335764,-0.44868016,-0.44247472,-0.4377972,-0.43857676,-0.44403386,-0.44712102,-0.44403386,-0.43545848,-0.4245755,-0.41837007,-0.4206776,-0.42769384,-0.43237132,-0.43389928,-0.43237132,-0.4245755,-0.4105742,-0.39579338,-0.38104367,-0.3724683,-0.36314452,-0.34914327,-0.32815695,-0.30717063,-0.29472846,-0.2962876,-0.3110373,-0.33592153,-0.36938113,-0.4059279,-0.44013596,-0.46112227,-0.46657932,-0.4642406,-0.4603427,-0.45956308,-0.46190184,-0.46346104,-0.46502018,-0.46813852,-0.47122562,-0.47200525,-0.47122562,-0.47122562,-0.47278482,-0.4774623,-0.47980106,-0.47824186,-0.4836678,-0.50390565,-0.52723074,-0.5093316,-0.40125042,-0.17963105,0.12674439,0.4541061,0.7052872,0.8203845,0.7480706,0.4735644,0.026427865,-0.45956308,-0.825062,-0.96501243,-0.87171215,-0.6547391,-0.46112227,-0.36704242,-0.3662628,-0.40979463,-0.44712102,-0.46112227,-0.452578,-0.43857676,-0.42769384,-0.42535508,-0.42613465,-0.42145717,-0.4121334,-0.40436876,-0.39891165,-0.39735252,-0.39735252,-0.39270622,-0.38569003,-0.37948453,-0.37094033,-0.36080575,-0.3530411,-0.34449697,-0.3367011,-0.32815695,-0.3172739,-0.30405223,-0.29005098,-0.2776088,-0.2690646,-0.2612688,-0.25038582,-0.23872334,-0.22319412,-0.20217657,-0.17963105,-0.15630597,-0.13454008,-0.110435426,-0.08711034,-0.061446548,-0.038869858,-0.021781504,-0.0077801347,0.0023231506,0.010867357,0.013206124,0.0046619177,-0.013985693,-0.043547392,-0.08009416,-0.12053883,-0.16485023,-0.21227998,-0.25974083,-0.3009339,-0.33903986,-0.36938113,-0.39657295,-0.4206776,-0.4416951,-0.4603427,-0.47434396,-0.48444736,-0.49302274,-0.4968894,-0.49922818,-0.50312614,-0.50546485,-0.5069928,-0.50546485,-0.50390565,-0.5046853,-0.50546485,-0.5062444,-0.50546485,-0.50312614,-0.5046853,-0.5062444,-0.50777245,-0.50546485,-0.5023465,-0.4984486,-0.4945507,-0.4922431,-0.4899044,-0.4860065,-0.48522693,-0.4836678,-0.48288816,-0.48058063,-0.47980106,-0.47980106,-0.4774623,-0.47278482,-0.46735895,-0.46502018,-0.46579975,-0.46966648,-0.47044605,-0.46502018,-0.45800394,-0.45335764,-0.4541372,-0.4541372,-0.4517985,-0.4502393,-0.45101893,-0.4541372,-0.45722437,-0.4587835,-0.4556964,-0.452578,-0.45101893,-0.44945973,-0.44868016,-0.4502393,-0.45335764,-0.45491678,-0.4541372,-0.45101893,-0.44868016,-0.44945973,-0.4517985,-0.45335764,-0.4541372,-0.4541372,-0.45647597,-0.45722437,-0.45647597,-0.45335764,-0.44868016,-0.4463414,-0.44556183,-0.44556183,-0.44325423,-0.44091552,-0.43857676,-0.43701762,-0.43389928,-0.42613465,-0.41837007,-0.4121334,-0.4105742,-0.41369253,-0.41369253,-0.41291296,-0.41291296,-0.41135383,-0.4074871,-0.3981321,-0.3826028,-0.36080575,-0.3367011,-0.31493515,-0.30015433,-0.2962876,-0.30717063,-0.32117188,-0.33592153,-0.34605604,-0.35693902,-0.3802641,-0.4105742,-0.44247472,-0.46502018,-0.47278482,-0.47434396,-0.47044605,-0.46579975,-0.46112227,-0.4603427,-0.46346104,-0.47122562,-0.4790215,-0.4821086,-0.4821086,-0.4821086,-0.48288816,-0.48288816,-0.47980106,-0.4813602,-0.4968894,-0.52489203,-0.53577495,-0.48444736,-0.33361393,-0.08477163,0.22472215,0.51245,0.6998613,0.7356285,0.58632314,0.25272477,-0.1998378,-0.62754726,-0.8965964,-0.94012815,-0.7900432,-0.5762197,-0.42145717,-0.36860156,-0.39114708,-0.43389928,-0.46268147,-0.46657932,-0.45647597,-0.44712102,-0.4416951,-0.44013596,-0.436238,-0.42925298,-0.42145717,-0.41291296,-0.40436876,-0.3981321,-0.39192665,-0.3888083,-0.3864696,-0.38104367,-0.37168872,-0.36236495,-0.35615945,-0.3530411,-0.34758407,-0.33903986,-0.32815695,-0.3188331,-0.30947816,-0.29937476,-0.28615308,-0.27218294,-0.26048923,-0.24804717,-0.23251784,-0.21075195,-0.18430859,-0.1555264,-0.12908298,-0.10497838,-0.0816533,-0.05988741,-0.041208625,-0.023340583,-0.0070005655,0.0054415464,0.010867357,0.006221175,-0.009339333,-0.033444047,-0.06375414,-0.102639616,-0.1493209,-0.19830984,-0.24729878,-0.29005098,-0.32893646,-0.36470366,-0.39579338,-0.42301637,-0.44325423,-0.45956308,-0.47434396,-0.4860065,-0.49302274,-0.49610984,-0.49610984,-0.49766904,-0.5007874,-0.5046853,-0.50390565,-0.5007874,-0.49766904,-0.49610984,-0.49610984,-0.4968894,-0.49766904,-0.4984486,-0.4984486,-0.49766904,-0.4968894,-0.49533033,-0.49302274,-0.4899044,-0.48522693,-0.4813602,-0.47980106,-0.4813602,-0.4836678,-0.48444736,-0.48288816,-0.4813602,-0.4813602,-0.47980106,-0.4774623,-0.47278482,-0.46966648,-0.46966648,-0.47044605,-0.47122562,-0.46813852,-0.46502018,-0.46346104,-0.46268147,-0.4603427,-0.4556964,-0.4517985,-0.44868016,-0.44790053,-0.44712102,-0.44481343,-0.44247472,-0.44481343,-0.44712102,-0.4502393,-0.45101893,-0.44945973,-0.45101893,-0.4541372,-0.45647597,-0.45335764,-0.4502393,-0.44712102,-0.44712102,-0.4502393,-0.4502393,-0.44790053,-0.44556183,-0.44481343,-0.44403386,-0.44247472,-0.4393564,-0.43857676,-0.4416951,-0.44091552,-0.43701762,-0.42691422,-0.41525167,-0.40280962,-0.39504498,-0.39192665,-0.39192665,-0.39657295,-0.40203005,-0.40280962,-0.39504498,-0.38104367,-0.36002618,-0.33283436,-0.30405223,-0.279168,-0.2690646,-0.27218294,-0.2853735,-0.3009339,-0.31571478,-0.3351419,-0.36158532,-0.39426535,-0.42691422,-0.4502393,-0.46502018,-0.47122562,-0.47044605,-0.46735895,-0.4642406,-0.46346104,-0.46891809,-0.4774623,-0.4821086,-0.4813602,-0.4790215,-0.4774623,-0.4790215,-0.48288816,-0.48444736,-0.4860065,-0.4938023,-0.51556826,-0.5466579,-0.54977626,-0.4759031,-0.2892714,0.0054415464,0.3623649,0.681962,0.87324023,0.875579,0.66253495,0.24960637,-0.25740212,-0.69128585,-0.92690647,-0.91680306,-0.7301713,-0.5147886,-0.38802874,-0.36938113,-0.4105742,-0.45491678,-0.47434396,-0.47122562,-0.4587835,-0.44790053,-0.4393564,-0.4315917,-0.42691422,-0.42613465,-0.42613465,-0.42535508,-0.4199292,-0.41291296,-0.4059279,-0.39891165,-0.39270622,-0.38335127,-0.37558657,-0.37168872,-0.36938113,-0.36470366,-0.35537988,-0.34449697,-0.33127517,-0.32039225,-0.30947816,-0.2962876,-0.28228635,-0.2690646,-0.2527246,-0.23251784,-0.20763361,-0.18196982,-0.15864474,-0.13609928,-0.11352253,-0.08711034,-0.06066698,-0.039649427,-0.021001875,-0.004661858,0.010119081,0.021001935,0.026427865,0.024868727,0.013206124,-0.0077801347,-0.040429056,-0.08711034,-0.14230472,-0.19753027,-0.24882674,-0.29781556,-0.34527653,-0.3826028,-0.4105742,-0.42925298,-0.4416951,-0.45647597,-0.4735644,-0.48756564,-0.49533033,-0.5007874,-0.5046853,-0.5062444,-0.5069928,-0.50390565,-0.50156695,-0.50312614,-0.5062444,-0.5069928,-0.50312614,-0.4984486,-0.4968894,-0.4984486,-0.50000775,-0.4984486,-0.4945507,-0.49302274,-0.49302274,-0.4922431,-0.4899044,-0.48522693,-0.4836678,-0.48288816,-0.4813602,-0.47824186,-0.47668272,-0.47824186,-0.47980106,-0.48058063,-0.4759031,-0.47122562,-0.47044605,-0.47044605,-0.47122562,-0.47044605,-0.46735895,-0.46735895,-0.46813852,-0.46735895,-0.4642406,-0.4587835,-0.45800394,-0.4587835,-0.4587835,-0.45647597,-0.45335764,-0.45101893,-0.44945973,-0.4517985,-0.4541372,-0.4556964,-0.4587835,-0.46190184,-0.46112227,-0.45491678,-0.44945973,-0.4463414,-0.44556183,-0.4502393,-0.45335764,-0.45647597,-0.45800394,-0.45647597,-0.4541372,-0.45101893,-0.44868016,-0.44945973,-0.4502393,-0.44712102,-0.4377972,-0.42691422,-0.41759044,-0.4105742,-0.40514833,-0.40280962,-0.40280962,-0.40280962,-0.40436876,-0.40280962,-0.39657295,-0.38958788,-0.37792534,-0.35924655,-0.3304956,-0.2962876,-0.27218294,-0.2643872,-0.27218294,-0.28849185,-0.30405223,-0.32039225,-0.3421582,-0.3724683,-0.4082355,-0.4393564,-0.46268147,-0.4759031,-0.4774623,-0.47278482,-0.46579975,-0.46190184,-0.46813852,-0.47668272,-0.48444736,-0.48834527,-0.48912483,-0.48678607,-0.4836678,-0.48288816,-0.47980106,-0.47980106,-0.4821086,-0.4938023,-0.51868653,-0.55211496,-0.56065917,-0.4945507,-0.3087297,-0.0054413676,0.3740276,0.72162724,0.93778944,0.9533498,0.73406935,0.30015445,-0.235605,-0.69830203,-0.94792396,-0.93778944,-0.7418339,-0.5171274,-0.3849104,-0.36158532,-0.40125042,-0.44556183,-0.46813852,-0.46966648,-0.46112227,-0.45101893,-0.4416951,-0.436238,-0.43389928,-0.4315917,-0.42769384,-0.41914964,-0.4105742,-0.4035892,-0.3981321,-0.39426535,-0.39270622,-0.3888083,-0.38335127,-0.37480706,-0.36236495,-0.34836364,-0.33748066,-0.3304956,-0.3250386,-0.32117188,-0.313376,-0.30015433,-0.28384554,-0.26594633,-0.24729878,-0.22862,-0.20763361,-0.18661612,-0.1617319,-0.13762724,-0.11274296,-0.08711034,-0.062226176,-0.037341893,-0.013237238,0.010119081,0.027207375,0.0357517,0.03653121,0.029546142,0.015544891,-0.0070005655,-0.042767823,-0.087858796,-0.13996595,-0.1936323,-0.24418044,-0.2923897,-0.33592153,-0.37324786,-0.40203005,-0.4245755,-0.44325423,-0.45956308,-0.4735644,-0.48522693,-0.4938023,-0.50000775,-0.5046853,-0.5069928,-0.5069928,-0.5062444,-0.50546485,-0.50312614,-0.5023465,-0.49922818,-0.50000775,-0.50312614,-0.50855196,-0.50777245,-0.5046853,-0.5007874,-0.50000775,-0.50312614,-0.5046853,-0.5007874,-0.49610984,-0.49533033,-0.4984486,-0.5023465,-0.50312614,-0.5007874,-0.49766904,-0.49610984,-0.4938023,-0.49068397,-0.4860065,-0.4821086,-0.48058063,-0.47824186,-0.47512352,-0.47278482,-0.47122562,-0.47122562,-0.47122562,-0.46891809,-0.46813852,-0.46813852,-0.46735895,-0.46579975,-0.46190184,-0.45956308,-0.45956308,-0.46112227,-0.46112227,-0.45956308,-0.4587835,-0.4603427,-0.46190184,-0.46112227,-0.45722437,-0.45491678,-0.45722437,-0.4603427,-0.46579975,-0.46579975,-0.46346104,-0.46268147,-0.4603427,-0.45647597,-0.452578,-0.45101893,-0.452578,-0.45335764,-0.4541372,-0.4502393,-0.44945973,-0.44790053,-0.44247472,-0.43237132,-0.4206776,-0.4144721,-0.41681087,-0.42145717,-0.4199292,-0.41525167,-0.40979463,-0.40670753,-0.40280962,-0.39192665,-0.36704242,-0.3367011,-0.30795014,-0.2892714,-0.2853735,-0.29161012,-0.30405223,-0.32039225,-0.3367011,-0.35771865,-0.3864696,-0.41759044,-0.44868016,-0.47044605,-0.4790215,-0.4759031,-0.47044605,-0.46891809,-0.47044605,-0.47278482,-0.4735644,-0.47200525,-0.4735644,-0.47824186,-0.4836678,-0.48678607,-0.48834527,-0.48912483,-0.48678607,-0.48522693,-0.4899044,-0.50855196,-0.53577495,-0.5303491,-0.44325423,-0.23872334,0.060635805,0.39345467,0.665622,0.808722,0.77526236,0.54042137,0.12440562,-0.3639241,-0.76515895,-0.95646816,-0.9105976,-0.71386254,-0.50777245,-0.38958788,-0.367822,-0.40047085,-0.44247472,-0.46502018,-0.46502018,-0.4502393,-0.436238,-0.43237132,-0.4331197,-0.4315917,-0.42535508,-0.41681087,-0.40979463,-0.40514833,-0.40203005,-0.39735252,-0.39348578,-0.3903675,-0.3864696,-0.3826028,-0.3763662,-0.36860156,-0.36002618,-0.3507024,-0.33826023,-0.32737732,-0.3188331,-0.3118168,-0.30171353,-0.2853735,-0.26360756,-0.24028248,-0.22007579,-0.20217657,-0.18430859,-0.16251147,-0.14074558,-0.11975926,-0.097213745,-0.07388866,-0.05131197,-0.03032571,-0.014765263,-0.004661858,0.0015436411,0.0046619177,-1.5556812e-05,-0.015544891,-0.042767823,-0.07853496,-0.124436736,-0.17495358,-0.2309587,-0.28615308,-0.33283436,-0.36470366,-0.3864696,-0.40514833,-0.42379594,-0.44712102,-0.46657932,-0.48288816,-0.4922431,-0.49922818,-0.50312614,-0.50390565,-0.50390565,-0.50390565,-0.50312614,-0.49922818,-0.4945507,-0.49146354,-0.49302274,-0.4968894,-0.5007874,-0.50156695,-0.50000775,-0.50156695,-0.5023465,-0.50000775,-0.49610984,-0.4938023,-0.4922431,-0.49302274,-0.49302274,-0.4899044,-0.48678607,-0.48678607,-0.48522693,-0.48288816,-0.4774623,-0.4735644,-0.47200525,-0.4735644,-0.47512352,-0.4735644,-0.47044605,-0.46657932,-0.46346104,-0.4603427,-0.45800394,-0.45800394,-0.4603427,-0.46268147,-0.46268147,-0.4587835,-0.4556964,-0.45491678,-0.45335764,-0.45335764,-0.44945973,-0.44712102,-0.44790053,-0.4502393,-0.452578,-0.45335764,-0.45101893,-0.4517985,-0.45491678,-0.45722437,-0.45722437,-0.45335764,-0.4502393,-0.44868016,-0.44790053,-0.44712102,-0.44712102,-0.44868016,-0.44945973,-0.44945973,-0.44481343,-0.4377972,-0.4315917,-0.42613465,-0.42301637,-0.41837007,-0.4144721,-0.4105742,-0.4074871,-0.4059279,-0.40436876,-0.40203005,-0.39657295,-0.38104367,-0.35615945,-0.32581818,-0.3009339,-0.2892714,-0.29005098,-0.29781556,-0.306391,-0.32039225,-0.340599,-0.36860156,-0.4035892,-0.4346789,-0.45956308,-0.47434396,-0.4774623,-0.4759031,-0.47122562,-0.47122562,-0.47512352,-0.48058063,-0.48444736,-0.4860065,-0.48756564,-0.48912483,-0.49068397,-0.48834527,-0.48288816,-0.4790215,-0.47980106,-0.48444736,-0.5023465,-0.53187704,-0.54743755,-0.50546485,-0.36236495,-0.110435426,0.2115004,0.5178758,0.7200681,0.76671827,0.62364936,0.29238975,-0.16407067,-0.6011039,-0.8818155,-0.9300248,-0.7791602,-0.56689584,-0.41759044,-0.3724683,-0.39657295,-0.4377972,-0.46112227,-0.46502018,-0.4587835,-0.4502393,-0.44247472,-0.43545848,-0.4315917,-0.42691422,-0.4206776,-0.41369253,-0.4059279,-0.40280962,-0.40125042,-0.39969128,-0.39504498,-0.38802874,-0.3818233,-0.3740275,-0.36548322,-0.35537988,-0.34605604,-0.33903986,-0.33436233,-0.32893646,-0.3188331,-0.30795014,-0.29706722,-0.28306592,-0.2643872,-0.24262124,-0.21695739,-0.1951915,-0.17573315,-0.15474683,-0.13142174,-0.10809672,-0.08477163,-0.062226176,-0.039649427,-0.01788354,-0.002323091,0.0070006847,0.010867357,0.0070006847,-0.002323091,-0.023340583,-0.05910784,-0.10419881,-0.15474683,-0.20373577,-0.25038582,-0.29550803,-0.33592153,-0.37094033,-0.39891165,-0.42301637,-0.4463414,-0.46966648,-0.48834527,-0.49533033,-0.4945507,-0.4922431,-0.4899044,-0.49068397,-0.49533033,-0.5007874,-0.5046853,-0.5062444,-0.50390565,-0.50000775,-0.49766904,-0.50000775,-0.5023465,-0.5023465,-0.4984486,-0.4938023,-0.4922431,-0.4922431,-0.49302274,-0.4922431,-0.4899044,-0.49068397,-0.49068397,-0.49068397,-0.48756564,-0.48444736,-0.4836678,-0.4836678,-0.4821086,-0.47668272,-0.47434396,-0.47824186,-0.4821086,-0.4821086,-0.4759031,-0.46502018,-0.45800394,-0.45722437,-0.4603427,-0.46190184,-0.46190184,-0.46346104,-0.46502018,-0.4642406,-0.46112227,-0.45800394,-0.45722437,-0.45722437,-0.4556964,-0.4517985,-0.44790053,-0.44790053,-0.45101893,-0.45491678,-0.45722437,-0.45956308,-0.46112227,-0.46190184,-0.4587835,-0.45335764,-0.44945973,-0.44868016,-0.45101893,-0.452578,-0.4517985,-0.4502393,-0.452578,-0.45491678,-0.45491678,-0.4502393,-0.44556183,-0.44403386,-0.4463414,-0.45101893,-0.45335764,-0.45335764,-0.4502393,-0.44481343,-0.436238,-0.42613465,-0.41914964,-0.4199292,-0.42769384,-0.43545848,-0.4377972,-0.43237132,-0.42145717,-0.40670753,-0.39270622,-0.3818233,-0.3724683,-0.3662628,-0.35693902,-0.33981943,-0.3172739,-0.29706722,-0.2892714,-0.2962876,-0.31571478,-0.340599,-0.37324786,-0.4082355,-0.43857676,-0.45800394,-0.46346104,-0.46112227,-0.45956308,-0.46190184,-0.4642406,-0.46579975,-0.46579975,-0.46579975,-0.46735895,-0.46966648,-0.47122562,-0.47200525,-0.47434396,-0.47512352,-0.47512352,-0.47668272,-0.49068397,-0.52021456,-0.5450988,-0.51634777,-0.3864696,-0.14308435,0.18583667,0.53499544,0.7993671,0.9113461,0.8157071,0.49610996,0.010119081,-0.4836678,-0.82272327,-0.9199214,-0.79627985,-0.5785584,-0.41135383,-0.35226154,-0.37870497,-0.43081218,-0.46346104,-0.46891809,-0.4556964,-0.44325423,-0.43857676,-0.43857676,-0.43701762,-0.42925298,-0.4206776,-0.4144721,-0.40979463,-0.40436876,-0.39579338,-0.38569003,-0.37948453,-0.3763662,-0.37324786,-0.36938113,-0.36236495,-0.35382068,-0.34449697,-0.33592153,-0.32581818,-0.31649435,-0.3087297,-0.29781556,-0.2846251,-0.26828504,-0.2511654,-0.23638457,-0.21851659,-0.1967507,-0.17108685,-0.14386392,-0.11820006,-0.09331584,-0.069211125,-0.04432696,-0.021001875,-0.00079512596,0.0163244,0.03188491,0.041988254,0.042767882,0.03110528,0.009339452,-0.021001875,-0.06066698,-0.110435426,-0.167189,-0.22472209,-0.27604967,-0.31961268,-0.35693902,-0.38958788,-0.41914964,-0.44091552,-0.45722437,-0.47200525,-0.48444736,-0.49533033,-0.50000775,-0.50000775,-0.4984486,-0.49922818,-0.5023465,-0.50390565,-0.50156695,-0.49766904,-0.4968894,-0.49766904,-0.4984486,-0.49610984,-0.4922431,-0.49068397,-0.4922431,-0.4945507,-0.4938023,-0.49302274,-0.4938023,-0.49302274,-0.49146354,-0.48756564,-0.48288816,-0.47980106,-0.4774623,-0.47434396,-0.47278482,-0.4735644,-0.47824186,-0.4821086,-0.47980106,-0.46966648,-0.46268147,-0.46112227,-0.46346104,-0.46502018,-0.46268147,-0.4587835,-0.45800394,-0.4603427,-0.46346104,-0.46346104,-0.46112227,-0.45956308,-0.45722437,-0.45335764,-0.44945973,-0.44712102,-0.44945973,-0.452578,-0.4541372,-0.45335764,-0.45101893,-0.452578,-0.45335764,-0.45335764,-0.4502393,-0.44868016,-0.4517985,-0.45647597,-0.4587835,-0.4556964,-0.4517985,-0.452578,-0.45722437,-0.45956308,-0.4541372,-0.44790053,-0.44325423,-0.44247472,-0.44712102,-0.44868016,-0.44868016,-0.44945973,-0.4502393,-0.4502393,-0.4463414,-0.44247472,-0.44013596,-0.4393564,-0.44013596,-0.4416951,-0.44325423,-0.44712102,-0.44945973,-0.44790053,-0.44403386,-0.4416951,-0.44247472,-0.44325423,-0.44247472,-0.4377972,-0.43389928,-0.43545848,-0.4377972,-0.436238,-0.42925298,-0.41914964,-0.4121334,-0.4105742,-0.41525167,-0.41914964,-0.42301637,-0.4206776,-0.41291296,-0.3981321,-0.3818233,-0.37094033,-0.36470366,-0.35924655,-0.3468045,-0.32659775,-0.30561143,-0.2892714,-0.28228635,-0.2892714,-0.30561143,-0.33127517,-0.3662628,-0.40047085,-0.4284734,-0.44403386,-0.45101893,-0.45101893,-0.44712102,-0.44325423,-0.44325423,-0.44868016,-0.4556964,-0.46112227,-0.46112227,-0.4587835,-0.4587835,-0.4642406,-0.47122562,-0.47278482,-0.47122562,-0.47278482,-0.48834527,-0.5171274,-0.53265667,-0.4836678,-0.32737732,-0.056769073,0.29391778,0.6415174,0.88259506,0.94945204,0.7916024,0.416811,-0.09331584,-0.57154214,-0.87015295,-0.9238193,-0.7698364,-0.5505558,-0.39735252,-0.35615945,-0.39114708,-0.4393564,-0.46502018,-0.4603427,-0.44481343,-0.43389928,-0.43003255,-0.42769384,-0.42301637,-0.41914964,-0.41759044,-0.4144721,-0.4074871,-0.39504498,-0.3849104,-0.37948453,-0.37558657,-0.37094033,-0.36470366,-0.35924655,-0.35771865,-0.35615945,-0.3514819,-0.34137863,-0.32893646,-0.31805354,-0.30561143,-0.2908305,-0.2729314,-0.25584292,-0.24184167,-0.2270608,-0.21075195,-0.18817532,-0.16329104,-0.13762724,-0.11430216,-0.09019756,-0.06453371,-0.039649427,-0.01788354,0.00076401234,0.0163244,0.027987003,0.03188491,0.027987003,0.014765263,-0.0070005655,-0.037341893,-0.07697582,-0.1259647,-0.18041068,-0.23017907,-0.2752701,-0.3172739,-0.35537988,-0.3903675,-0.41914964,-0.44013596,-0.45647597,-0.46966648,-0.48058063,-0.48678607,-0.49146354,-0.4968894,-0.50312614,-0.5069928,-0.51011115,-0.5093316,-0.50777245,-0.5069928,-0.5062444,-0.5046853,-0.5007874,-0.49922818,-0.50000775,-0.5007874,-0.50156695,-0.50000775,-0.49766904,-0.49533033,-0.49302274,-0.4899044,-0.48912483,-0.49146354,-0.49533033,-0.49766904,-0.49533033,-0.48756564,-0.48058063,-0.4790215,-0.4813602,-0.4836678,-0.4836678,-0.47980106,-0.47512352,-0.47122562,-0.47044605,-0.46735895,-0.4642406,-0.46346104,-0.46346104,-0.46346104,-0.46346104,-0.46346104,-0.46346104,-0.4603427,-0.45647597,-0.4517985,-0.4502393,-0.4541372,-0.45722437,-0.45800394,-0.45491678,-0.452578,-0.4556964,-0.4587835,-0.46112227,-0.45722437,-0.44945973,-0.44247472,-0.44013596,-0.4416951,-0.4502393,-0.45956308,-0.46891809,-0.4735644,-0.47200525,-0.46813852,-0.46268147,-0.4603427,-0.45647597,-0.45491678,-0.452578,-0.4517985,-0.45491678,-0.4541372,-0.4517985,-0.44556183,-0.44091552,-0.4416951,-0.44403386,-0.4463414,-0.4463414,-0.44325423,-0.4416951,-0.44013596,-0.4393564,-0.44013596,-0.44325423,-0.4463414,-0.4463414,-0.44325423,-0.4346789,-0.4284734,-0.42769384,-0.42691422,-0.42691422,-0.42691422,-0.42769384,-0.43237132,-0.43545848,-0.42925298,-0.4121334,-0.39192665,-0.37792534,-0.37016076,-0.36704242,-0.35460025,-0.3351419,-0.313376,-0.29394883,-0.28771222,-0.29706722,-0.31571478,-0.34758407,-0.38335127,-0.41681087,-0.4416951,-0.45335764,-0.45722437,-0.45335764,-0.44556183,-0.4393564,-0.44013596,-0.44556183,-0.4517985,-0.45722437,-0.4587835,-0.4603427,-0.46657932,-0.47200525,-0.47278482,-0.46813852,-0.46346104,-0.46502018,-0.48058063,-0.50546485,-0.5046853,-0.4331197,-0.26048923,0.0054415464,0.3141557,0.57388103,0.7169497,0.6998613,0.4968896,0.12440562,-0.32737732,-0.71464205,-0.91836226,-0.89581674,-0.7130829,-0.50777245,-0.3826028,-0.35615945,-0.3888083,-0.43081218,-0.4517985,-0.4517985,-0.44091552,-0.42613465,-0.41681087,-0.4105742,-0.4082355,-0.4074871,-0.40436876,-0.39735252,-0.3888083,-0.3818233,-0.3818233,-0.38413084,-0.38413084,-0.37792534,-0.36860156,-0.35849822,-0.34992284,-0.34293777,-0.3351419,-0.32659775,-0.32039225,-0.31415558,-0.30483186,-0.2908305,-0.2729314,-0.25584292,-0.23716414,-0.22007579,-0.201397,-0.18274939,-0.1656298,-0.14542305,-0.1228776,-0.097993314,-0.07466823,-0.056769073,-0.041208625,-0.02567935,-0.0077801347,0.006221175,0.010867357,0.0046619177,-0.01167804,-0.03812152,-0.07388866,-0.11897963,-0.16640937,-0.21227998,-0.25584292,-0.29781556,-0.33981943,-0.37714577,-0.40670753,-0.42691422,-0.4416951,-0.4556964,-0.46966648,-0.4821086,-0.49068397,-0.4968894,-0.5007874,-0.50156695,-0.4984486,-0.4945507,-0.49302274,-0.4938023,-0.49610984,-0.49766904,-0.49610984,-0.49610984,-0.49922818,-0.50156695,-0.50156695,-0.4984486,-0.49610984,-0.49766904,-0.50000775,-0.5007874,-0.4968894,-0.49146354,-0.48912483,-0.48834527,-0.48678607,-0.4836678,-0.48058063,-0.48058063,-0.4790215,-0.47668272,-0.4735644,-0.46966648,-0.46735895,-0.46735895,-0.46579975,-0.4603427,-0.45647597,-0.45335764,-0.45101893,-0.4502393,-0.4502393,-0.44945973,-0.4517985,-0.4517985,-0.4502393,-0.44556183,-0.4416951,-0.44091552,-0.4416951,-0.44325423,-0.44403386,-0.44247472,-0.44247472,-0.4416951,-0.44091552,-0.4393564,-0.43857676,-0.44091552,-0.44247472,-0.44247472,-0.44013596,-0.4393564,-0.44247472,-0.44481343,-0.44481343,-0.44325423,-0.4393564,-0.4393564,-0.4393564,-0.43857676,-0.43701762,-0.43545848,-0.43701762,-0.4393564,-0.43857676,-0.43545848,-0.43237132,-0.4331197,-0.43545848,-0.436238,-0.43545848,-0.4331197,-0.43081218,-0.42691422,-0.41914964,-0.41135383,-0.4074871,-0.41291296,-0.42301637,-0.43003255,-0.42769384,-0.4199292,-0.40901506,-0.39579338,-0.3826028,-0.36860156,-0.35615945,-0.34449697,-0.33283436,-0.3172739,-0.29937476,-0.28693265,-0.28693265,-0.29781556,-0.31805354,-0.3468045,-0.38335127,-0.42145717,-0.4502393,-0.46502018,-0.4642406,-0.45722437,-0.4517985,-0.44945973,-0.45101893,-0.452578,-0.4556964,-0.46190184,-0.46579975,-0.46657932,-0.4642406,-0.46190184,-0.46268147,-0.4642406,-0.46502018,-0.47200525,-0.49533033,-0.52099407,-0.50546485,-0.40203005,-0.18817532,0.11352265,0.4377973,0.6874192,0.8040445,0.74183404,0.48366773,0.060635805,-0.40203005,-0.75271684,-0.89269847,-0.8118403,-0.6143255,-0.44091552,-0.36314452,-0.36938113,-0.40979463,-0.44325423,-0.45335764,-0.44868016,-0.43701762,-0.42613465,-0.41914964,-0.4144721,-0.4105742,-0.4059279,-0.40203005,-0.3981321,-0.39348578,-0.3888083,-0.38335127,-0.37948453,-0.37792534,-0.3740275,-0.367822,-0.35693902,-0.3468045,-0.340599,-0.3351419,-0.32971603,-0.32117188,-0.31259644,-0.30171353,-0.2892714,-0.2737109,-0.25428373,-0.23638457,-0.22085536,-0.201397,-0.17963105,-0.15240812,-0.12674433,-0.10575795,-0.08633077,-0.06453371,-0.039649427,-0.015544891,0.0023231506,0.015544891,0.02330947,0.025648236,0.020222425,0.0023231506,-0.02567935,-0.06375414,-0.10731715,-0.15630597,-0.20997232,-0.26048923,-0.30561143,-0.34293777,-0.37324786,-0.40203005,-0.4284734,-0.4517985,-0.46891809,-0.4813602,-0.4899044,-0.49533033,-0.49766904,-0.4984486,-0.5007874,-0.5046853,-0.50855196,-0.50855196,-0.5046853,-0.50000775,-0.4984486,-0.49610984,-0.49533033,-0.4922431,-0.4899044,-0.49068397,-0.49302274,-0.4945507,-0.4945507,-0.49533033,-0.49766904,-0.49766904,-0.4945507,-0.48834527,-0.48288816,-0.48058063,-0.48288816,-0.48444736,-0.4821086,-0.4790215,-0.47668272,-0.4735644,-0.47200525,-0.46966648,-0.46813852,-0.46891809,-0.47044605,-0.46891809,-0.46579975,-0.46112227,-0.45956308,-0.4587835,-0.45800394,-0.45647597,-0.45491678,-0.4541372,-0.4517985,-0.44790053,-0.44247472,-0.43857676,-0.44013596,-0.4416951,-0.44247472,-0.44091552,-0.44247472,-0.4463414,-0.44790053,-0.44712102,-0.4416951,-0.43701762,-0.4393564,-0.44325423,-0.44556183,-0.44556183,-0.44481343,-0.44556183,-0.4463414,-0.44556183,-0.4416951,-0.4393564,-0.44091552,-0.44325423,-0.44403386,-0.44247472,-0.4377972,-0.43701762,-0.43701762,-0.436238,-0.43545848,-0.43389928,-0.4346789,-0.43701762,-0.4377972,-0.43545848,-0.43003255,-0.42223674,-0.4144721,-0.4082355,-0.40901506,-0.4160313,-0.42613465,-0.42925298,-0.4245755,-0.4121334,-0.39735252,-0.3864696,-0.37558657,-0.36314452,-0.3468045,-0.32737732,-0.30795014,-0.28849185,-0.2729314,-0.2690646,-0.27838844,-0.3024931,-0.33592153,-0.37324786,-0.4082355,-0.43389928,-0.4502393,-0.45647597,-0.4541372,-0.4502393,-0.44945973,-0.4541372,-0.4603427,-0.46502018,-0.46735895,-0.47044605,-0.4735644,-0.4759031,-0.47668272,-0.4735644,-0.47122562,-0.4735644,-0.48288816,-0.50546485,-0.5365546,-0.54279125,-0.47668272,-0.29781556,-0.008559704,0.35148203,0.6835213,0.8911394,0.91368484,0.7169497,0.31103742,-0.201397,-0.6493132,-0.89737594,-0.8965964,-0.7123034,-0.49766904,-0.37480706,-0.35849822,-0.40203005,-0.44790053,-0.46813852,-0.46735895,-0.45647597,-0.44481343,-0.43389928,-0.42613465,-0.42145717,-0.41837007,-0.41525167,-0.4105742,-0.40670753,-0.40514833,-0.40203005,-0.39735252,-0.3864696,-0.37480706,-0.36938113,-0.367822,-0.3662628,-0.36158532,-0.35226154,-0.33826023,-0.32269984,-0.306391,-0.29316926,-0.28306592,-0.2752701,-0.2675054,-0.25350416,-0.23407704,-0.2115004,-0.19051397,-0.16796857,-0.14074558,-0.110435426,-0.0816533,-0.055989444,-0.033444047,-0.013237238,0.008559823,0.026427865,0.03731084,0.041208744,0.03731084,0.024089098,-1.5556812e-05,-0.035782754,-0.083212495,-0.13454008,-0.18430859,-0.2348566,-0.28228635,-0.32659775,-0.36548322,-0.39657295,-0.42223674,-0.44481343,-0.4642406,-0.47980106,-0.4922431,-0.49922818,-0.5046853,-0.5069928,-0.50777245,-0.5062444,-0.5062444,-0.5062444,-0.50546485,-0.5046853,-0.5023465,-0.5023465,-0.50777245,-0.5132295,-0.5124499,-0.50777245,-0.5007874,-0.49610984,-0.4968894,-0.49922818,-0.50000775,-0.49922818,-0.4984486,-0.4984486,-0.49610984,-0.49146354,-0.48678607,-0.4860065,-0.48756564,-0.48912483,-0.48678607,-0.48288816,-0.4790215,-0.4774623,-0.47512352,-0.4735644,-0.47200525,-0.46891809,-0.46735895,-0.4642406,-0.46190184,-0.4603427,-0.46346104,-0.46657932,-0.46735895,-0.46268147,-0.45722437,-0.4541372,-0.452578,-0.45491678,-0.45647597,-0.45722437,-0.45800394,-0.45647597,-0.4556964,-0.45647597,-0.45800394,-0.4587835,-0.45722437,-0.4517985,-0.44556183,-0.44403386,-0.44868016,-0.452578,-0.452578,-0.44868016,-0.44481343,-0.44403386,-0.44403386,-0.44325423,-0.44091552,-0.4393564,-0.4416951,-0.44556183,-0.44712102,-0.44712102,-0.44790053,-0.44712102,-0.44403386,-0.44013596,-0.43389928,-0.43237132,-0.43701762,-0.44247472,-0.44481343,-0.44403386,-0.43857676,-0.43237132,-0.42691422,-0.42145717,-0.4206776,-0.42535508,-0.43081218,-0.43237132,-0.42613465,-0.41291296,-0.39891165,-0.39114708,-0.3849104,-0.37870497,-0.36704242,-0.3507024,-0.33361393,-0.31571478,-0.30171353,-0.29859513,-0.3087297,-0.3304956,-0.36080575,-0.39426535,-0.42223674,-0.44325423,-0.4556964,-0.4587835,-0.4541372,-0.44945973,-0.44712102,-0.4502393,-0.452578,-0.45491678,-0.4603427,-0.46735895,-0.47278482,-0.4759031,-0.47278482,-0.4642406,-0.4603427,-0.46268147,-0.47122562,-0.49302274,-0.51634777,-0.50546485,-0.4160313,-0.21851659,0.06765211,0.3856901,0.6407379,0.7674978,0.7231864,0.4891249,0.08399212,-0.3872491,-0.7698364,-0.9448056,-0.888021,-0.6858599,-0.48522693,-0.3802641,-0.36938113,-0.40280962,-0.43389928,-0.44712102,-0.44790053,-0.4393564,-0.4315917,-0.42379594,-0.41759044,-0.4160313,-0.4160313,-0.41291296,-0.40670753,-0.39969128,-0.39426535,-0.38958788,-0.3826028,-0.3763662,-0.3724683,-0.36938113,-0.36704242,-0.36158532,-0.3514819,-0.340599,-0.32971603,-0.3188331,-0.306391,-0.29394883,-0.28306592,-0.27604967,-0.26828504,-0.25506335,-0.23872334,-0.21773702,-0.19597107,-0.17108685,-0.14386392,-0.11352253,-0.08633077,-0.06531328,-0.047445297,-0.03188491,-0.015544891,-0.002323091,0.0054415464,0.006221175,0.0023231506,-0.010118902,-0.035782754,-0.07310909,-0.11897963,-0.16874814,-0.21851659,-0.2667259,-0.31259644,-0.3530411,-0.3826028,-0.40514833,-0.42535508,-0.44712102,-0.46657932,-0.48058063,-0.4899044,-0.49302274,-0.4984486,-0.5023465,-0.50390565,-0.5023465,-0.50000775,-0.49922818,-0.5007874,-0.5007874,-0.4984486,-0.49533033,-0.49533033,-0.4968894,-0.4984486,-0.50000775,-0.50000775,-0.49922818,-0.49922818,-0.4984486,-0.49766904,-0.49610984,-0.49766904,-0.49766904,-0.4938023,-0.48912483,-0.4821086,-0.4790215,-0.47980106,-0.4813602,-0.48522693,-0.48756564,-0.48756564,-0.48522693,-0.4790215,-0.4735644,-0.46966648,-0.46891809,-0.46813852,-0.46735895,-0.46346104,-0.4587835,-0.45800394,-0.45722437,-0.45800394,-0.4587835,-0.45956308,-0.46268147,-0.46657932,-0.46579975,-0.46502018,-0.46346104,-0.46268147,-0.46268147,-0.4603427,-0.45647597,-0.45491678,-0.45722437,-0.46190184,-0.46579975,-0.46346104,-0.45956308,-0.45800394,-0.45722437,-0.45722437,-0.4587835,-0.4603427,-0.46268147,-0.4642406,-0.46190184,-0.4587835,-0.4556964,-0.4556964,-0.4556964,-0.45491678,-0.45101893,-0.44325423,-0.4346789,-0.42301637,-0.41291296,-0.4082355,-0.4035892,-0.40670753,-0.4105742,-0.41525167,-0.41837007,-0.41914964,-0.40979463,-0.3864696,-0.35460025,-0.3234794,-0.30483186,-0.30483186,-0.3172739,-0.32815695,-0.33592153,-0.34371734,-0.35849822,-0.3818233,-0.4121334,-0.44013596,-0.46190184,-0.4790215,-0.48522693,-0.4836678,-0.4790215,-0.4759031,-0.4759031,-0.4790215,-0.4813602,-0.48522693,-0.4899044,-0.49533033,-0.5007874,-0.50156695,-0.4984486,-0.4945507,-0.4945507,-0.50546485,-0.5295695,-0.55211496,-0.5303491,-0.41914964,-0.1998378,0.103419304,0.41911852,0.65009284,0.7402749,0.64931333,0.37558675,-0.04588616,-0.49068397,-0.8164866,-0.931584,-0.83360624,-0.62910646,-0.4587835,-0.38802874,-0.39735252,-0.43701762,-0.46268147,-0.46657932,-0.4587835,-0.4502393,-0.44325423,-0.44091552,-0.4416951,-0.44247472,-0.44091552,-0.4346789,-0.42379594,-0.41369253,-0.40670753,-0.40047085,-0.39579338,-0.39114708,-0.3864696,-0.3849104,-0.37948453,-0.3724683,-0.3639241,-0.35693902,-0.3507024,-0.34449697,-0.3320548,-0.31571478,-0.29859513,-0.2853735,-0.27449048,-0.25974083,-0.24262124,-0.22085536,-0.1998378,-0.17807192,-0.15474683,-0.13064218,-0.10497838,-0.0816533,-0.05910784,-0.037341893,-0.020222306,-0.010118902,-0.0077801347,-0.009339333,-0.01710397,-0.033444047,-0.05988741,-0.09955251,-0.14464349,-0.1912936,-0.23872334,-0.28615308,-0.33361393,-0.37324786,-0.40436876,-0.42691422,-0.4463414,-0.46502018,-0.4813602,-0.4938023,-0.5007874,-0.5062444,-0.51167035,-0.51790696,-0.5194349,-0.5194349,-0.51790696,-0.51790696,-0.51868653,-0.5171274,-0.5132295,-0.51011115,-0.51011115,-0.5124499,-0.5147886,-0.51400906,-0.5124499,-0.51167035,-0.5093316,-0.5069928,-0.50546485,-0.50546485,-0.50855196,-0.5093316,-0.5062444,-0.50156695,-0.4984486,-0.49922818,-0.50156695,-0.50312614,-0.5023465,-0.50000775,-0.50000775,-0.50000775,-0.49533033,-0.4899044,-0.4836678,-0.4821086,-0.4813602,-0.4821086,-0.4821086,-0.47824186,-0.4759031,-0.4735644,-0.47122562,-0.46891809,-0.46891809,-0.47200525,-0.47434396,-0.4735644,-0.46891809,-0.4642406,-0.46190184,-0.4642406,-0.46579975,-0.46579975,-0.4642406,-0.4642406,-0.4642406,-0.46190184,-0.4603427,-0.46112227,-0.46346104,-0.46579975,-0.46579975,-0.46190184,-0.45956308,-0.45956308,-0.4587835,-0.4587835,-0.45722437,-0.4556964,-0.45647597,-0.4556964,-0.45335764,-0.4517985,-0.4502393,-0.44868016,-0.44247472,-0.4346789,-0.4245755,-0.42223674,-0.42613465,-0.42925298,-0.42613465,-0.41759044,-0.4059279,-0.39891165,-0.39426535,-0.38569003,-0.3662628,-0.340599,-0.3172739,-0.29937476,-0.29005098,-0.29005098,-0.29937476,-0.3172739,-0.340599,-0.367822,-0.39891165,-0.43003255,-0.4587835,-0.47824186,-0.4860065,-0.48288816,-0.4774623,-0.4735644,-0.47278482,-0.47512352,-0.4774623,-0.4821086,-0.48756564,-0.49068397,-0.4922431,-0.4938023,-0.49533033,-0.49610984,-0.4945507,-0.49533033,-0.50777245,-0.5381137,-0.56221837,-0.5256716,-0.3802641,-0.11508173,0.23560512,0.58320475,0.8281492,0.9066998,0.7706162,0.41911852,-0.08009416,-0.56065917,-0.8724917,-0.93704104,-0.78929484,-0.5731013,-0.4199292,-0.37480706,-0.40436876,-0.45101893,-0.47980106,-0.4860065,-0.4774623,-0.4642406,-0.45491678,-0.4517985,-0.44790053,-0.44247472,-0.43545848,-0.42691422,-0.42301637,-0.41681087,-0.40979463,-0.4035892,-0.39969128,-0.39735252,-0.39270622,-0.3818233,-0.36704242,-0.35537988,-0.3507024,-0.3468045,-0.340599,-0.3304956,-0.31805354,-0.30483186,-0.29005098,-0.2752701,-0.25896126,-0.24262124,-0.22550166,-0.20451534,-0.17885149,-0.15084898,-0.1228776,-0.097213745,-0.07154989,-0.046665728,-0.022561073,-0.0015747547,0.013206124,0.024089098,0.03188491,0.03188491,0.024089098,0.0023231506,-0.03188491,-0.07466823,-0.12209797,-0.17342561,-0.22784042,-0.2807272,-0.3250386,-0.36158532,-0.39270622,-0.4206776,-0.44556183,-0.46579975,-0.47980106,-0.4899044,-0.49922818,-0.5069928,-0.5093316,-0.5069928,-0.50390565,-0.50390565,-0.5062444,-0.50777245,-0.5069928,-0.5069928,-0.5093316,-0.51167035,-0.51400906,-0.5108907,-0.5069928,-0.50390565,-0.50390565,-0.50312614,-0.50000775,-0.49766904,-0.4945507,-0.4938023,-0.49302274,-0.49146354,-0.49146354,-0.4938023,-0.4945507,-0.4945507,-0.49068397,-0.48834527,-0.48912483,-0.48756564,-0.4836678,-0.47668272,-0.46966648,-0.46891809,-0.47122562,-0.47278482,-0.47122562,-0.46657932,-0.46346104,-0.46346104,-0.46502018,-0.46813852,-0.46966648,-0.47122562,-0.47044605,-0.46813852,-0.46657932,-0.4642406,-0.46346104,-0.46190184,-0.4587835,-0.4556964,-0.45491678,-0.4603427,-0.46657932,-0.46735895,-0.46346104,-0.45800394,-0.4556964,-0.4587835,-0.46346104,-0.46502018,-0.46268147,-0.4603427,-0.45800394,-0.45491678,-0.452578,-0.4517985,-0.4541372,-0.4556964,-0.45491678,-0.452578,-0.4517985,-0.4541372,-0.45647597,-0.4556964,-0.44945973,-0.44325423,-0.44091552,-0.44403386,-0.44868016,-0.4463414,-0.44013596,-0.43237132,-0.42301637,-0.41681087,-0.41525167,-0.4206776,-0.4284734,-0.4346789,-0.43081218,-0.4199292,-0.40514833,-0.39426535,-0.3872491,-0.37870497,-0.36704242,-0.35226154,-0.33592153,-0.3172739,-0.29859513,-0.28771222,-0.29161012,-0.30947816,-0.3367011,-0.36938113,-0.4035892,-0.43237132,-0.45101893,-0.4587835,-0.45722437,-0.452578,-0.45335764,-0.45800394,-0.46190184,-0.46268147,-0.46268147,-0.46502018,-0.46966648,-0.4735644,-0.4735644,-0.47044605,-0.46813852,-0.46735895,-0.47122562,-0.4821086,-0.5062444,-0.53187704,-0.51556826,-0.4074871,-0.18119025,0.14074564,0.49068403,0.76671827,0.89890397,0.83360636,0.5528635,0.09097707,-0.41681087,-0.8024853,-0.9525703,-0.86160874,-0.6415486,-0.44556183,-0.35615945,-0.36158532,-0.4074871,-0.44945973,-0.46657932,-0.46268147,-0.44556183,-0.4245755,-0.40901506,-0.40125042,-0.39969128,-0.40047085,-0.39735252,-0.39348578,-0.3903675,-0.3864696,-0.38104367,-0.3763662,-0.37094033,-0.36704242,-0.36314452,-0.35460025,-0.34527653,-0.33361393,-0.32425898,-0.31649435,-0.30717063,-0.29859513,-0.2908305,-0.28384554,-0.2729314,-0.25506335,-0.23017907,-0.20763361,-0.1897344,-0.16874814,-0.14464349,-0.11508173,-0.08477163,-0.061446548,-0.041988194,-0.021781504,-0.002323091,0.015544891,0.024868727,0.024089098,0.021001935,0.012426496,-0.004661858,-0.032664478,-0.069211125,-0.11430216,-0.16251147,-0.21227998,-0.26204842,-0.3087297,-0.34527653,-0.37714577,-0.4059279,-0.43389928,-0.4587835,-0.47434396,-0.4836678,-0.48912483,-0.49610984,-0.5023465,-0.5062444,-0.50777245,-0.5093316,-0.5132295,-0.51634777,-0.51556826,-0.50855196,-0.50312614,-0.5023465,-0.50390565,-0.5062444,-0.50546485,-0.5007874,-0.4984486,-0.4945507,-0.49146354,-0.4899044,-0.4899044,-0.49302274,-0.49533033,-0.4922431,-0.48834527,-0.48678607,-0.4860065,-0.48444736,-0.48288816,-0.47512352,-0.47044605,-0.46966648,-0.46735895,-0.46346104,-0.46112227,-0.4603427,-0.46346104,-0.46735895,-0.46735895,-0.4642406,-0.46268147,-0.46112227,-0.45956308,-0.45722437,-0.4541372,-0.45491678,-0.4603427,-0.46268147,-0.46112227,-0.45722437,-0.45335764,-0.4556964,-0.45956308,-0.4603427,-0.45800394,-0.4556964,-0.45722437,-0.46112227,-0.46579975,-0.46657932,-0.4642406,-0.46190184,-0.45800394,-0.4541372,-0.4502393,-0.44790053,-0.44945973,-0.452578,-0.45335764,-0.45101893,-0.45101893,-0.4517985,-0.45491678,-0.45722437,-0.45722437,-0.4556964,-0.4541372,-0.45101893,-0.44556183,-0.44325423,-0.44481343,-0.4517985,-0.45722437,-0.45647597,-0.45101893,-0.44481343,-0.44013596,-0.43701762,-0.43545848,-0.4377972,-0.44091552,-0.44790053,-0.44868016,-0.4393564,-0.42145717,-0.40047085,-0.3864696,-0.37558657,-0.36704242,-0.35537988,-0.340599,-0.32737732,-0.31493515,-0.31025773,-0.31415558,-0.32737732,-0.3507024,-0.38104367,-0.40979463,-0.43389928,-0.452578,-0.46579975,-0.47044605,-0.46891809,-0.46190184,-0.4556964,-0.45647597,-0.46190184,-0.46657932,-0.46891809,-0.46891809,-0.46891809,-0.46891809,-0.47122562,-0.47122562,-0.47122562,-0.47434396,-0.4860065,-0.50855196,-0.51790696,-0.4735644,-0.3367011,-0.09955251,0.20061743,0.48444736,0.66796076,0.7045076,0.5622184,0.24418044,-0.19207317,-0.6096481,-0.8779176,-0.92459893,-0.78149897,-0.5738809,-0.42301637,-0.37480706,-0.39579338,-0.43701762,-0.4642406,-0.47200525,-0.46891809,-0.45647597,-0.44556183,-0.43701762,-0.43237132,-0.42925298,-0.42535508,-0.41759044,-0.40670753,-0.39969128,-0.39969128,-0.40125042,-0.39891165,-0.39270622,-0.38335127,-0.37558657,-0.36860156,-0.36236495,-0.35460025,-0.34527653,-0.3367011,-0.32815695,-0.31805354,-0.306391,-0.29394883,-0.28306592,-0.2690646,-0.25194502,-0.22862,-0.20373577,-0.18041068,-0.15786517,-0.13454008,-0.110435426,-0.087858796,-0.069990754,-0.053650737,-0.037341893,-0.021781504,-0.010898471,-0.010898471,-0.018663108,-0.029546142,-0.047445297,-0.07310909,-0.110435426,-0.1570856,-0.20763361,-0.25506335,-0.29781556,-0.33981943,-0.37714577,-0.4082355,-0.4331197,-0.4517985,-0.46657932,-0.4790215,-0.48756564,-0.4945507,-0.5007874,-0.5062444,-0.5093316,-0.5093316,-0.50777245,-0.5069928,-0.5108907,-0.5132295,-0.5108907,-0.5046853,-0.5007874,-0.50156695,-0.50546485,-0.5062444,-0.50312614,-0.4968894,-0.49610984,-0.4984486,-0.50312614,-0.50390565,-0.50312614,-0.50000775,-0.49610984,-0.4922431,-0.48912483,-0.48756564,-0.48912483,-0.48912483,-0.48756564,-0.4860065,-0.48444736,-0.4821086,-0.47980106,-0.47278482,-0.46346104,-0.45956308,-0.46190184,-0.46657932,-0.46813852,-0.46657932,-0.4642406,-0.46346104,-0.46346104,-0.46346104,-0.46112227,-0.4587835,-0.46112227,-0.46190184,-0.4603427,-0.45722437,-0.45491678,-0.4556964,-0.4556964,-0.45491678,-0.452578,-0.45101893,-0.452578,-0.4541372,-0.45491678,-0.4541372,-0.45491678,-0.4587835,-0.4603427,-0.46112227,-0.45956308,-0.45800394,-0.4587835,-0.45956308,-0.46190184,-0.46268147,-0.46268147,-0.46346104,-0.46190184,-0.45800394,-0.4517985,-0.4502393,-0.4517985,-0.452578,-0.44868016,-0.43857676,-0.42769384,-0.4199292,-0.4160313,-0.4160313,-0.41291296,-0.4105742,-0.4121334,-0.4121334,-0.40670753,-0.39579338,-0.37558657,-0.35226154,-0.32971603,-0.30947816,-0.29472846,-0.29005098,-0.29706722,-0.31025773,-0.32893646,-0.34836364,-0.37094033,-0.39969128,-0.43003255,-0.4556964,-0.47200525,-0.4813602,-0.4860065,-0.48678607,-0.48756564,-0.48756564,-0.48678607,-0.48834527,-0.49146354,-0.49302274,-0.4945507,-0.49766904,-0.50156695,-0.50312614,-0.50156695,-0.49922818,-0.5023465,-0.52021456,-0.5528946,-0.57154214,-0.52801037,-0.38104367,-0.1228776,0.21539831,0.55520225,0.792382,0.86547554,0.7278327,0.38335133,-0.09955251,-0.56065917,-0.8600496,-0.92459893,-0.78383774,-0.5731013,-0.42223674,-0.37948453,-0.41135383,-0.45800394,-0.48444736,-0.48444736,-0.47434396,-0.46657932,-0.46190184,-0.4556964,-0.44790053,-0.4393564,-0.43389928,-0.4315917,-0.42769384,-0.42145717,-0.41291296,-0.4059279,-0.39891165,-0.39504498,-0.3888083,-0.3818233,-0.37792534,-0.3724683,-0.36470366,-0.35226154,-0.33748066,-0.3250386,-0.31493515,-0.30561143,-0.29316926,-0.279168,-0.2643872,-0.24729878,-0.22628123,-0.20373577,-0.18119025,-0.1609835,-0.13996595,-0.11430216,-0.08633077,-0.05910784,-0.036562324,-0.01788354,0.00076401234,0.018663168,0.03110528,0.03266442,0.021781564,-1.5556812e-05,-0.033444047,-0.07775539,-0.12986255,-0.18430859,-0.23716414,-0.2846251,-0.32425898,-0.36236495,-0.39504498,-0.42145717,-0.44325423,-0.4603427,-0.4759031,-0.4899044,-0.5007874,-0.50777245,-0.5108907,-0.5147886,-0.51556826,-0.5171274,-0.51634777,-0.5132295,-0.51400906,-0.5147886,-0.51400906,-0.5132295,-0.5124499,-0.51167035,-0.5093316,-0.50546485,-0.5007874,-0.4984486,-0.49922818,-0.49922818,-0.4968894,-0.49146354,-0.48678607,-0.48678607,-0.48834527,-0.49068397,-0.4899044,-0.48834527,-0.48834527,-0.48756564,-0.48834527,-0.4860065,-0.48288816,-0.4813602,-0.47980106,-0.47668272,-0.47278482,-0.46966648,-0.46891809,-0.46813852,-0.46813852,-0.46657932,-0.46579975,-0.46735895,-0.46891809,-0.46735895,-0.46346104,-0.46190184,-0.4642406,-0.46579975,-0.46579975,-0.45956308,-0.4541372,-0.4541372,-0.45800394,-0.46346104,-0.46657932,-0.46502018,-0.4642406,-0.46190184,-0.46112227,-0.46346104,-0.46579975,-0.46735895,-0.46735895,-0.46579975,-0.4642406,-0.46346104,-0.46579975,-0.46657932,-0.46268147,-0.45491678,-0.44868016,-0.44712102,-0.4502393,-0.4556964,-0.45800394,-0.4603427,-0.4603427,-0.4603427,-0.45956308,-0.4556964,-0.44945973,-0.4463414,-0.4416951,-0.436238,-0.43003255,-0.4284734,-0.4284734,-0.43237132,-0.436238,-0.43701762,-0.4315917,-0.42301637,-0.41135383,-0.39891165,-0.38802874,-0.3802641,-0.37016076,-0.35382068,-0.3320548,-0.30947816,-0.29161012,-0.2846251,-0.2892714,-0.30327266,-0.3234794,-0.34992284,-0.3818233,-0.41291296,-0.43857676,-0.4556964,-0.46190184,-0.4642406,-0.4642406,-0.46502018,-0.46891809,-0.47200525,-0.4735644,-0.4735644,-0.47200525,-0.47044605,-0.46966648,-0.47278482,-0.47434396,-0.4735644,-0.4735644,-0.4790215,-0.49766904,-0.53265667,-0.5536741,-0.51400906,-0.36860156,-0.10887635,0.23638475,0.58632314,0.83825254,0.9237882,0.79082274,0.43935657,-0.06066698,-0.54743755,-0.8670346,-0.9409078,-0.7993982,-0.5769992,-0.4144721,-0.36236495,-0.3903675,-0.4377972,-0.46346104,-0.46112227,-0.44790053,-0.4393564,-0.4377972,-0.43701762,-0.4331197,-0.42535508,-0.41914964,-0.41369253,-0.4105742,-0.4059279,-0.40203005,-0.39891165,-0.39657295,-0.39114708,-0.38335127,-0.37558657,-0.367822,-0.36002618,-0.3514819,-0.33981943,-0.32893646,-0.31961268,-0.31025773,-0.29859513,-0.2846251,-0.26828504,-0.25194502,-0.23329741,-0.21305948,-0.1897344,-0.16796857,-0.14854133,-0.12986255,-0.10731715,-0.07931453,-0.049784005,-0.024120152,-0.004661858,0.009339452,0.020222425,0.024868727,0.021781564,0.010119081,-0.010898471,-0.040429056,-0.07931453,-0.13064218,-0.18739575,-0.2410621,-0.28849185,-0.32581818,-0.36158532,-0.39426535,-0.42223674,-0.44481343,-0.4603427,-0.47278482,-0.4821086,-0.48912483,-0.49533033,-0.50390565,-0.5132295,-0.52255327,-0.52723074,-0.52333283,-0.51634777,-0.5108907,-0.5062444,-0.50312614,-0.50546485,-0.50777245,-0.5108907,-0.5124499,-0.5093316,-0.50312614,-0.5007874,-0.50156695,-0.5046853,-0.50390565,-0.49922818,-0.49533033,-0.49610984,-0.49922818,-0.50000775,-0.49922818,-0.4945507,-0.4922431,-0.49146354,-0.48834527,-0.4836678,-0.48058063,-0.4790215,-0.4774623,-0.47434396,-0.47122562,-0.47044605,-0.4759031,-0.4774623,-0.47512352,-0.46657932,-0.4587835,-0.45647597,-0.45647597,-0.45647597,-0.45335764,-0.45101893,-0.452578,-0.45491678,-0.4541372,-0.4502393,-0.4463414,-0.44556183,-0.44868016,-0.4517985,-0.452578,-0.4517985,-0.45101893,-0.44945973,-0.44868016,-0.44868016,-0.452578,-0.4587835,-0.46268147,-0.46268147,-0.45722437,-0.45101893,-0.4502393,-0.452578,-0.452578,-0.4502393,-0.44790053,-0.44868016,-0.4502393,-0.452578,-0.44868016,-0.4416951,-0.43701762,-0.4331197,-0.4284734,-0.42223674,-0.4160313,-0.41369253,-0.41135383,-0.40979463,-0.4082355,-0.4074871,-0.4074871,-0.40203005,-0.38335127,-0.35537988,-0.3250386,-0.30327266,-0.29316926,-0.29394883,-0.30171353,-0.31493515,-0.33283436,-0.3530411,-0.37480706,-0.40047085,-0.42613465,-0.452578,-0.47122562,-0.47824186,-0.47122562,-0.46268147,-0.45800394,-0.4587835,-0.4642406,-0.46891809,-0.47200525,-0.4774623,-0.4821086,-0.48288816,-0.47980106,-0.47512352,-0.47278482,-0.4735644,-0.48058063,-0.49922818,-0.5217737,-0.5132295,-0.4284734,-0.2395029,0.03809035,0.34293783,0.580866,0.69752264,0.6524004,0.42769384,0.042767882,-0.40514833,-0.76671815,-0.9308044,-0.87171215,-0.67809534,-0.48522693,-0.38104367,-0.36548322,-0.39348578,-0.42691422,-0.44712102,-0.4502393,-0.4416951,-0.4284734,-0.41914964,-0.41525167,-0.4144721,-0.4144721,-0.40979463,-0.4035892,-0.39891165,-0.39348578,-0.38802874,-0.38104367,-0.37480706,-0.37016076,-0.3662628,-0.36158532,-0.35382068,-0.34527653,-0.33748066,-0.3304956,-0.32269984,-0.313376,-0.30405223,-0.29394883,-0.27994758,-0.26204842,-0.24184167,-0.2224145,-0.2052949,-0.18739575,-0.16640937,-0.14152515,-0.11508173,-0.09331584,-0.07077032,-0.046665728,-0.024120152,-0.0054413676,0.0038824081,0.0054415464,0.0023231506,-0.004661858,-0.021001875,-0.048224926,-0.08633077,-0.13298088,-0.18196982,-0.23017907,-0.27682924,-0.3172739,-0.3514819,-0.38104367,-0.40670753,-0.4331197,-0.45335764,-0.46735895,-0.4735644,-0.4774623,-0.4821086,-0.48756564,-0.49533033,-0.49766904,-0.4984486,-0.50000775,-0.5007874,-0.50000775,-0.49766904,-0.4945507,-0.4945507,-0.49766904,-0.5007874,-0.5023465,-0.50000775,-0.5007874,-0.49922818,-0.4984486,-0.49610984,-0.4922431,-0.48912483,-0.48522693,-0.48058063,-0.47668272,-0.47824186,-0.48058063,-0.48058063,-0.4774623,-0.47044605,-0.46657932,-0.46657932,-0.46579975,-0.46268147,-0.45800394,-0.45647597,-0.4587835,-0.46190184,-0.46112227,-0.45647597,-0.452578,-0.452578,-0.45335764,-0.4541372,-0.45335764,-0.45101893,-0.452578,-0.452578,-0.44868016,-0.44247472,-0.4377972,-0.4377972,-0.4393564,-0.4393564,-0.436238,-0.4346789,-0.43701762,-0.44247472,-0.44556183,-0.44556183,-0.4416951,-0.4393564,-0.4377972,-0.43701762,-0.436238,-0.43701762,-0.44013596,-0.44556183,-0.44790053,-0.44712102,-0.44247472,-0.4393564,-0.43701762,-0.43701762,-0.43545848,-0.43237132,-0.42925298,-0.42301637,-0.41369253,-0.40125042,-0.38958788,-0.38413084,-0.38569003,-0.38958788,-0.39270622,-0.39579338,-0.39504498,-0.38802874,-0.37324786,-0.34992284,-0.3234794,-0.3009339,-0.28771222,-0.28228635,-0.2846251,-0.29472846,-0.3110373,-0.32815695,-0.34527653,-0.3662628,-0.39504498,-0.42691422,-0.452578,-0.46735895,-0.46657932,-0.45956308,-0.45956308,-0.46502018,-0.47200525,-0.47434396,-0.47434396,-0.47512352,-0.47824186,-0.47980106,-0.47824186,-0.4759031,-0.47434396,-0.47434396,-0.47824186,-0.49146354,-0.51868653,-0.5466579,-0.5303491,-0.42145717,-0.19753027,0.11352265,0.4463415,0.70294845,0.82194364,0.75817406,0.4968896,0.06609297,-0.40436876,-0.75895345,-0.8989351,-0.81492746,-0.6158847,-0.44481343,-0.37168872,-0.3818233,-0.42379594,-0.45647597,-0.46657932,-0.46190184,-0.45101893,-0.44247472,-0.43857676,-0.4377972,-0.436238,-0.43237132,-0.42691422,-0.41914964,-0.41135383,-0.40203005,-0.39426535,-0.3888083,-0.3864696,-0.38413084,-0.37792534,-0.36860156,-0.36080575,-0.35693902,-0.35226154,-0.34371734,-0.32971603,-0.31493515,-0.30171353,-0.2908305,-0.27994758,-0.26516676,-0.24651921,-0.22862,-0.20919275,-0.18817532,-0.16407067,-0.13918638,-0.1158613,-0.09019756,-0.06687248,-0.04510653,-0.024899721,-0.009339333,0.0031027794,0.014765263,0.019442797,0.013985634,-0.0054413676,-0.037341893,-0.07544786,-0.11897963,-0.16796857,-0.22085536,-0.27140337,-0.31493515,-0.34914327,-0.37870497,-0.40514833,-0.42925298,-0.44945973,-0.46657932,-0.47824186,-0.49068397,-0.4984486,-0.50000775,-0.4968894,-0.49533033,-0.4968894,-0.50156695,-0.50156695,-0.50000775,-0.49766904,-0.49610984,-0.49533033,-0.49533033,-0.4938023,-0.49533033,-0.49922818,-0.5023465,-0.5023465,-0.4984486,-0.49533033,-0.4938023,-0.4945507,-0.49302274,-0.48912483,-0.48444736,-0.48288816,-0.48288816,-0.4836678,-0.48444736,-0.48522693,-0.48756564,-0.4899044,-0.48756564,-0.48058063,-0.4759031,-0.47668272,-0.4774623,-0.4774623,-0.47512352,-0.47122562,-0.47044605,-0.47200525,-0.47122562,-0.46813852,-0.4642406,-0.46268147,-0.46268147,-0.45956308,-0.4541372,-0.4502393,-0.44945973,-0.44945973,-0.4502393,-0.44868016,-0.44790053,-0.4502393,-0.4541372,-0.4556964,-0.452578,-0.44868016,-0.44945973,-0.45335764,-0.4541372,-0.4517985,-0.44712102,-0.44556183,-0.4502393,-0.4541372,-0.45491678,-0.4517985,-0.45101893,-0.4517985,-0.452578,-0.4502393,-0.44790053,-0.44712102,-0.44945973,-0.45101893,-0.4502393,-0.44868016,-0.44712102,-0.44481343,-0.44403386,-0.44403386,-0.44325423,-0.44712102,-0.44945973,-0.4502393,-0.44712102,-0.44247472,-0.43701762,-0.43081218,-0.42535508,-0.42145717,-0.4245755,-0.43081218,-0.43545848,-0.4315917,-0.42223674,-0.4082355,-0.39579338,-0.38413084,-0.3724683,-0.35771865,-0.33981943,-0.32039225,-0.3009339,-0.2846251,-0.27838844,-0.2853735,-0.30795014,-0.33903986,-0.3763662,-0.41369253,-0.44481343,-0.46735895,-0.4759031,-0.47278482,-0.46502018,-0.4603427,-0.46502018,-0.47044605,-0.4735644,-0.47200525,-0.46891809,-0.47044605,-0.47512352,-0.4790215,-0.47824186,-0.47434396,-0.47278482,-0.47668272,-0.4938023,-0.52489203,-0.54743755,-0.5147886,-0.3802641,-0.1275239,0.21617794,0.5731014,0.8374729,0.9401282,0.8289288,0.49533045,-0.002323091,-0.5046853,-0.8437096,-0.93236357,-0.7947207,-0.5707626,-0.4074871,-0.36002618,-0.3888083,-0.43237132,-0.45491678,-0.4587835,-0.452578,-0.44556183,-0.44091552,-0.4377972,-0.43701762,-0.436238,-0.43081218,-0.4199292,-0.40901506,-0.40203005,-0.39891165,-0.3981321,-0.39504498,-0.39114708,-0.38569003,-0.37948453,-0.37168872,-0.3639241,-0.35615945,-0.34836364,-0.340599,-0.32737732,-0.3118168,-0.29706722,-0.28615308,-0.27604967,-0.26360756,-0.24804717,-0.22862,-0.20997232,-0.18817532,-0.16329104,-0.13454008,-0.10653758,-0.0816533,-0.05832821,-0.034223557,-0.009339333,0.010119081,0.021001935,0.024089098,0.022561193,0.017883658,0.0023231506,-0.027207375,-0.07232946,-0.12674433,-0.18274939,-0.2348566,-0.28306592,-0.32425898,-0.36002618,-0.39114708,-0.4199292,-0.44790053,-0.4735644,-0.4945507,-0.5062444,-0.51167035,-0.5132295,-0.51011115,-0.50855196,-0.5093316,-0.51167035,-0.51556826,-0.51790696,-0.51790696,-0.51400906,-0.51167035,-0.51167035,-0.5108907,-0.5093316,-0.50777245,-0.5069928,-0.5093316,-0.50777245,-0.50390565,-0.49922818,-0.49766904,-0.49922818,-0.5007874,-0.50000775,-0.49766904,-0.49533033,-0.4968894,-0.4968894,-0.49302274,-0.4860065,-0.48058063,-0.47824186,-0.47824186,-0.4774623,-0.47512352,-0.47512352,-0.47824186,-0.48058063,-0.4813602,-0.47668272,-0.47122562,-0.47044605,-0.47044605,-0.46891809,-0.46502018,-0.46112227,-0.46190184,-0.46502018,-0.46813852,-0.46891809,-0.46813852,-0.46813852,-0.46657932,-0.4642406,-0.45956308,-0.45647597,-0.45800394,-0.46112227,-0.4642406,-0.46579975,-0.4642406,-0.46813852,-0.47200525,-0.4735644,-0.47122562,-0.46891809,-0.46735895,-0.46813852,-0.46813852,-0.46502018,-0.46190184,-0.46268147,-0.46346104,-0.46502018,-0.4642406,-0.46190184,-0.46346104,-0.4642406,-0.46579975,-0.46502018,-0.4642406,-0.46502018,-0.4642406,-0.4587835,-0.4517985,-0.44013596,-0.4331197,-0.42925298,-0.43081218,-0.4346789,-0.44013596,-0.44403386,-0.4416951,-0.43081218,-0.41525167,-0.39891165,-0.38569003,-0.3740275,-0.35924655,-0.3421582,-0.32737732,-0.32039225,-0.3234794,-0.33283436,-0.34527653,-0.36548322,-0.39426535,-0.4284734,-0.45722437,-0.47434396,-0.4774623,-0.47278482,-0.46813852,-0.46657932,-0.46813852,-0.47278482,-0.47824186,-0.4821086,-0.48522693,-0.48912483,-0.49146354,-0.49302274,-0.49302274,-0.48912483,-0.4836678,-0.48756564,-0.5062444,-0.53265667,-0.5256716,-0.44013596,-0.24882674,0.029546142,0.3413787,0.5933081,0.7247144,0.69050634,0.46966648,0.07853508,-0.38104367,-0.7597331,-0.9440261,-0.90202224,-0.7115238,-0.5132295,-0.39969128,-0.3826028,-0.41681087,-0.4556964,-0.47200525,-0.46502018,-0.44945973,-0.44247472,-0.4393564,-0.4393564,-0.43545848,-0.42691422,-0.4199292,-0.41525167,-0.41135383,-0.4059279,-0.39891165,-0.39579338,-0.39114708,-0.3864696,-0.3802641,-0.3740275,-0.36938113,-0.36314452,-0.35382068,-0.340599,-0.32815695,-0.31805354,-0.30947816,-0.30015433,-0.28693265,-0.2729314,-0.25896126,-0.24340081,-0.2224145,-0.19753027,-0.17108685,-0.14542305,-0.1228776,-0.10186005,-0.08087373,-0.06066698,-0.041988194,-0.024120152,-0.0062209964,0.0070006847,0.010119081,-0.00079512596,-0.022561073,-0.05209154,-0.08555114,-0.124436736,-0.17108685,-0.22007579,-0.26828504,-0.31259644,-0.3514819,-0.3888083,-0.4206776,-0.44556183,-0.46190184,-0.47512352,-0.48834527,-0.5007874,-0.5069928,-0.5062444,-0.50312614,-0.50312614,-0.5046853,-0.5093316,-0.51167035,-0.51167035,-0.5147886,-0.5171274,-0.5171274,-0.5147886,-0.5108907,-0.50855196,-0.5093316,-0.50855196,-0.50546485,-0.50312614,-0.50312614,-0.5046853,-0.5046853,-0.5023465,-0.49922818,-0.49922818,-0.5007874,-0.50000775,-0.49610984,-0.4899044,-0.48678607,-0.4860065,-0.48522693,-0.4836678,-0.4813602,-0.4813602,-0.48058063,-0.47824186,-0.47278482,-0.46891809,-0.46813852,-0.46966648,-0.46891809,-0.46502018,-0.46112227,-0.46112227,-0.4642406,-0.46657932,-0.46502018,-0.46346104,-0.46502018,-0.46657932,-0.46735895,-0.46268147,-0.4587835,-0.4587835,-0.46112227,-0.46502018,-0.46891809,-0.46813852,-0.47044605,-0.46891809,-0.46579975,-0.46112227,-0.45800394,-0.4587835,-0.4603427,-0.4603427,-0.4587835,-0.45800394,-0.4603427,-0.46190184,-0.46346104,-0.46268147,-0.4603427,-0.46112227,-0.46112227,-0.4556964,-0.4463414,-0.43545848,-0.42535508,-0.41837007,-0.41525167,-0.41525167,-0.41759044,-0.42379594,-0.42769384,-0.42691422,-0.4206776,-0.40670753,-0.3826028,-0.3514819,-0.3188331,-0.2962876,-0.29005098,-0.29937476,-0.31493515,-0.32971603,-0.34293777,-0.35849822,-0.38104367,-0.4105742,-0.43857676,-0.46112227,-0.4759031,-0.4836678,-0.4836678,-0.4790215,-0.47434396,-0.4759031,-0.48288816,-0.49302274,-0.4984486,-0.49922818,-0.49922818,-0.5007874,-0.50390565,-0.5046853,-0.5023465,-0.50312614,-0.5171274,-0.54279125,-0.56377757,-0.5365546,-0.4206776,-0.1998378,0.10497844,0.43156064,0.6874192,0.8040445,0.7317306,0.45956314,0.021781564,-0.44868016,-0.8009573,-0.9362614,-0.8476075,-0.6422969,-0.46268147,-0.3849104,-0.39735252,-0.44247472,-0.47434396,-0.47980106,-0.46966648,-0.45956308,-0.45335764,-0.44945973,-0.44481343,-0.4393564,-0.4346789,-0.43003255,-0.42769384,-0.4245755,-0.42145717,-0.4206776,-0.41759044,-0.41135383,-0.40125042,-0.39114708,-0.38413084,-0.37792534,-0.3724683,-0.36470366,-0.35615945,-0.34758407,-0.3367011,-0.3234794,-0.3087297,-0.29394883,-0.2807272,-0.2667259,-0.2511654,-0.23017907,-0.20763361,-0.18508816,-0.15942436,-0.13064218,-0.09877294,-0.07154989,-0.052871108,-0.039649427,-0.024899721,-0.010118902,0.00076401234,0.0031027794,-0.0077801347,-0.029546142,-0.057548642,-0.09253621,-0.13531965,-0.18196982,-0.23251784,-0.28306592,-0.3304956,-0.37324786,-0.4082355,-0.4331197,-0.45101893,-0.46813852,-0.4860065,-0.5007874,-0.51167035,-0.51634777,-0.51868653,-0.52099407,-0.52489203,-0.52878994,-0.5295695,-0.5303491,-0.5310975,-0.5295695,-0.5256716,-0.52021456,-0.51634777,-0.51556826,-0.51634777,-0.51634777,-0.5147886,-0.5132295,-0.51400906,-0.51556826,-0.51400906,-0.50855196,-0.5062444,-0.5062444,-0.50855196,-0.5108907,-0.50777245,-0.5023465,-0.50000775,-0.4984486,-0.49766904,-0.4945507,-0.49146354,-0.49068397,-0.49068397,-0.49068397,-0.48834527,-0.4860065,-0.48756564,-0.48912483,-0.4899044,-0.48522693,-0.47824186,-0.47434396,-0.47278482,-0.4735644,-0.47278482,-0.47278482,-0.47434396,-0.47668272,-0.4774623,-0.4759031,-0.4735644,-0.4735644,-0.4735644,-0.4735644,-0.47200525,-0.47044605,-0.47122562,-0.47200525,-0.47512352,-0.4759031,-0.47512352,-0.4735644,-0.46735895,-0.4603427,-0.4541372,-0.45335764,-0.45800394,-0.46268147,-0.46502018,-0.4642406,-0.46190184,-0.46268147,-0.46268147,-0.46268147,-0.45956308,-0.45647597,-0.45722437,-0.4587835,-0.45800394,-0.45491678,-0.44945973,-0.44556183,-0.44091552,-0.43857676,-0.4377972,-0.44013596,-0.44403386,-0.4416951,-0.4346789,-0.42145717,-0.40280962,-0.39192665,-0.3826028,-0.3724683,-0.35537988,-0.3320548,-0.31025773,-0.29316926,-0.28849185,-0.29706722,-0.31571478,-0.34449697,-0.37948453,-0.41369253,-0.44013596,-0.45800394,-0.46735895,-0.46966648,-0.47122562,-0.47044605,-0.47044605,-0.4735644,-0.47668272,-0.4836678,-0.48912483,-0.4899044,-0.49068397,-0.4860065,-0.4813602,-0.47824186,-0.47824186,-0.48288816,-0.4984486,-0.52801037,-0.5489967,-0.52099407,-0.39579338,-0.15474683,0.17807198,0.53109753,0.7993671,0.90978694,0.8125888,0.49766922,0.0163244,-0.4821086,-0.8367245,-0.9510111,-0.83438575,-0.6096481,-0.43081218,-0.36470366,-0.3864696,-0.43857676,-0.4790215,-0.50777245,-0.55445373,-0.5948672,-0.5801176,-0.51634777,-0.42301637,-0.3421582,-0.31961268,-0.34449697,-0.37168872,-0.38335127,-0.38413084,-0.38335127,-0.3826028,-0.3802641,-0.37558657,-0.37168872,-0.36860156,-0.36470366,-0.35693902,-0.34758407,-0.33826023,-0.32737732,-0.31649435,-0.30483186,-0.2923897,-0.2807272,-0.2675054,-0.25194502,-0.22939956,-0.20451534,-0.17963105,-0.15474683,-0.13142174,-0.10887635,-0.08633077,-0.06453371,-0.041988194,-0.018663108,0.0038824081,0.021781564,0.028766513,0.027987003,0.018663168,0.0015436411,-0.027986944,-0.069990754,-0.12209797,-0.17807192,-0.2309587,-0.27682924,-0.3188331,-0.35615945,-0.3888083,-0.4160313,-0.44013596,-0.46502018,-0.48444736,-0.4968894,-0.50156695,-0.50312614,-0.5062444,-0.5093316,-0.5124499,-0.5124499,-0.51167035,-0.5124499,-0.51167035,-0.50855196,-0.50312614,-0.50000775,-0.49922818,-0.50156695,-0.5046853,-0.5046853,-0.50312614,-0.50312614,-0.50156695,-0.4984486,-0.49533033,-0.49302274,-0.49302274,-0.4899044,-0.48756564,-0.4836678,-0.4821086,-0.48522693,-0.4860065,-0.48288816,-0.47434396,-0.46657932,-0.4642406,-0.46657932,-0.46966648,-0.46813852,-0.4642406,-0.46190184,-0.46112227,-0.45956308,-0.46112227,-0.46346104,-0.46735895,-0.46966648,-0.46966648,-0.46346104,-0.45722437,-0.45722437,-0.45800394,-0.45800394,-0.4541372,-0.45101893,-0.4517985,-0.45491678,-0.45722437,-0.4556964,-0.45335764,-0.452578,-0.4541372,-0.4556964,-0.45491678,-0.4541372,-0.4556964,-0.45800394,-0.4603427,-0.45800394,-0.45491678,-0.4541372,-0.4541372,-0.45101893,-0.44712102,-0.44325423,-0.44325423,-0.44481343,-0.44556183,-0.4416951,-0.43389928,-0.42535508,-0.41681087,-0.4105742,-0.40514833,-0.40670753,-0.41135383,-0.4144721,-0.41525167,-0.40979463,-0.40125042,-0.39348578,-0.3802641,-0.35924655,-0.3320548,-0.30795014,-0.29316926,-0.2923897,-0.30171353,-0.31259644,-0.32425898,-0.34293777,-0.367822,-0.39891165,-0.42925298,-0.452578,-0.46502018,-0.46813852,-0.46657932,-0.46268147,-0.46112227,-0.46502018,-0.46891809,-0.47200525,-0.4735644,-0.47434396,-0.4774623,-0.4813602,-0.48444736,-0.4836678,-0.4821086,-0.48288816,-0.48444736,-0.4968894,-0.51868653,-0.52801037,-0.48288816,-0.33748066,-0.08633077,0.23248684,0.53109753,0.7231864,0.7589537,0.6057502,0.26828516,-0.1912936,-0.6329732,-0.9105976,-0.95023155,-0.7900432,-0.56920344,-0.41759044,-0.3740275,-0.40280962,-0.44556183,-0.46891809,-0.47122562,-0.46190184,-0.4517985,-0.4416951,-0.436238,-0.4331197,-0.42925298,-0.42379594,-0.4144721,-0.4035892,-0.39735252,-0.39504498,-0.39348578,-0.39114708,-0.38802874,-0.38335127,-0.3802641,-0.3763662,-0.3662628,-0.3530411,-0.34371734,-0.3351419,-0.32581818,-0.313376,-0.30015433,-0.28615308,-0.2752701,-0.26204842,-0.24340081,-0.2224145,-0.20217657,-0.18274939,-0.16251147,-0.13996595,-0.1158613,-0.09331584,-0.07232946,-0.05209154,-0.03110528,-0.013237238,-0.003882289,-0.00079512596,-0.0062209964,-0.018663108,-0.042767823,-0.07697582,-0.11820006,-0.1617319,-0.20607442,-0.2511654,-0.30015433,-0.34605604,-0.3849104,-0.41369253,-0.436238,-0.45491678,-0.47044605,-0.4821086,-0.48912483,-0.4938023,-0.49922818,-0.5046853,-0.5093316,-0.51167035,-0.5147886,-0.5171274,-0.51634777,-0.51400906,-0.50777245,-0.50390565,-0.5046853,-0.50546485,-0.5062444,-0.5023465,-0.49922818,-0.5023465,-0.5062444,-0.50777245,-0.5046853,-0.4968894,-0.4938023,-0.4938023,-0.49610984,-0.49533033,-0.49302274,-0.49068397,-0.48912483,-0.48678607,-0.4821086,-0.47824186,-0.4774623,-0.47980106,-0.4821086,-0.47824186,-0.47200525,-0.46579975,-0.46190184,-0.46268147,-0.4642406,-0.46657932,-0.46813852,-0.46813852,-0.46502018,-0.4587835,-0.45335764,-0.4517985,-0.45335764,-0.45647597,-0.4556964,-0.45335764,-0.45335764,-0.45800394,-0.46268147,-0.4642406,-0.46502018,-0.46346104,-0.4603427,-0.45647597,-0.4517985,-0.44868016,-0.45101893,-0.45722437,-0.45956308,-0.45800394,-0.4502393,-0.4416951,-0.43237132,-0.42379594,-0.41681087,-0.41525167,-0.41759044,-0.4206776,-0.42379594,-0.42223674,-0.41914964,-0.4144721,-0.40125042,-0.37714577,-0.34371734,-0.3110373,-0.29005098,-0.28615308,-0.29706722,-0.3110373,-0.32659775,-0.34605604,-0.36860156,-0.39579338,-0.4245755,-0.45101893,-0.47278482,-0.4836678,-0.48678607,-0.4813602,-0.47512352,-0.47434396,-0.4790215,-0.48444736,-0.48912483,-0.49068397,-0.49302274,-0.49533033,-0.49533033,-0.49146354,-0.48678607,-0.48522693,-0.48756564,-0.5007874,-0.5264512,-0.55211496,-0.5373341,-0.4377972,-0.2270608,0.074637055,0.39969134,0.64619493,0.7527169,0.6772847,0.41291296,-0.004661858,-0.4603427,-0.80173695,-0.9347023,-0.8452687,-0.6415486,-0.46190184,-0.3818233,-0.3888083,-0.4284734,-0.45956308,-0.47044605,-0.46502018,-0.45722437,-0.4463414,-0.43857676,-0.4331197,-0.42769384,-0.42301637,-0.41681087,-0.41135383,-0.4074871,-0.40436876,-0.39969128,-0.39192665,-0.38569003,-0.38104367,-0.37948453,-0.37480706,-0.36860156,-0.36080575,-0.35460025,-0.34914327,-0.33826023,-0.32269984,-0.30561143,-0.29316926,-0.2807272,-0.2675054,-0.24804717,-0.22550166,-0.2052949,-0.18739575,-0.16874814,-0.14854133,-0.12518513,-0.102639616,-0.07853496,-0.052871108,-0.027986944,-0.010118902,-0.0015747547,-1.5556812e-05,-0.003882289,-0.013237238,-0.03188491,-0.062226176,-0.10030085,-0.14230472,-0.18586779,-0.23173827,-0.27994758,-0.3250386,-0.36314452,-0.39114708,-0.41525167,-0.4377972,-0.45800394,-0.4759031,-0.48522693,-0.49146354,-0.4968894,-0.50156695,-0.5046853,-0.5062444,-0.5069928,-0.50777245,-0.50777245,-0.50777245,-0.50855196,-0.50855196,-0.51011115,-0.5108907,-0.50855196,-0.50390565,-0.50156695,-0.50156695,-0.50156695,-0.50312614,-0.50156695,-0.49922818,-0.4984486,-0.49533033,-0.4922431,-0.48834527,-0.48522693,-0.48522693,-0.48678607,-0.48834527,-0.48912483,-0.49068397,-0.48912483,-0.48756564,-0.48288816,-0.47668272,-0.47434396,-0.4774623,-0.4813602,-0.4836678,-0.47980106,-0.47512352,-0.47122562,-0.47122562,-0.47278482,-0.47200525,-0.46966648,-0.46813852,-0.46735895,-0.46657932,-0.46190184,-0.45722437,-0.45335764,-0.452578,-0.45491678,-0.4556964,-0.45722437,-0.45722437,-0.45800394,-0.4587835,-0.4587835,-0.45956308,-0.45956308,-0.4603427,-0.46112227,-0.45800394,-0.4541372,-0.45101893,-0.44481343,-0.43701762,-0.42613465,-0.41759044,-0.4144721,-0.41759044,-0.42223674,-0.42379594,-0.42535508,-0.4245755,-0.41681087,-0.40125042,-0.3724683,-0.33592153,-0.30327266,-0.2807272,-0.2729314,-0.2776088,-0.29161012,-0.3118168,-0.33283436,-0.35537988,-0.37948453,-0.4105742,-0.44481343,-0.4759031,-0.49533033,-0.5007874,-0.49922818,-0.49610984,-0.49533033,-0.49766904,-0.49922818,-0.50156695,-0.5046853,-0.5062444,-0.5062444,-0.50312614,-0.50390565,-0.50855196,-0.5108907,-0.5108907,-0.5124499,-0.5295695,-0.5653367,-0.5816455,-0.52723074,-0.35460025,-0.06375414,0.30015445,0.64307666,0.86547554,0.90202236,0.7138313,0.31181693,-0.20919275,-0.6687404,-0.92768604,-0.93548185,-0.75895345,-0.54743755,-0.4206776,-0.39891165,-0.4377972,-0.48058063,-0.50000775,-0.4984486,-0.4860065,-0.47434396,-0.46813852,-0.46112227,-0.45101893,-0.4393564,-0.42925298,-0.42613465,-0.4284734,-0.4284734,-0.4206776,-0.4121334,-0.4059279,-0.40047085,-0.39579338,-0.3872491,-0.37558657,-0.3662628,-0.35924655,-0.35460025,-0.3468045,-0.33748066,-0.32893646,-0.3188331,-0.30405223,-0.28384554,-0.26204842,-0.24184167,-0.2224145,-0.20217657,-0.17729229,-0.1493209,-0.12365717,-0.09877294,-0.07466823,-0.050563574,-0.027986944,-0.01167804,0.0038824081,0.01710403,0.027987003,0.029546142,0.0163244,-0.013237238,-0.054430306,-0.10030085,-0.15006936,-0.20373577,-0.25506335,-0.30327266,-0.34527653,-0.37948453,-0.40901506,-0.43237132,-0.4502393,-0.46268147,-0.4735644,-0.48444736,-0.49302274,-0.50000775,-0.5046853,-0.50855196,-0.5132295,-0.5171274,-0.51634777,-0.51556826,-0.5147886,-0.51400906,-0.51400906,-0.5108907,-0.50390565,-0.50000775,-0.50156695,-0.50390565,-0.5062444,-0.50546485,-0.50156695,-0.4984486,-0.49533033,-0.4922431,-0.4899044,-0.49146354,-0.49146354,-0.4899044,-0.48444736,-0.47434396,-0.46891809,-0.46735895,-0.46966648,-0.47122562,-0.46966648,-0.46813852,-0.47044605,-0.4735644,-0.47512352,-0.46891809,-0.46190184,-0.4556964,-0.452578,-0.4541372,-0.45491678,-0.45491678,-0.45956308,-0.46112227,-0.46190184,-0.4587835,-0.4541372,-0.45335764,-0.45335764,-0.45335764,-0.4502393,-0.44712102,-0.44868016,-0.45101893,-0.45335764,-0.4541372,-0.4556964,-0.45956308,-0.46346104,-0.46268147,-0.4556964,-0.44790053,-0.44325423,-0.44247472,-0.44403386,-0.4416951,-0.43545848,-0.42925298,-0.42301637,-0.41759044,-0.4121334,-0.40979463,-0.4121334,-0.41369253,-0.41369253,-0.41135383,-0.4082355,-0.40436876,-0.39579338,-0.37792534,-0.3507024,-0.31571478,-0.28615308,-0.26828504,-0.26516676,-0.2737109,-0.2923897,-0.31571478,-0.33903986,-0.36080575,-0.38413084,-0.4105742,-0.4377972,-0.4587835,-0.47044605,-0.47122562,-0.46735895,-0.46735895,-0.47200525,-0.4790215,-0.48522693,-0.48912483,-0.4922431,-0.4899044,-0.4860065,-0.47980106,-0.4735644,-0.4735644,-0.4774623,-0.48522693,-0.5007874,-0.5310975,-0.55211496,-0.5171274,-0.3818233,-0.13064218,0.20451546,0.53889334,0.77916026,0.85771096,0.7301713,0.39267504,-0.0917567,-0.56689584,-0.88025635,-0.9533499,-0.81339943,-0.5948672,-0.43003255,-0.367822,-0.3802641,-0.41914964,-0.44712102,-0.45647597,-0.44945973,-0.43857676,-0.42925298,-0.4245755,-0.42379594,-0.4206776,-0.4144721,-0.40670753,-0.40047085,-0.39426535,-0.3864696,-0.37870497,-0.37094033,-0.36704242,-0.3639241,-0.36158532,-0.35537988,-0.3468045,-0.33826023,-0.32581818,-0.31025773,-0.29706722,-0.28771222,-0.28228635,-0.27449048,-0.2612688,-0.24340081,-0.2224145,-0.20061737,-0.17963105,-0.15630597,-0.13142174,-0.10653758,-0.082432926,-0.05832821,-0.03812152,-0.019442737,-0.004661858,0.0077803135,0.021001935,0.029546142,0.029546142,0.011646986,-0.019442737,-0.057548642,-0.09955251,-0.13996595,-0.18352902,-0.2309587,-0.27838844,-0.32192022,-0.35771865,-0.3872491,-0.41291296,-0.4331197,-0.44790053,-0.45722437,-0.46657932,-0.4774623,-0.48834527,-0.4945507,-0.49533033,-0.4945507,-0.49533033,-0.49766904,-0.49922818,-0.49533033,-0.49068397,-0.49068397,-0.49302274,-0.4945507,-0.49302274,-0.49068397,-0.49068397,-0.49068397,-0.49068397,-0.48756564,-0.4836678,-0.48288816,-0.4836678,-0.48288816,-0.4813602,-0.4790215,-0.47824186,-0.4774623,-0.47434396,-0.46891809,-0.46579975,-0.46735895,-0.46891809,-0.46891809,-0.46579975,-0.45956308,-0.45647597,-0.4541372,-0.45335764,-0.45335764,-0.4517985,-0.45101893,-0.44868016,-0.4463414,-0.44556183,-0.44712102,-0.44945973,-0.4517985,-0.44945973,-0.44403386,-0.4416951,-0.44091552,-0.44091552,-0.44247472,-0.44013596,-0.4393564,-0.44247472,-0.44481343,-0.44556183,-0.44325423,-0.44403386,-0.4463414,-0.44790053,-0.4463414,-0.4393564,-0.43237132,-0.4284734,-0.42769384,-0.42535508,-0.41837007,-0.41135383,-0.4082355,-0.4082355,-0.40979463,-0.4105742,-0.4121334,-0.41369253,-0.4105742,-0.39735252,-0.36938113,-0.33283436,-0.30171353,-0.28228635,-0.2776088,-0.28615308,-0.3024931,-0.3234794,-0.34371734,-0.3662628,-0.38802874,-0.41291296,-0.4393564,-0.4587835,-0.46813852,-0.46735895,-0.46502018,-0.46579975,-0.47044605,-0.4759031,-0.4774623,-0.4790215,-0.4821086,-0.48678607,-0.4899044,-0.48912483,-0.48834527,-0.48912483,-0.49068397,-0.49302274,-0.5007874,-0.52255327,-0.5513354,-0.5450988,-0.4541372,-0.25038582,0.047445297,0.37558675,0.63917863,0.7744827,0.7317306,0.4937712,0.08087385,-0.39192665,-0.7659385,-0.9284656,-0.86160874,-0.6601961,-0.46966648,-0.3763662,-0.37558657,-0.41681087,-0.45491678,-0.47200525,-0.47278482,-0.46190184,-0.45101893,-0.44325423,-0.43545848,-0.4284734,-0.42301637,-0.41837007,-0.4144721,-0.4121334,-0.4082355,-0.40047085,-0.39192665,-0.3864696,-0.37948453,-0.3724683,-0.36470366,-0.35771865,-0.3530411,-0.34758407,-0.340599,-0.32893646,-0.31415558,-0.3024931,-0.29161012,-0.27838844,-0.26204842,-0.24340081,-0.22472209,-0.20685399,-0.18586779,-0.16251147,-0.13840681,-0.117420495,-0.09487498,-0.07310909,-0.046665728,-0.021781504,-0.004661858,0.0070006847,0.013985634,0.013985634,0.0038824081,-0.021001875,-0.055989444,-0.096434176,-0.13918638,-0.18196982,-0.23017907,-0.279168,-0.3250386,-0.36158532,-0.39192665,-0.41837007,-0.44247472,-0.4603427,-0.47122562,-0.4774623,-0.48522693,-0.49146354,-0.49766904,-0.4984486,-0.4968894,-0.49766904,-0.50000775,-0.5023465,-0.50390565,-0.50390565,-0.50546485,-0.5062444,-0.50312614,-0.49766904,-0.49533033,-0.49302274,-0.4945507,-0.4938023,-0.4899044,-0.48444736,-0.4821086,-0.4813602,-0.4813602,-0.47980106,-0.47980106,-0.4821086,-0.4836678,-0.4836678,-0.48288816,-0.47668272,-0.47512352,-0.4735644,-0.47434396,-0.47434396,-0.4759031,-0.47824186,-0.47512352,-0.47122562,-0.46579975,-0.46268147,-0.46268147,-0.46346104,-0.46112227,-0.45647597,-0.45335764,-0.45335764,-0.45647597,-0.4603427,-0.45956308,-0.45722437,-0.4556964,-0.4556964,-0.45647597,-0.45647597,-0.45722437,-0.4587835,-0.4603427,-0.46268147,-0.46112227,-0.4603427,-0.45956308,-0.4587835,-0.45800394,-0.45491678,-0.45647597,-0.45956308,-0.46190184,-0.46112227,-0.45722437,-0.45491678,-0.4556964,-0.45956308,-0.46346104,-0.4642406,-0.45800394,-0.45101893,-0.44013596,-0.42925298,-0.42379594,-0.42691422,-0.4346789,-0.4393564,-0.436238,-0.4245755,-0.40901506,-0.39735252,-0.3888083,-0.37792534,-0.35849822,-0.3351419,-0.313376,-0.2962876,-0.28849185,-0.29161012,-0.30717063,-0.3320548,-0.36704242,-0.40280962,-0.43237132,-0.4541372,-0.46657932,-0.47122562,-0.47200525,-0.47278482,-0.4735644,-0.47668272,-0.47980106,-0.48058063,-0.4790215,-0.48058063,-0.4836678,-0.48756564,-0.49068397,-0.4922431,-0.4922431,-0.4938023,-0.50000775,-0.5194349,-0.5489967,-0.5583204,-0.5023465,-0.33283436,-0.048224926,0.3141557,0.6578574,0.88025653,0.9113461,0.71772933,0.31181693,-0.2052949,-0.6617553,-0.920701,-0.92690647,-0.7449522,-0.52801037,-0.39579338,-0.3724683,-0.4121334,-0.45647597,-0.47824186,-0.4790215,-0.47044605,-0.46190184,-0.45335764,-0.44790053,-0.44481343,-0.44325423,-0.43857676,-0.4284734,-0.4160313,-0.40514833,-0.3981321,-0.39426535,-0.39426535,-0.39114708,-0.3872491,-0.38104367,-0.3724683,-0.36314452,-0.35460025,-0.3468045,-0.33826023,-0.32815695,-0.31571478,-0.30483186,-0.29472846,-0.28150678,-0.262828,-0.2410621,-0.21929616,-0.1998378,-0.17885149,-0.15396726,-0.1228776,-0.09097713,-0.06531328,-0.041988194,-0.019442737,0.0046619177,0.024089098,0.029546142,0.024089098,0.011646986,-0.0031027198,-0.026427805,-0.05910784,-0.10419881,-0.15630597,-0.20763361,-0.25896126,-0.30717063,-0.34914327,-0.38569003,-0.41369253,-0.436238,-0.46112227,-0.4813602,-0.49610984,-0.50390565,-0.50855196,-0.51400906,-0.51868653,-0.52099407,-0.5194349,-0.5194349,-0.52099407,-0.52411246,-0.5256716,-0.52411246,-0.5217737,-0.52099407,-0.52021456,-0.51634777,-0.5093316,-0.5023465,-0.50000775,-0.50156695,-0.50312614,-0.50390565,-0.50390565,-0.5023465,-0.5007874,-0.4968894,-0.4922431,-0.4922431,-0.49533033,-0.50000775,-0.50156695,-0.4945507,-0.48522693,-0.47824186,-0.47668272,-0.4790215,-0.48288816,-0.48522693,-0.4836678,-0.48288816,-0.47980106,-0.4774623,-0.47434396,-0.47278482,-0.47278482,-0.47278482,-0.4735644,-0.47512352,-0.47980106,-0.47824186,-0.47278482,-0.4642406,-0.45800394,-0.45800394,-0.46112227,-0.4642406,-0.4642406,-0.46268147,-0.46579975,-0.46891809,-0.46966648,-0.46735895,-0.4642406,-0.46579975,-0.46891809,-0.47200525,-0.46966648,-0.4642406,-0.4603427,-0.45722437,-0.4556964,-0.45491678,-0.45491678,-0.4556964,-0.45722437,-0.45722437,-0.4556964,-0.45335764,-0.45491678,-0.4556964,-0.4556964,-0.45491678,-0.45335764,-0.45335764,-0.4556964,-0.4541372,-0.44556183,-0.436238,-0.42691422,-0.42535508,-0.43003255,-0.43701762,-0.44091552,-0.43857676,-0.43003255,-0.41525167,-0.39891165,-0.3864696,-0.37948453,-0.3724683,-0.36002618,-0.33981943,-0.3188331,-0.30405223,-0.3024931,-0.31259644,-0.33127517,-0.36002618,-0.39735252,-0.43237132,-0.45800394,-0.46966648,-0.47278482,-0.47044605,-0.46891809,-0.4642406,-0.4603427,-0.45956308,-0.4642406,-0.47044605,-0.4759031,-0.47512352,-0.4735644,-0.4759031,-0.4790215,-0.4821086,-0.4821086,-0.48756564,-0.5093316,-0.53967285,-0.53967285,-0.45956308,-0.2667259,0.020222425,0.3538208,0.63917863,0.80170584,0.78692484,0.5653056,0.15318775,-0.33361393,-0.73874676,-0.9393486,-0.9035814,-0.7107442,-0.5046853,-0.38413084,-0.3639241,-0.40280962,-0.44712102,-0.46813852,-0.46346104,-0.44712102,-0.43081218,-0.42145717,-0.41837007,-0.41759044,-0.41525167,-0.40979463,-0.40436876,-0.39969128,-0.3981321,-0.39891165,-0.39579338,-0.3888083,-0.37870497,-0.36938113,-0.36314452,-0.36080575,-0.35693902,-0.34836364,-0.33981943,-0.33283436,-0.32581818,-0.31571478,-0.30015433,-0.2776088,-0.2566225,-0.23872334,-0.22319412,-0.20373577,-0.17885149,-0.1555264,-0.13376051,-0.11430216,-0.09253621,-0.06687248,-0.037341893,-0.012457669,0.0031027794,0.013206124,0.0163244,0.014765263,0.0054415464,-0.01167804,-0.040429056,-0.07853496,-0.1259647,-0.17807192,-0.22784042,-0.2737109,-0.3118168,-0.34758407,-0.38104367,-0.40979463,-0.43389928,-0.452578,-0.46657932,-0.47512352,-0.4821086,-0.48444736,-0.4860065,-0.48912483,-0.49610984,-0.50390565,-0.50390565,-0.5007874,-0.4945507,-0.4899044,-0.49068397,-0.49302274,-0.4922431,-0.48912483,-0.48756564,-0.48444736,-0.4821086,-0.48058063,-0.4813602,-0.48678607,-0.4938023,-0.49766904,-0.4922431,-0.4836678,-0.4774623,-0.47278482,-0.47278482,-0.4735644,-0.47278482,-0.47434396,-0.4759031,-0.4759031,-0.4735644,-0.47122562,-0.46966648,-0.46735895,-0.46502018,-0.4603427,-0.45800394,-0.46190184,-0.47122562,-0.47824186,-0.47668272,-0.46891809,-0.45800394,-0.44712102,-0.4416951,-0.43857676,-0.43857676,-0.44247472,-0.44790053,-0.4517985,-0.452578,-0.4517985,-0.45101893,-0.452578,-0.4517985,-0.44790053,-0.44325423,-0.44247472,-0.44403386,-0.44712102,-0.4502393,-0.45335764,-0.4541372,-0.4541372,-0.4502393,-0.44481343,-0.44556183,-0.44868016,-0.4517985,-0.4517985,-0.44790053,-0.44712102,-0.44945973,-0.4517985,-0.4502393,-0.44556183,-0.4416951,-0.44325423,-0.44481343,-0.4463414,-0.4416951,-0.436238,-0.43389928,-0.43701762,-0.44247472,-0.44556183,-0.44481343,-0.44091552,-0.43237132,-0.42145717,-0.4059279,-0.39192665,-0.37948453,-0.36704242,-0.3514819,-0.33361393,-0.31493515,-0.30483186,-0.30483186,-0.31025773,-0.32269984,-0.34527653,-0.37870497,-0.41525167,-0.44325423,-0.4541372,-0.45647597,-0.45335764,-0.4541372,-0.45800394,-0.45800394,-0.45647597,-0.4556964,-0.45722437,-0.45956308,-0.4603427,-0.46190184,-0.46502018,-0.46966648,-0.4735644,-0.47122562,-0.47200525,-0.48678607,-0.51167035,-0.5124499,-0.44091552,-0.26204842,0.010867357,0.32503867,0.5855435,0.7231864,0.6928451,0.47899044,0.10108054,-0.34449697,-0.7123034,-0.89581674,-0.85927,-0.67497694,-0.4774623,-0.36470366,-0.3507024,-0.39114708,-0.43545848,-0.45647597,-0.45491678,-0.44247472,-0.4315917,-0.4245755,-0.4199292,-0.41369253,-0.40979463,-0.4082355,-0.4035892,-0.39891165,-0.39192665,-0.38104367,-0.37168872,-0.36314452,-0.35537988,-0.34836364,-0.34527653,-0.3421582,-0.3351419,-0.3250386,-0.31415558,-0.30483186,-0.29937476,-0.29394883,-0.2846251,-0.2690646,-0.2511654,-0.2348566,-0.21773702,-0.19905823,-0.17651272,-0.15396726,-0.13220131,-0.110435426,-0.08633077,-0.061446548,-0.03812152,-0.018663108,-0.0062209964,0.0038824081,0.012426496,0.01710403,0.011646986,-0.003882289,-0.03188491,-0.06765199,-0.110435426,-0.15786517,-0.20607442,-0.24960631,-0.28771222,-0.32269984,-0.35382068,-0.38413084,-0.40901506,-0.42769384,-0.4416951,-0.4541372,-0.46346104,-0.47044605,-0.47278482,-0.4735644,-0.4759031,-0.4774623,-0.4774623,-0.4759031,-0.4774623,-0.4813602,-0.4860065,-0.49146354,-0.49146354,-0.48834527,-0.48678607,-0.4836678,-0.48058063,-0.47668272,-0.47434396,-0.4735644,-0.47512352,-0.47668272,-0.4774623,-0.47668272,-0.47824186,-0.47668272,-0.4735644,-0.46813852,-0.4642406,-0.46346104,-0.46502018,-0.46579975,-0.46502018,-0.46346104,-0.46268147,-0.46190184,-0.4603427,-0.45335764,-0.4463414,-0.44325423,-0.4416951,-0.4416951,-0.44091552,-0.4393564,-0.4377972,-0.4393564,-0.4393564,-0.4377972,-0.436238,-0.43701762,-0.4416951,-0.44556183,-0.44556183,-0.44247472,-0.4393564,-0.4377972,-0.44013596,-0.44325423,-0.44325423,-0.44091552,-0.4377972,-0.436238,-0.43701762,-0.44013596,-0.44403386,-0.44556183,-0.4463414,-0.4416951,-0.44013596,-0.4416951,-0.44712102,-0.4502393,-0.4463414,-0.44247472,-0.44013596,-0.4377972,-0.4393564,-0.43389928,-0.4284734,-0.4245755,-0.42379594,-0.42535508,-0.42613465,-0.42535508,-0.42379594,-0.4199292,-0.41369253,-0.4082355,-0.40979463,-0.41681087,-0.42535508,-0.4245755,-0.4144721,-0.39891165,-0.38335127,-0.37168872,-0.36236495,-0.3514819,-0.33981943,-0.32425898,-0.30561143,-0.28771222,-0.27604967,-0.27682924,-0.29316926,-0.3188331,-0.35226154,-0.3864696,-0.41681087,-0.44247472,-0.45956308,-0.46190184,-0.4556964,-0.4463414,-0.44091552,-0.4416951,-0.44868016,-0.4556964,-0.4603427,-0.46190184,-0.46268147,-0.45956308,-0.4556964,-0.4541372,-0.45722437,-0.46268147,-0.4790215,-0.5062444,-0.52878994,-0.50777245,-0.39579338,-0.16407067,0.16173196,0.51631665,0.7884841,0.9035815,0.81414795,0.51400924,0.04588616,-0.44247472,-0.7931615,-0.91215676,-0.80326486,-0.58554345,-0.40979463,-0.3421582,-0.36158532,-0.40901506,-0.44403386,-0.4556964,-0.4502393,-0.4377972,-0.42301637,-0.4121334,-0.4074871,-0.4074871,-0.4082355,-0.4059279,-0.39969128,-0.39348578,-0.3849104,-0.3763662,-0.367822,-0.36002618,-0.35615945,-0.35382068,-0.34914327,-0.33981943,-0.3304956,-0.3250386,-0.32117188,-0.31571478,-0.30405223,-0.2892714,-0.27604967,-0.262828,-0.24882674,-0.22862,-0.20685399,-0.18508816,-0.16407067,-0.14152515,-0.116640866,-0.09019756,-0.06453371,-0.041988194,-0.019442737,0.0015436411,0.018663168,0.03266442,0.042767882,0.048193812,0.04588616,0.028766513,-0.003882289,-0.049004495,-0.09877294,-0.15006936,-0.20217657,-0.25194502,-0.30015433,-0.3421582,-0.37870497,-0.4059279,-0.43003255,-0.4463414,-0.45491678,-0.4603427,-0.46579975,-0.47434396,-0.48522693,-0.4938023,-0.49766904,-0.4968894,-0.4984486,-0.49922818,-0.49922818,-0.4945507,-0.4899044,-0.4860065,-0.48522693,-0.48834527,-0.49068397,-0.4922431,-0.49146354,-0.48834527,-0.4860065,-0.48288816,-0.48288816,-0.4836678,-0.4821086,-0.47980106,-0.47668272,-0.47668272,-0.47824186,-0.47824186,-0.4735644,-0.46502018,-0.45956308,-0.45800394,-0.4587835,-0.4587835,-0.4556964,-0.45335764,-0.4541372,-0.45800394,-0.45956308,-0.45491678,-0.45101893,-0.44712102,-0.44556183,-0.4463414,-0.44403386,-0.44325423,-0.44247472,-0.44481343,-0.44325423,-0.43701762,-0.43237132,-0.4315917,-0.43545848,-0.44013596,-0.44247472,-0.44247472,-0.44403386,-0.44868016,-0.44945973,-0.44481343,-0.4393564,-0.4377972,-0.44013596,-0.44247472,-0.44325423,-0.44247472,-0.44403386,-0.4463414,-0.44403386,-0.4393564,-0.4377972,-0.44091552,-0.44325423,-0.44247472,-0.43545848,-0.42925298,-0.42925298,-0.4315917,-0.4346789,-0.43389928,-0.43237132,-0.4331197,-0.4331197,-0.43003255,-0.42145717,-0.4144721,-0.41681087,-0.42223674,-0.42691422,-0.4245755,-0.4160313,-0.4059279,-0.39579338,-0.38802874,-0.37714577,-0.36704242,-0.35460025,-0.33748066,-0.31649435,-0.2923897,-0.27682924,-0.27838844,-0.29550803,-0.32269984,-0.35382068,-0.38569003,-0.41681087,-0.4416951,-0.45647597,-0.45722437,-0.45101893,-0.44403386,-0.4416951,-0.44403386,-0.44790053,-0.45101893,-0.45335764,-0.4541372,-0.4541372,-0.4541372,-0.4556964,-0.46190184,-0.46813852,-0.46657932,-0.46966648,-0.4860065,-0.5069928,-0.4945507,-0.39504498,-0.17342561,0.1430844,0.485227,0.75037825,0.87015295,0.79472077,0.5116705,0.055989504,-0.43701762,-0.8056036,-0.9440261,-0.8507258,-0.63531184,-0.44403386,-0.35693902,-0.35849822,-0.39969128,-0.436238,-0.4502393,-0.44481343,-0.43389928,-0.42613465,-0.4199292,-0.41759044,-0.4121334,-0.40125042,-0.39270622,-0.38958788,-0.3888083,-0.3872491,-0.38413084,-0.37948453,-0.3740275,-0.36860156,