-0.82522416,-0.8222044,-0.8210027,-0.8203864,-0.81795216,-0.8107109,-0.8022371,-0.79558134,-0.79135984,-0.78954184,-0.7859058,-0.7822698,-0.77925,-0.7768465,-0.7756448,-0.7725942,-0.7701908,-0.770807,-0.7725942,-0.7750285,-0.7744123,-0.7744123,-0.7762303,-0.7786645,-0.781068,-0.7786645,-0.7762303,-0.7756448,-0.77743196,-0.78048253,-0.7798663,-0.77743196,-0.7750285,-0.7732105,-0.77139246,-0.768989,-0.768989,-0.77139246,-0.7750285,-0.7762303,-0.7725942,-0.76957446,-0.76957446,-0.770807,-0.7725942,-0.76957446,-0.7665547,-0.7647367,-0.767171,-0.76957446,-0.7683727,-0.7665547,-0.7647367,-0.7647367,-0.7665547,-0.76535296,-0.7629187,-0.7605152,-0.75931346,-0.7568792,-0.75142515,-0.7465874,-0.7448002,-0.7465874,-0.7520414,-0.7544757,-0.7526577,-0.74902165,-0.7448002,-0.7423659,-0.7405479,-0.73934615,-0.7375281,-0.7351247,-0.73330665,-0.72905433,-0.7254491,-0.72301483,-0.7242166,-0.72665083,-0.72723633,-0.72665083,-0.7254491,-0.7248329,-0.72363114,-0.7193788,-0.710905,-0.69944227,-0.6885342,-0.67947495,-0.67281914,-0.66677964,-0.6607094,-0.64801407,-0.62927926,-0.60749394,-0.5917789,-0.5893446,-0.5947987,-0.6002527,-0.599051,-0.599051,-0.6081102,-0.63229907,-0.6661634,-0.69820976,-0.7199951,-0.7314886,-0.7326904,-0.7284689,-0.7193788,-0.7133393,-0.71152127,-0.710905,-0.7097033,-0.7048655,-0.69944227,-0.7000277,-0.712723,-0.7363264,-0.76353496,-0.7822698,-0.7586972,-0.6371368,-0.38190615,0.0027115345,0.42242622,0.7429513,0.82158804,0.6159675,0.20894825,-0.25674057,-0.6201892,-0.80343884,-0.8258405,-0.7562937,-0.6764552,-0.63168275,-0.625027,-0.6407728,-0.6576896,-0.66677964,-0.66918314,-0.6685977,-0.6685977,-0.66677964,-0.6649617,-0.6601239,-0.6522664,-0.6444088,-0.6347333,-0.6262595,-0.6201892,-0.61535144,-0.61294794,-0.60749394,-0.6002527,-0.5917789,-0.5827196,-0.5730441,-0.5627523,-0.5512588,-0.5385635,-0.52768624,-0.5167781,-0.5046991,-0.4932056,-0.48232836,-0.47203648,-0.46294641,-0.45206916,-0.43875766,-0.42242634,-0.40489322,-0.38856196,-0.37044346,-0.3522941,-0.33232677,-0.31115776,-0.2887869,-0.26157832,-0.23375344,-0.20472687,-0.17751831,-0.15209693,-0.12790811,-0.10313374,-0.077712476,-0.0535236,-0.029334784,-0.0051459074,0.013588786,0.024496913,0.02690041,0.016639352,-0.0063476562,-0.0456661,-0.10190129,-0.17206424,-0.24946845,-0.32748902,-0.40430784,-0.47749054,-0.544603,-0.6050905,-0.6546699,-0.69217026,-0.7260346,-0.75506115,-0.7786645,-0.79739934,-0.80950916,-0.8167504,-0.8227899,-0.8270422,-0.8288602,-0.8306782,-0.83126366,-0.83126366,-0.8288602,-0.82340616,-0.81795216,-0.81493235,-0.81493235,-0.8161649,-0.81554866,-0.81191266,-0.80769116,-0.80587316,-0.80525684,-0.8016516,-0.7980156,-0.79317784,-0.7877238,-0.78350234,-0.77743196,-0.7720088,-0.7683727,-0.76775646,-0.768989,-0.7683727,-0.7683727,-0.76775646,-0.76775646,-0.7659693,-0.7611315,-0.75749546,-0.75567746,-0.75931346,-0.7659693,-0.7683727,-0.7665547,-0.7629187,-0.75989896,-0.7586972,-0.7586972,-0.75931346,-0.75931346,-0.75989896,-0.7605152,-0.75931346,-0.75749546,-0.7562937,-0.7562937,-0.75567746,-0.7520414,-0.7478199,-0.7441839,-0.7435676,-0.7448002,-0.7448002,-0.74298215,-0.7411642,-0.7405479,-0.7399624,-0.7363264,-0.7308724,-0.7260346,-0.7254491,-0.72665083,-0.7248329,-0.7218131,-0.71697533,-0.7139556,-0.7145411,-0.71515733,-0.7139556,-0.712723,-0.7121376,-0.7133393,-0.71152127,-0.7091178,-0.70606726,-0.70606726,-0.7085016,-0.7097033,-0.7091178,-0.7072998,-0.70606726,-0.7072998,-0.7066835,-0.7048655,-0.7000277,-0.6963917,-0.6939882,-0.6927865,-0.6963917,-0.7012295,-0.7048655,-0.70606726,-0.70184577,-0.6963917,-0.693372,-0.6939882,-0.69580626,-0.69580626,-0.693372,-0.68976676,-0.68551445,-0.6788587,-0.6685977,-0.6576896,-0.6486304,-0.6437926,-0.6395711,-0.634117,-0.61960375,-0.5966166,-0.5736296,-0.55369306,-0.540967,-0.53612924,-0.5349275,-0.5367454,-0.5439867,-0.55973256,-0.58755744,-0.6226235,-0.6583059,-0.68551445,-0.69820976,-0.69580626,-0.68551445,-0.67583895,-0.6703849,-0.66979945,-0.67161745,-0.6722029,-0.67343545,-0.6740209,-0.6752535,-0.684929,-0.70548177,-0.73571014,-0.7611315,-0.7411642,-0.6171695,-0.34927434,0.05290723,0.49320543,0.8324653,0.92016137,0.70850146,0.27911127,-0.21498787,-0.6026561,-0.79921734,-0.8246079,-0.75506115,-0.6722029,-0.6201892,-0.60690844,-0.6177857,-0.6377531,-0.6528518,-0.6583059,-0.65710413,-0.65346813,-0.6516501,-0.6510338,-0.64742863,-0.6401565,-0.6310973,-0.6226235,-0.61535144,-0.60690844,-0.599051,-0.5917789,-0.58755744,-0.5857394,-0.5814871,-0.5748313,-0.5651558,-0.55548024,-0.5452193,-0.53372574,-0.5210304,-0.5089206,-0.4992451,-0.4913876,-0.48171204,-0.46840054,-0.45206916,-0.43635416,-0.42002285,-0.40307522,-0.38495672,-0.3668074,-0.3504761,-0.33352852,-0.3129757,-0.2894032,-0.26339632,-0.2392075,-0.21622044,-0.19203162,-0.1672265,-0.14001793,-0.11280936,-0.08618617,-0.058977604,-0.031769097,-0.0069639087,0.0118016,0.02690041,0.039010286,0.046251416,0.04566598,0.02992022,-0.0021261573,-0.04868585,-0.10917324,-0.17872006,-0.25612432,-0.33596283,-0.41456878,-0.48775154,-0.5542785,-0.61356425,-0.6625274,-0.700644,-0.7302869,-0.7544757,-0.7762303,-0.7943796,-0.80587316,-0.8125289,-0.8167504,-0.8222044,-0.8282439,-0.83126366,-0.83188,-0.8306782,-0.8288602,-0.8258405,-0.81977016,-0.81191266,-0.80587316,-0.80343884,-0.80285335,-0.8004191,-0.79558134,-0.7901581,-0.7871075,-0.78532034,-0.782886,-0.77743196,-0.7732105,-0.7701908,-0.7683727,-0.7659693,-0.7623332,-0.75931346,-0.75989896,-0.76171696,-0.76171696,-0.7605152,-0.75931346,-0.75931346,-0.75931346,-0.7586972,-0.7568792,-0.75567746,-0.75567746,-0.75506115,-0.75324315,-0.7508397,-0.7502234,-0.7520414,-0.75506115,-0.7562937,-0.7568792,-0.75749546,-0.75931346,-0.7611315,-0.75989896,-0.75567746,-0.7502234,-0.7478199,-0.7478199,-0.7478199,-0.7484054,-0.7484054,-0.7502234,-0.7520414,-0.75142515,-0.7478199,-0.7435676,-0.74174964,-0.7405479,-0.7399624,-0.7387299,-0.7375281,-0.7387299,-0.73934615,-0.7375281,-0.73330665,-0.72967064,-0.72967064,-0.7326904,-0.7345084,-0.73330665,-0.72967064,-0.72723633,-0.7254491,-0.7248329,-0.7242166,-0.72363114,-0.7248329,-0.72665083,-0.72665083,-0.72363114,-0.7199951,-0.71756077,-0.71697533,-0.71697533,-0.7157736,-0.7145411,-0.7139556,-0.7133393,-0.710905,-0.70788527,-0.70548177,-0.70548177,-0.70606726,-0.7066835,-0.70428,-0.7012295,-0.698826,-0.6939882,-0.68551445,-0.6740209,-0.6613256,-0.6528518,-0.64924663,-0.64742863,-0.6449943,-0.6377531,-0.6208055,-0.5966166,-0.5730441,-0.55609655,-0.5506425,-0.55187505,-0.55369306,-0.5567128,-0.5645703,-0.5851231,-0.6201892,-0.6601239,-0.69217026,-0.710905,-0.7145411,-0.7091178,-0.700644,-0.693372,-0.6885342,-0.68613076,-0.6843127,-0.6824947,-0.67947495,-0.67765695,-0.68187845,-0.69820976,-0.7260346,-0.75567746,-0.7623332,-0.6909685,-0.49379104,-0.14423943,0.30570352,0.72723615,0.96370125,0.89415455,0.5506424,0.055341482,-0.40973103,-0.70788527,-0.81373066,-0.7816843,-0.698826,-0.630481,-0.6020707,-0.60749394,-0.6274613,-0.646196,-0.65528613,-0.65710413,-0.65528613,-0.6510338,-0.64742863,-0.64197457,-0.63531876,-0.628663,-0.6208055,-0.61113,-0.6008382,-0.5911626,-0.5833051,-0.5760639,-0.5682063,-0.5591163,-0.55187505,-0.54703724,-0.5427849,-0.53612924,-0.5252519,-0.5131729,-0.5010631,-0.48895323,-0.47625798,-0.46115923,-0.44602966,-0.4327181,-0.42002285,-0.40791297,-0.39281422,-0.3770684,-0.3607679,-0.34200233,-0.32144952,-0.2972607,-0.27365732,-0.2512865,-0.22891569,-0.20592862,-0.17933625,-0.15027893,-0.12248486,-0.09524542,-0.068036854,-0.040212035,-0.011801779,0.014205098,0.038393855,0.060179353,0.07891405,0.09102392,0.0934273,0.0837518,0.05774498,0.017224789,-0.039010227,-0.11037505,-0.19141531,-0.27547532,-0.3565156,-0.4333344,-0.5046991,-0.56940806,-0.6244415,-0.6685977,-0.7024621,-0.7302869,-0.75385946,-0.7738268,-0.7877238,-0.79681385,-0.80285335,-0.8064894,-0.80769116,-0.80587316,-0.80285335,-0.8022371,-0.8022371,-0.80285335,-0.80103534,-0.79558134,-0.7919453,-0.7883401,-0.7859058,-0.78350234,-0.7816843,-0.781068,-0.78048253,-0.7786645,-0.7732105,-0.76775646,-0.76535296,-0.7659693,-0.76775646,-0.7665547,-0.76353496,-0.7623332,-0.76171696,-0.76171696,-0.75989896,-0.75808096,-0.75749546,-0.75808096,-0.75931346,-0.75989896,-0.75931346,-0.75931346,-0.7586972,-0.7562937,-0.7526577,-0.74902165,-0.7484054,-0.74902165,-0.7502234,-0.74902165,-0.7465874,-0.7448002,-0.7435676,-0.74174964,-0.7399624,-0.7381444,-0.7369119,-0.73571014,-0.7351247,-0.73330665,-0.7320741,-0.7326904,-0.73330665,-0.73330665,-0.72967064,-0.72665083,-0.7242166,-0.7199951,-0.716359,-0.7139556,-0.7133393,-0.7157736,-0.7193788,-0.72119683,-0.7187934,-0.71697533,-0.7181771,-0.72119683,-0.7260346,-0.7278526,-0.7254491,-0.7218131,-0.7187934,-0.7139556,-0.7066835,-0.69820976,-0.6909685,-0.6867162,-0.68613076,-0.68613076,-0.68187845,-0.6703849,-0.6516501,-0.625027,-0.5966166,-0.5754476,-0.56395406,-0.5572983,-0.5585308,-0.5669738,-0.5869411,-0.6226235,-0.66554713,-0.70606726,-0.7314886,-0.7405479,-0.7399624,-0.7351247,-0.7308724,-0.7278526,-0.72723633,-0.72723633,-0.72723633,-0.7260346,-0.72301483,-0.7187934,-0.7181771,-0.72119683,-0.72967064,-0.7448002,-0.76535296,-0.784704,-0.7683727,-0.65528613,-0.40248978,-0.011185408,0.42726398,0.7756139,0.8832773,0.6903521,0.27183914,-0.22469419,-0.62323976,-0.8288602,-0.8524327,-0.7750285,-0.684929,-0.63168275,-0.6208055,-0.63229907,-0.6510338,-0.6661634,-0.6740209,-0.67343545,-0.6661634,-0.6583059,-0.65346813,-0.6504483,-0.64742863,-0.6407728,-0.63168275,-0.6244415,-0.61960375,-0.616584,-0.60931194,-0.599051,-0.58755744,-0.5772656,-0.5682063,-0.55791456,-0.54703724,-0.5367454,-0.52768624,-0.5197979,-0.50953686,-0.4992451,-0.48895323,-0.47807598,-0.46599698,-0.44843316,-0.4284966,-0.40852928,-0.39037997,-0.37404865,-0.3546976,-0.33232677,-0.3093397,-0.2869689,-0.26521432,-0.24222726,-0.21862388,-0.19261706,-0.16420674,-0.13394761,-0.1013158,-0.069854975,-0.042029977,-0.016023159,0.009367347,0.035990477,0.05956304,0.07651055,0.0837518,0.0813483,0.071056604,0.04566598,0.0027115345,-0.05836135,-0.13518018,-0.21924019,-0.30573446,-0.39099622,-0.4714203,-0.54340124,-0.60327244,-0.6540844,-0.698826,-0.7381444,-0.7720088,-0.79739934,-0.8167504,-0.8306782,-0.8409392,-0.8487967,-0.85123104,-0.8524327,-0.85304904,-0.85486704,-0.8554525,-0.8536345,-0.849413,-0.845777,-0.84337354,-0.8415555,-0.8367177,-0.830062,-0.82340616,-0.81795216,-0.81554866,-0.81191266,-0.80950916,-0.80950916,-0.8100946,-0.8107109,-0.80769116,-0.80285335,-0.79860103,-0.79739934,-0.79739934,-0.7961976,-0.79499584,-0.79317784,-0.7919453,-0.7919453,-0.78954184,-0.7871075,-0.78532034,-0.78532034,-0.7871075,-0.7877238,-0.7871075,-0.78652203,-0.78652203,-0.78652203,-0.784704,-0.7822698,-0.781068,-0.78048253,-0.78048253,-0.77743196,-0.7725942,-0.7665547,-0.75989896,-0.75324315,-0.7472037,-0.7435676,-0.7441839,-0.7448002,-0.74174964,-0.72723633,-0.70428,-0.681293,-0.6601239,-0.64135826,-0.6214218,-0.6026561,-0.5923952,-0.6002527,-0.626845,-0.6673651,-0.7133393,-0.7544757,-0.78350234,-0.79558134,-0.7901581,-0.7768465,-0.76535296,-0.76171696,-0.76353496,-0.7641513,-0.7629187,-0.75989896,-0.75749546,-0.75749546,-0.75567746,-0.7544757,-0.7562937,-0.76171696,-0.7738268,-0.7937633,-0.81493235,-0.8246079,-0.7750285,-0.6081102,-0.28998864,0.1442393,0.5742457,0.8463931,0.82460773,0.5107385,0.018426538,-0.47385454,-0.80769116,-0.931655,-0.89175117,-0.784704,-0.6927865,-0.64924663,-0.6456106,-0.6589222,-0.67281914,-0.6806767,-0.684929,-0.684929,-0.681293,-0.6746372,-0.66677964,-0.6613256,-0.65710413,-0.6510338,-0.6444088,-0.6371368,-0.62927926,-0.6208055,-0.60992825,-0.5978184,-0.58450687,-0.5736296,-0.5651558,-0.5567128,-0.5488553,-0.54158324,-0.53372574,-0.5246357,-0.51194036,-0.4974271,-0.48232836,-0.46901673,-0.45632148,-0.43999016,-0.42184085,-0.40307522,-0.3855422,-0.36800915,-0.34804183,-0.32508558,-0.29966414,-0.2748899,-0.24888307,-0.21985644,-0.18901187,-0.15755093,-0.12852436,-0.100699544,-0.072874725,-0.0456661,-0.01904291,0.0045295954,0.025698662,0.04686773,0.06440079,0.074076295,0.07044029,0.049887538,0.014205098,-0.039010227,-0.10797155,-0.19079906,-0.27972764,-0.36739284,-0.44966573,-0.5246357,-0.5929806,-0.65346813,-0.7030475,-0.74298215,-0.7744123,-0.80103534,-0.82340616,-0.8397375,-0.8518473,-0.8597048,-0.8657443,-0.86876404,-0.8669461,-0.8615228,-0.8560688,-0.8524327,-0.85123104,-0.849413,-0.847595,-0.845777,-0.843959,-0.8421718,-0.8367177,-0.8306782,-0.8258405,-0.8227899,-0.82158816,-0.81918466,-0.8161649,-0.81373066,-0.81191266,-0.80889285,-0.80343884,-0.79739934,-0.7937633,-0.79317784,-0.79558134,-0.79499584,-0.79317784,-0.7901581,-0.7889255,-0.7877238,-0.7859058,-0.7840878,-0.782886,-0.78532034,-0.7877238,-0.7871075,-0.784704,-0.78048253,-0.7780483,-0.7762303,-0.77139246,-0.7647367,-0.75808096,-0.75506115,-0.75324315,-0.7502234,-0.7435676,-0.72967064,-0.7097033,-0.6879487,-0.66375995,-0.64135826,-0.6208055,-0.6050905,-0.59723294,-0.6044742,-0.630481,-0.67343545,-0.72665083,-0.7725942,-0.8016516,-0.8107109,-0.8046714,-0.79256153,-0.782886,-0.7768465,-0.7762303,-0.7786645,-0.78350234,-0.7877238,-0.7883401,-0.7877238,-0.784704,-0.784704,-0.78532034,-0.78652203,-0.7919453,-0.8082766,-0.8342835,-0.8542508,-0.8258405,-0.6879487,-0.40005547,0.02388072,0.48047936,0.81977,0.88749874,0.63833845,0.16661012,-0.35593015,-0.7465874,-0.9256155,-0.9237975,-0.8330817,-0.7423659,-0.6939882,-0.68551445,-0.6976243,-0.7133393,-0.7223986,-0.7223986,-0.716359,-0.7091178,-0.7030475,-0.69580626,-0.6873325,-0.6782732,-0.66918314,-0.6625274,-0.65710413,-0.64924663,-0.6395711,-0.628663,-0.61960375,-0.6123317,-0.6050905,-0.59600043,-0.5851231,-0.5754476,-0.56336856,-0.54944074,-0.53372574,-0.5173944,-0.5071026,-0.49986136,-0.4913876,-0.47927773,-0.46236098,-0.4430099,-0.42365885,-0.40248978,-0.3795027,-0.3546976,-0.32992333,-0.30511826,-0.27972764,-0.25310457,-0.22469419,-0.19745481,-0.1690445,-0.14060336,-0.111576796,-0.08436817,-0.060179353,-0.03660685,-0.013003409,0.010569096,0.032970786,0.04868579,0.05592704,0.05472529,0.040211916,0.009367347,-0.0414446,-0.11037505,-0.19261706,-0.27972764,-0.3668074,-0.4508674,-0.528888,-0.5984347,-0.65950763,-0.7103195,-0.7520414,-0.78532034,-0.80950916,-0.8282439,-0.8421718,-0.8542508,-0.8621083,-0.8663606,-0.8669461,-0.8669461,-0.86876404,-0.8699658,-0.8681478,-0.8639263,-0.8602903,-0.85908854,-0.8584722,-0.85668504,-0.8524327,-0.847595,-0.8451915,-0.843959,-0.8409392,-0.8367177,-0.8324654,-0.8306782,-0.830062,-0.8288602,-0.8258405,-0.8227899,-0.8222044,-0.8222044,-0.8210027,-0.8185684,-0.81493235,-0.81311435,-0.81191266,-0.8100946,-0.8082766,-0.80587316,-0.80587316,-0.80769116,-0.80889285,-0.8082766,-0.80525684,-0.8040551,-0.80285335,-0.8004191,-0.79739934,-0.7937633,-0.79256153,-0.79317784,-0.79317784,-0.7907436,-0.78652203,-0.782886,-0.7780483,-0.770807,-0.7623332,-0.7544757,-0.7508397,-0.75142515,-0.75385946,-0.75142515,-0.73934615,-0.7199951,-0.69580626,-0.66918314,-0.6437926,-0.6214218,-0.60749394,-0.60567594,-0.6208055,-0.6516501,-0.6963917,-0.74538565,-0.7859058,-0.8082766,-0.81132716,-0.80103534,-0.7883401,-0.7798663,-0.7768465,-0.7750285,-0.7744123,-0.7756448,-0.77743196,-0.7762303,-0.7732105,-0.7701908,-0.770807,-0.7738268,-0.7798663,-0.7907436,-0.81132716,-0.8361014,-0.8463933,-0.7871075,-0.6002527,-0.25976032,0.18898094,0.6177857,0.8729855,0.82158804,0.4756416,-0.040828347,-0.5385635,-0.85908854,-0.9606816,-0.9032447,-0.7907436,-0.7024621,-0.6649617,-0.66375995,-0.6788587,-0.69519,-0.7048655,-0.70606726,-0.700644,-0.693372,-0.6879487,-0.68551445,-0.68187845,-0.6752535,-0.66554713,-0.6564878,-0.64924663,-0.6431763,-0.63531876,-0.62564325,-0.61596775,-0.60567594,-0.5947987,-0.5827196,-0.57181156,-0.56336856,-0.55609655,-0.548239,-0.53612924,-0.5228485,-0.5107386,-0.4986288,-0.4865498,-0.4726528,-0.4550889,-0.43635416,-0.41820484,-0.39885372,-0.37830096,-0.35953534,-0.34200233,-0.32144952,-0.2966444,-0.26641607,-0.23313725,-0.20290887,-0.17751831,-0.15693474,-0.13394761,-0.10917324,-0.08255017,-0.054139853,-0.028133035,-0.0027117133,0.020244598,0.037808537,0.049271107,0.04686773,0.02992022,-0.0051459074,-0.057775974,-0.12488836,-0.20352513,-0.28817064,-0.3752812,-0.45934123,-0.53612924,-0.60388875,-0.6613256,-0.7121376,-0.7562937,-0.79256153,-0.81918466,-0.8367177,-0.8487967,-0.8584722,-0.8639263,-0.8669461,-0.8669461,-0.8669461,-0.86938035,-0.8705821,-0.86876404,-0.8621083,-0.85486704,-0.8506148,-0.8482113,-0.845777,-0.8403537,-0.8330817,-0.8288602,-0.82762766,-0.8288602,-0.8282439,-0.8258405,-0.8227899,-0.81918466,-0.8161649,-0.81311435,-0.8107109,-0.80950916,-0.80950916,-0.80950916,-0.80769116,-0.80587316,-0.80769116,-0.8100946,-0.81373066,-0.81493235,-0.81373066,-0.81132716,-0.80769116,-0.8040551,-0.8016516,-0.80103534,-0.8040551,-0.80769116,-0.80950916,-0.8082766,-0.80587316,-0.80587316,-0.8046714,-0.80343884,-0.8004191,-0.79739934,-0.79499584,-0.79317784,-0.79317784,-0.7907436,-0.78954184,-0.7877238,-0.78350234,-0.7762303,-0.767171,-0.7586972,-0.75567746,-0.75506115,-0.7526577,-0.73934615,-0.7199951,-0.697008,-0.6746372,-0.6546699,-0.6365205,-0.62323976,-0.6238252,-0.6395711,-0.6710012,-0.7103195,-0.74963796,-0.78350234,-0.8046714,-0.8107109,-0.8040551,-0.7919453,-0.7822698,-0.7768465,-0.7756448,-0.7738268,-0.7738268,-0.7768465,-0.78048253,-0.7822698,-0.77925,-0.7756448,-0.7738268,-0.7762303,-0.7871075,-0.80587316,-0.8258405,-0.83188,-0.7701908,-0.5911626,-0.26339632,0.15995431,0.5536622,0.7659384,0.67885864,0.3208331,-0.17810374,-0.63593507,-0.910486,-0.9776292,-0.902043,-0.78350234,-0.698826,-0.6643454,-0.6673651,-0.68187845,-0.6939882,-0.700644,-0.7024621,-0.69944227,-0.693372,-0.68613076,-0.67947495,-0.67343545,-0.6685977,-0.6619419,-0.6546699,-0.646196,-0.6365205,-0.626845,-0.61535144,-0.60388875,-0.59541494,-0.5881429,-0.5796691,-0.5682063,-0.55609655,-0.5452193,-0.53612924,-0.53008974,-0.5210304,-0.50953686,-0.49804336,-0.48593348,-0.47323823,-0.4569069,-0.43875766,-0.42184085,-0.40489322,-0.38797647,-0.3692109,-0.34927434,-0.32810533,-0.30631995,-0.28394914,-0.25855857,-0.2307337,-0.20411056,-0.17690206,-0.15089524,-0.12488836,-0.100699544,-0.078914225,-0.060179353,-0.04446435,-0.028718531,-0.015437782,-0.0081656575,-0.009983659,-0.025698781,-0.05654335,-0.10492104,-0.16962993,-0.24583244,-0.32748902,-0.40671128,-0.48171204,-0.55005705,-0.6117462,-0.66554713,-0.7091178,-0.7435676,-0.770807,-0.79256153,-0.8100946,-0.8227899,-0.833698,-0.843959,-0.8506148,-0.8536345,-0.8524327,-0.8487967,-0.8463933,-0.8445753,-0.8415555,-0.8361014,-0.82944566,-0.8258405,-0.8246079,-0.82522416,-0.82340616,-0.8185684,-0.8143469,-0.8107109,-0.80889285,-0.8064894,-0.8046714,-0.8040551,-0.80343884,-0.80103534,-0.79499584,-0.78954184,-0.7871075,-0.7877238,-0.78954184,-0.7889255,-0.7877238,-0.7883401,-0.78954184,-0.79135984,-0.7901581,-0.7883401,-0.7889255,-0.7907436,-0.79256153,-0.7901581,-0.78652203,-0.78350234,-0.782886,-0.782886,-0.7816843,-0.7786645,-0.7756448,-0.7732105,-0.7720088,-0.76957446,-0.76775646,-0.76775646,-0.76957446,-0.770807,-0.768989,-0.767171,-0.7659693,-0.7647367,-0.76171696,-0.7544757,-0.7465874,-0.7423659,-0.74174964,-0.7423659,-0.7375281,-0.7242166,-0.7048655,-0.684929,-0.6661634,-0.64801407,-0.630481,-0.614766,-0.60690844,-0.61535144,-0.6371368,-0.6722029,-0.7133393,-0.74963796,-0.7762303,-0.78652203,-0.78350234,-0.7732105,-0.76353496,-0.75808096,-0.7544757,-0.75385946,-0.75506115,-0.75808096,-0.7623332,-0.7623332,-0.7605152,-0.75808096,-0.7562937,-0.7586972,-0.7665547,-0.7859058,-0.8100946,-0.82158816,-0.768989,-0.599051,-0.2887869,0.12427199,0.5191815,0.75808084,0.72119665,0.41758835,-0.046867847,-0.4992451,-0.79681385,-0.8977907,-0.85304904,-0.75567746,-0.67765695,-0.646196,-0.6486304,-0.66554713,-0.6824947,-0.6927865,-0.69519,-0.6909685,-0.6824947,-0.6746372,-0.66918314,-0.6649617,-0.6583059,-0.6510338,-0.6437926,-0.6371368,-0.6310973,-0.6226235,-0.6117462,-0.6020707,-0.59541494,-0.5929806,-0.58996093,-0.5851231,-0.5760639,-0.5651558,-0.55307674,-0.54038155,-0.5294734,-0.5204141,-0.5107386,-0.50044686,-0.4853481,-0.46840054,-0.4508674,-0.43391985,-0.41820484,-0.39947003,-0.3795027,-0.3589499,-0.33898258,-0.3141775,-0.2869689,-0.25976032,-0.23375344,-0.21258438,-0.19141531,-0.16479224,-0.13576561,-0.10797155,-0.08375198,-0.063815475,-0.04446435,-0.026931226,-0.011801779,-0.0045297146,-0.0063476562,-0.018457532,-0.04628235,-0.09222567,-0.15511668,-0.22829944,-0.30450195,-0.38132071,-0.4550889,-0.5258682,-0.58996093,-0.6431763,-0.6879487,-0.7242166,-0.75385946,-0.77743196,-0.7919453,-0.8016516,-0.80889285,-0.81493235,-0.8185684,-0.8203864,-0.8210027,-0.82158816,-0.8222044,-0.82158816,-0.8167504,-0.81132716,-0.80769116,-0.8046714,-0.8040551,-0.80103534,-0.79739934,-0.79499584,-0.7943796,-0.7937633,-0.7907436,-0.7883401,-0.7877238,-0.7889255,-0.79135984,-0.7919453,-0.7901581,-0.7883401,-0.7877238,-0.7883401,-0.7877238,-0.7859058,-0.78350234,-0.7822698,-0.7816843,-0.7786645,-0.7768465,-0.7762303,-0.7768465,-0.7768465,-0.7750285,-0.7725942,-0.770807,-0.7720088,-0.7725942,-0.770807,-0.76775646,-0.7647367,-0.7641513,-0.7641513,-0.7629187,-0.7629187,-0.7647367,-0.7665547,-0.767171,-0.7641513,-0.7586972,-0.7526577,-0.74902165,-0.7465874,-0.7441839,-0.7435676,-0.74538565,-0.7484054,-0.7508397,-0.7508397,-0.74963796,-0.74902165,-0.7502234,-0.7502234,-0.7472037,-0.74298215,-0.73934615,-0.7387299,-0.73934615,-0.73934615,-0.7381444,-0.73571014,-0.7345084,-0.73330665,-0.7308724,-0.72967064,-0.7302869,-0.7314886,-0.7320741,-0.72967064,-0.72665083,-0.7248329,-0.7242166,-0.72363114,-0.71756077,-0.70788527,-0.69944227,-0.693372,-0.6903522,-0.6885342,-0.68551445,-0.67765695,-0.6643454,-0.6449943,-0.61960375,-0.5978184,-0.5821034,-0.5742458,-0.5742458,-0.5809016,-0.5984347,-0.628663,-0.66918314,-0.71152127,-0.7435676,-0.75931346,-0.75931346,-0.7502234,-0.7387299,-0.7302869,-0.7278526,-0.7278526,-0.7302869,-0.7320741,-0.7314886,-0.7284689,-0.7254491,-0.72665083,-0.7308724,-0.7411642,-0.7605152,-0.7859058,-0.80587316,-0.781068,-0.6516501,-0.38011897,0.02690041,0.47443986,0.8209717,0.9171417,0.7097032,0.27911127,-0.22164363,-0.6177857,-0.8185684,-0.845777,-0.7786645,-0.7000277,-0.65587157,-0.6468123,-0.6589222,-0.6746372,-0.6879487,-0.6939882,-0.69217026,-0.68613076,-0.6788587,-0.67343545,-0.6679814,-0.6613256,-0.65346813,-0.6456106,-0.6401565,-0.63531876,-0.6280775,-0.618402,-0.60931194,-0.6026561,-0.59600043,-0.5869411,-0.5760639,-0.56577206,-0.5585308,-0.5512588,-0.5421995,-0.5312914,-0.5185962,-0.5071026,-0.49560905,-0.48171204,-0.4653808,-0.44784766,-0.43213266,-0.41638684,-0.39885372,-0.38070446,-0.3625551,-0.34563828,-0.32930702,-0.3093397,-0.28635257,-0.26037657,-0.23495525,-0.20956463,-0.18294156,-0.15634918,-0.1291098,-0.103719294,-0.08014667,-0.05654335,-0.034172535,-0.0123871565,0.006347537,0.020244598,0.02810216,0.024496913,0.0069639683,-0.029334784,-0.08196479,-0.14725918,-0.22164363,-0.3014822,-0.3837242,-0.46356273,-0.5343112,-0.5966166,-0.64983207,-0.69580626,-0.7338921,-0.7629187,-0.784704,-0.8004191,-0.81373066,-0.82340616,-0.8282439,-0.8306782,-0.82944566,-0.82762766,-0.82522416,-0.81977016,-0.8161649,-0.81311435,-0.8125289,-0.81132716,-0.80950916,-0.8064894,-0.80343884,-0.80285335,-0.80285335,-0.8022371,-0.79983366,-0.7980156,-0.7980156,-0.79860103,-0.79681385,-0.7937633,-0.7901581,-0.78954184,-0.7907436,-0.7901581,-0.7877238,-0.78532034,-0.784704,-0.78652203,-0.7871075,-0.78532034,-0.784704,-0.7871075,-0.7907436,-0.79256153,-0.7919453,-0.78954184,-0.7883401,-0.7871075,-0.784704,-0.7822698,-0.781068,-0.782886,-0.784704,-0.7840878,-0.781068,-0.7762303,-0.7756448,-0.7762303,-0.7762303,-0.7756448,-0.7732105,-0.7732105,-0.7732105,-0.77139246,-0.7683727,-0.7647367,-0.76353496,-0.76535296,-0.7659693,-0.7659693,-0.76353496,-0.7605152,-0.7568792,-0.7526577,-0.7484054,-0.74538565,-0.74538565,-0.74538565,-0.7441839,-0.74174964,-0.7399624,-0.74174964,-0.7435676,-0.7448002,-0.7435676,-0.7411642,-0.7387299,-0.7375281,-0.7345084,-0.7302869,-0.7254491,-0.72301483,-0.7223986,-0.72119683,-0.7187934,-0.71697533,-0.7181771,-0.72061133,-0.7218131,-0.72119683,-0.71756077,-0.71515733,-0.7133393,-0.71152127,-0.7103195,-0.70788527,-0.70606726,-0.7036638,-0.7000277,-0.69580626,-0.69217026,-0.693372,-0.69580626,-0.69820976,-0.6976243,-0.693372,-0.6867162,-0.6770407,-0.66554713,-0.65587157,-0.64924663,-0.6449943,-0.6371368,-0.618402,-0.5923952,-0.5675901,-0.55369306,-0.5524605,-0.5542785,-0.5542785,-0.55548024,-0.56638837,-0.5917789,-0.6298647,-0.6703849,-0.7036638,-0.7254491,-0.7338921,-0.72967064,-0.71697533,-0.7048655,-0.69944227,-0.700644,-0.7036638,-0.7048655,-0.70428,-0.7036638,-0.7066835,-0.71697533,-0.7375281,-0.7641513,-0.7798663,-0.7248329,-0.54340124,-0.20774662,0.24099457,0.67402077,0.9395124,0.9086678,0.5935968,0.106738925,-0.37586665,-0.7012295,-0.82340616,-0.7937633,-0.70428,-0.63229907,-0.6062922,-0.614766,-0.6365205,-0.65528613,-0.66677964,-0.6703849,-0.6673651,-0.6601239,-0.65346813,-0.6486304,-0.6444088,-0.6401565,-0.63229907,-0.62200725,-0.6141497,-0.6062922,-0.59723294,-0.5881429,-0.5796691,-0.5730441,-0.5669738,-0.55973256,-0.54944074,-0.5385635,-0.528888,-0.5185962,-0.5071026,-0.4925893,-0.4786923,-0.46781498,-0.45810866,-0.4490494,-0.43635416,-0.4206391,-0.40430784,-0.38736022,-0.37044346,-0.35167783,-0.33352852,-0.31599545,-0.2972607,-0.27609164,-0.2506702,-0.22346163,-0.19686937,-0.17024624,-0.14303768,-0.11521274,-0.08738792,-0.0631991,-0.042029977,-0.02086103,-0.000308156,0.019042969,0.034172416,0.043848038,0.046251416,0.041413665,0.024496913,-0.009367406,-0.060179353,-0.12488836,-0.19807112,-0.27609164,-0.3565156,-0.4333344,-0.5052846,-0.56638837,-0.6189875,-0.6661634,-0.7066835,-0.7405479,-0.7659693,-0.784704,-0.79860103,-0.8082766,-0.81493235,-0.8161649,-0.81373066,-0.8125289,-0.8100946,-0.8082766,-0.8046714,-0.80103534,-0.79860103,-0.79860103,-0.79860103,-0.79681385,-0.79317784,-0.7907436,-0.7901581,-0.7907436,-0.7901581,-0.78954184,-0.7889255,-0.7889255,-0.7901581,-0.78954184,-0.7883401,-0.7883401,-0.7883401,-0.7889255,-0.7877238,-0.78652203,-0.784704,-0.78350234,-0.782886,-0.78048253,-0.7780483,-0.77743196,-0.7786645,-0.77925,-0.7768465,-0.7738268,-0.7701908,-0.7683727,-0.770807,-0.7750285,-0.7732105,-0.77139246,-0.76775646,-0.7659693,-0.76775646,-0.7725942,-0.7780483,-0.77925,-0.77743196,-0.7725942,-0.76775646,-0.76535296,-0.7647367,-0.7641513,-0.7611315,-0.75808096,-0.7568792,-0.75506115,-0.75385946,-0.75142515,-0.74963796,-0.7502234,-0.75142515,-0.75142515,-0.7478199,-0.7435676,-0.74298215,-0.7441839,-0.74600196,-0.7448002,-0.74174964,-0.73934615,-0.7387299,-0.7381444,-0.7351247,-0.7302869,-0.7284689,-0.7284689,-0.72905433,-0.72723633,-0.72363114,-0.72363114,-0.7242166,-0.7248329,-0.7223986,-0.7181771,-0.716359,-0.716359,-0.71697533,-0.71515733,-0.71152127,-0.7097033,-0.70788527,-0.70606726,-0.7030475,-0.7000277,-0.700644,-0.7024621,-0.7036638,-0.70428,-0.7048655,-0.70548177,-0.70548177,-0.7036638,-0.69820976,-0.6927865,-0.69155395,-0.6927865,-0.69580626,-0.697008,-0.6963917,-0.69519,-0.6927865,-0.6903522,-0.68551445,-0.68009126,-0.6746372,-0.6673651,-0.65950763,-0.6510338,-0.64197457,-0.634117,-0.6226235,-0.6044742,-0.5814871,-0.56213605,-0.55005705,-0.54642105,-0.5439867,-0.54038155,-0.540967,-0.55609655,-0.5863248,-0.6298647,-0.67281914,-0.7048655,-0.7218131,-0.72363114,-0.716359,-0.70428,-0.6946045,-0.6909685,-0.6909685,-0.69217026,-0.69155395,-0.6909685,-0.693372,-0.70184577,-0.7181771,-0.7423659,-0.7659693,-0.7641513,-0.6740209,-0.4490494,-0.07530892,0.37586653,0.7665546,0.9431485,0.8112962,0.42726398,-0.07832867,-0.5234339,-0.78532034,-0.85123104,-0.7889255,-0.6927865,-0.630481,-0.61596775,-0.6329153,-0.65587157,-0.67161745,-0.67765695,-0.67765695,-0.6746372,-0.6703849,-0.6649617,-0.6601239,-0.6540844,-0.64742863,-0.6377531,-0.628663,-0.6208055,-0.61356425,-0.60749394,-0.599051,-0.5893446,-0.5814871,-0.5730441,-0.5651558,-0.55609655,-0.54580474,-0.53612924,-0.5270699,-0.5161927,-0.50288117,-0.48895323,-0.47505623,-0.46236098,-0.44966573,-0.43391985,-0.4170031,-0.40005547,-0.3855422,-0.3716452,-0.3546976,-0.33596283,-0.31541002,-0.2930084,-0.27005213,-0.24404532,-0.21680588,-0.19079906,-0.16602474,-0.14242136,-0.11641455,-0.09040767,-0.065633416,-0.04264635,-0.02267903,-0.00092440844,0.019659162,0.037192106,0.04868579,0.05170548,0.044433355,0.022678852,-0.01663953,-0.07349092,-0.14365393,-0.21985644,-0.3008659,-0.38313872,-0.4653808,-0.54158324,-0.60690844,-0.6613256,-0.7072998,-0.7465874,-0.781068,-0.8064894,-0.8246079,-0.8385357,-0.8482113,-0.8554525,-0.8578868,-0.85668504,-0.85486704,-0.8524327,-0.8500293,-0.8451915,-0.8415555,-0.8397375,-0.8397375,-0.8397375,-0.8361014,-0.8324654,-0.83126366,-0.83188,-0.8330817,-0.8306782,-0.8258405,-0.8203864,-0.8167504,-0.81493235,-0.81191266,-0.80889285,-0.80769116,-0.8064894,-0.8064894,-0.80343884,-0.8004191,-0.79860103,-0.79921734,-0.79983366,-0.79860103,-0.79681385,-0.79499584,-0.79739934,-0.8004191,-0.8004191,-0.79860103,-0.7961976,-0.79499584,-0.79499584,-0.7937633,-0.79317784,-0.7919453,-0.79135984,-0.79256153,-0.7919453,-0.79135984,-0.7919453,-0.79317784,-0.7937633,-0.79256153,-0.79135984,-0.7901581,-0.7889255,-0.78652203,-0.7822698,-0.77925,-0.77925,-0.7822698,-0.784704,-0.78350234,-0.781068,-0.7780483,-0.7756448,-0.7744123,-0.77139246,-0.7683727,-0.767171,-0.7683727,-0.7683727,-0.7665547,-0.76353496,-0.75989896,-0.7568792,-0.75506115,-0.75142515,-0.74902165,-0.74902165,-0.7508397,-0.75385946,-0.75385946,-0.75324315,-0.75324315,-0.7544757,-0.75506115,-0.7520414,-0.7478199,-0.7435676,-0.7423659,-0.7423659,-0.7423659,-0.74298215,-0.74298215,-0.7441839,-0.74600196,-0.7448002,-0.74298215,-0.7411642,-0.7399624,-0.73934615,-0.7369119,-0.7314886,-0.72665083,-0.7223986,-0.71697533,-0.7072998,-0.6963917,-0.68613076,-0.6806767,-0.6788587,-0.6752535,-0.66375995,-0.6444088,-0.6208055,-0.6026561,-0.5893446,-0.5827196,-0.5833051,-0.5905771,-0.60749394,-0.634117,-0.6703849,-0.70788527,-0.7399624,-0.7611315,-0.7665547,-0.7611315,-0.7508397,-0.74174964,-0.7381444,-0.7363264,-0.7369119,-0.7375281,-0.7381444,-0.7363264,-0.7338921,-0.7369119,-0.7526577,-0.781068,-0.8107109,-0.8040551,-0.69820976,-0.4490494,-0.0631991,0.36375678,0.6909684,0.7623023,0.53129137,0.08316648,-0.41820484,-0.7889255,-0.9486026,-0.9237975,-0.8064894,-0.69580626,-0.63593507,-0.62564325,-0.6431763,-0.66375995,-0.6764552,-0.6770407,-0.67281914,-0.66918314,-0.6679814,-0.66677964,-0.6607094,-0.6516501,-0.6425909,-0.6335008,-0.626845,-0.61960375,-0.61294794,-0.6062922,-0.60145444,-0.5947987,-0.58392143,-0.5730441,-0.56395406,-0.55609655,-0.5488553,-0.5385635,-0.5246357,-0.5125567,-0.50226486,-0.4932056,-0.4805103,-0.46658248,-0.45148373,-0.43817216,-0.4248606,-0.40852928,-0.39099622,-0.37223065,-0.3565156,-0.34138602,-0.32144952,-0.2990787,-0.27183932,-0.2428127,-0.21498787,-0.18475956,-0.15511668,-0.12852436,-0.102517545,-0.07953042,-0.055957854,-0.034172535,-0.016023159,-0.00092440844,0.013588786,0.027516603,0.035990477,0.031152606,0.008165598,-0.032970726,-0.08920592,-0.15816724,-0.23557144,-0.31842977,-0.40067178,-0.47749054,-0.54703724,-0.6087265,-0.6643454,-0.71152127,-0.7472037,-0.7756448,-0.79860103,-0.81736666,-0.8330817,-0.84337354,-0.8506148,-0.85304904,-0.8536345,-0.8518473,-0.847595,-0.8445753,-0.84337354,-0.845777,-0.845777,-0.84337354,-0.8379195,-0.8330817,-0.82944566,-0.8270422,-0.8227899,-0.8203864,-0.81977016,-0.82158816,-0.8240225,-0.8227899,-0.8203864,-0.81736666,-0.81493235,-0.81311435,-0.8100946,-0.8064894,-0.80343884,-0.80285335,-0.80285335,-0.8022371,-0.8022371,-0.80103534,-0.80103534,-0.80103534,-0.7980156,-0.79499584,-0.7937633,-0.7937633,-0.79499584,-0.79558134,-0.79558134,-0.7937633,-0.7919453,-0.7901581,-0.7877238,-0.7859058,-0.7859058,-0.78652203,-0.7871075,-0.7840878,-0.7822698,-0.781068,-0.782886,-0.784704,-0.7859058,-0.78532034,-0.7859058,-0.78652203,-0.7871075,-0.784704,-0.7816843,-0.7780483,-0.7756448,-0.7725942,-0.7683727,-0.7641513,-0.7623332,-0.7641513,-0.76535296,-0.76353496,-0.7611315,-0.7605152,-0.76353496,-0.7683727,-0.770807,-0.768989,-0.76535296,-0.76353496,-0.7623332,-0.7623332,-0.76171696,-0.7605152,-0.7605152,-0.75989896,-0.75567746,-0.74902165,-0.73934615,-0.7320741,-0.7278526,-0.72363114,-0.72119683,-0.71756077,-0.71152127,-0.698826,-0.6746372,-0.6456106,-0.6208055,-0.6050905,-0.59963644,-0.59963644,-0.6020707,-0.6117462,-0.6335008,-0.6661634,-0.7030475,-0.73571014,-0.75749546,-0.76775646,-0.7665547,-0.75749546,-0.7478199,-0.74174964,-0.7411642,-0.74174964,-0.7399624,-0.7363264,-0.7320741,-0.7308724,-0.73330665,-0.7399624,-0.7568792,-0.78350234,-0.80889285,-0.79860103,-0.6891505,-0.43875766,-0.057159603,0.35953534,0.6776569,0.7538594,0.5434011,0.12790799,-0.34502208,-0.7066835,-0.87480354,-0.8729856,-0.78048253,-0.684929,-0.6329153,-0.6208055,-0.63168275,-0.6486304,-0.6619419,-0.6679814,-0.6661634,-0.6601239,-0.65346813,-0.64983207,-0.64801407,-0.6456106,-0.64135826,-0.634117,-0.6274613,-0.6208055,-0.61294794,-0.60690844,-0.6008382,-0.59600043,-0.58996093,-0.5814871,-0.5706098,-0.5591163,-0.5506425,-0.5421995,-0.53190774,-0.52161586,-0.50953686,-0.50044686,-0.4907713,-0.4786923,-0.46417898,-0.44784766,-0.4327181,-0.41638684,-0.39885372,-0.3795027,-0.3607679,-0.34320408,-0.32508558,-0.30391645,-0.2791114,-0.2524882,-0.22709775,-0.20229256,-0.17446768,-0.14544111,-0.1170308,-0.09222567,-0.07167292,-0.051120102,-0.032970726,-0.015437782,-0.0027117133,0.0039132833,0.0045295954,-0.0063476562,-0.031769097,-0.075894475,-0.13699818,-0.21015006,-0.2887869,-0.3692109,-0.4472314,-0.5185962,-0.5790836,-0.6310973,-0.6746372,-0.7145411,-0.74902165,-0.7756448,-0.79499584,-0.8107109,-0.82340616,-0.83188,-0.8361014,-0.8379195,-0.8385357,-0.8427572,-0.84700954,-0.8487967,-0.8463933,-0.8427572,-0.8385357,-0.8330817,-0.8264259,-0.81977016,-0.8125289,-0.80950916,-0.80889285,-0.8107109,-0.81132716,-0.81132716,-0.80950916,-0.8046714,-0.79921734,-0.79558134,-0.7937633,-0.79317784,-0.7919453,-0.7889255,-0.784704,-0.781068,-0.781068,-0.782886,-0.784704,-0.7840878,-0.782886,-0.7822698,-0.7822698,-0.7822698,-0.7816843,-0.7816843,-0.78350234,-0.78532034,-0.78652203,-0.7859058,-0.784704,-0.7840878,-0.782886,-0.78048253,-0.7762303,-0.7725942,-0.7701908,-0.7683727,-0.7665547,-0.7641513,-0.7611315,-0.7623332,-0.76353496,-0.7629187,-0.75989896,-0.7568792,-0.75567746,-0.7568792,-0.75808096,-0.7568792,-0.75506115,-0.7544757,-0.75385946,-0.7526577,-0.75142515,-0.7508397,-0.7508397,-0.74963796,-0.74600196,-0.73934615,-0.7320741,-0.7254491,-0.7187934,-0.712723,-0.70788527,-0.70428,-0.7048655,-0.70548177,-0.69820976,-0.681293,-0.65710413,-0.6310973,-0.6105137,-0.5978184,-0.5881429,-0.5833051,-0.58755744,-0.60145444,-0.6262595,-0.6613256,-0.69944227,-0.7320741,-0.75324315,-0.75931346,-0.7526577,-0.7411642,-0.73330665,-0.7308724,-0.7308724,-0.7308724,-0.7308724,-0.7326904,-0.7326904,-0.7302869,-0.7260346,-0.7248329,-0.7308724,-0.7472037,-0.7701908,-0.7859058,-0.76171696,-0.646196,-0.39765203,-0.018457532,0.40427685,0.7363262,0.8300619,0.6341169,0.22527957,-0.24946845,-0.6238252,-0.8143469,-0.8385357,-0.767171,-0.68311095,-0.6329153,-0.6244415,-0.6395711,-0.65950763,-0.6722029,-0.67583895,-0.6752535,-0.67161745,-0.66677964,-0.6601239,-0.6528518,-0.6449943,-0.6371368,-0.6274613,-0.6171695,-0.60690844,-0.6002527,-0.5942132,-0.58755744,-0.5790836,-0.5687918,-0.55973256,-0.55187505,-0.544603,-0.53736174,-0.5307059,-0.5258682,-0.5185962,-0.5071026,-0.4925893,-0.47567254,-0.46054298,-0.44602966,-0.43031466,-0.41216534,-0.39281422,-0.3752812,-0.3589499,-0.34080058,-0.32024777,-0.2972607,-0.27427357,-0.2506702,-0.22469419,-0.19686937,-0.1678428,-0.14121968,-0.1170308,-0.09342742,-0.068036854,-0.042029977,-0.01663953,0.0069639683,0.027516603,0.044433355,0.05352354,0.049271107,0.028718352,-0.0081656575,-0.060795724,-0.12790811,-0.20472687,-0.2869689,-0.36862546,-0.4448279,-0.5143746,-0.57788193,-0.634117,-0.68187845,-0.7199951,-0.7508397,-0.7762303,-0.79558134,-0.8064894,-0.8125289,-0.81736666,-0.8264259,-0.8367177,-0.845777,-0.847595,-0.84337354,-0.83733404,-0.83126366,-0.8270422,-0.8240225,-0.8222044,-0.8222044,-0.8210027,-0.8185684,-0.81373066,-0.80889285,-0.80525684,-0.8016516,-0.79860103,-0.79558134,-0.79499584,-0.79499584,-0.7937633,-0.78954184,-0.782886,-0.77743196,-0.7756448,-0.7762303,-0.7768465,-0.7756448,-0.7738268,-0.7738268,-0.7744123,-0.7750285,-0.7732105,-0.770807,-0.76957446,-0.76957446,-0.770807,-0.7725942,-0.7732105,-0.7756448,-0.7780483,-0.7786645,-0.7768465,-0.7725942,-0.7701908,-0.76957446,-0.7701908,-0.7701908,-0.768989,-0.7683727,-0.767171,-0.7641513,-0.7605152,-0.75749546,-0.75749546,-0.7586972,-0.75989896,-0.7586972,-0.7568792,-0.7568792,-0.75749546,-0.75749546,-0.75506115,-0.75142515,-0.7502234,-0.74963796,-0.74963796,-0.7472037,-0.7423659,-0.7387299,-0.7363264,-0.73571014,-0.7351247,-0.7345084,-0.7351247,-0.7351247,-0.73330665,-0.7302869,-0.7278526,-0.7260346,-0.7248329,-0.7218131,-0.7133393,-0.7036638,-0.6963917,-0.69217026,-0.6909685,-0.6891505,-0.6843127,-0.67281914,-0.65346813,-0.6280775,-0.6008382,-0.5821034,-0.57242787,-0.56999356,-0.5754476,-0.5881429,-0.60992825,-0.6444088,-0.6843127,-0.7187934,-0.7405479,-0.74963796,-0.7484054,-0.7423659,-0.7369119,-0.7314886,-0.7278526,-0.72723633,-0.72723633,-0.7278526,-0.72665083,-0.7254491,-0.7254491,-0.72723633,-0.73330665,-0.74538565,-0.767171,-0.7907436,-0.7889255,-0.7012295,-0.47807598,-0.1073553,0.34138596,0.732074,0.9129201,0.79012716,0.41700292,-0.075894475,-0.5101223,-0.767171,-0.83733404,-0.7883401,-0.70606726,-0.64924663,-0.6310973,-0.6389548,-0.65587157,-0.67161745,-0.68009126,-0.681293,-0.67583895,-0.66677964,-0.6601239,-0.6546699,-0.6504483,-0.6444088,-0.6371368,-0.63168275,-0.6262595,-0.6208055,-0.6117462,-0.6008382,-0.5917789,-0.5827196,-0.5742458,-0.5627523,-0.54944074,-0.5385635,-0.5282717,-0.51801074,-0.5065172,-0.49379104,-0.48232836,-0.47083473,-0.45872498,-0.44421166,-0.42788035,-0.41216534,-0.39645028,-0.38132071,-0.36196965,-0.34018433,-0.31842977,-0.2954427,-0.2724555,-0.24765044,-0.22225994,-0.19625306,-0.1690445,-0.14183593,-0.11280936,-0.08556992,-0.060795724,-0.037808597,-0.014205158,0.010569096,0.033556104,0.05050373,0.06076479,0.061997294,0.05352354,0.031738162,-0.0075494647,-0.0631991,-0.13274586,-0.20836288,-0.28817064,-0.3692109,-0.44784766,-0.5210304,-0.58450687,-0.63833857,-0.684929,-0.72363114,-0.7562937,-0.781068,-0.79983366,-0.81493235,-0.8258405,-0.8342835,-0.8385357,-0.8409392,-0.8421718,-0.8409392,-0.8385357,-0.833698,-0.830062,-0.8288602,-0.8282439,-0.8264259,-0.8210027,-0.81493235,-0.80950916,-0.80707484,-0.80587316,-0.80285335,-0.79983366,-0.79860103,-0.79860103,-0.79860103,-0.79739934,-0.7943796,-0.79256153,-0.79135984,-0.7901581,-0.7859058,-0.7822698,-0.78048253,-0.78048253,-0.7816843,-0.7798663,-0.7780483,-0.77743196,-0.7786645,-0.78048253,-0.78048253,-0.7798663,-0.78048253,-0.7816843,-0.7816843,-0.7786645,-0.7744123,-0.770807,-0.7701908,-0.77139246,-0.77139246,-0.770807,-0.76957446,-0.7683727,-0.767171,-0.76535296,-0.76353496,-0.7629187,-0.76353496,-0.7629187,-0.75989896,-0.75808096,-0.7586972,-0.7605152,-0.76171696,-0.75989896,-0.75567746,-0.7526577,-0.75142515,-0.7526577,-0.7520414,-0.75142515,-0.7508397,-0.74963796,-0.7472037,-0.7423659,-0.7381444,-0.7363264,-0.7369119,-0.7387299,-0.7381444,-0.7351247,-0.7338921,-0.7351247,-0.7369119,-0.73571014,-0.73330665,-0.7308724,-0.72905433,-0.7278526,-0.7242166,-0.7199951,-0.7181771,-0.71756077,-0.71697533,-0.7133393,-0.7097033,-0.7072998,-0.7066835,-0.70548177,-0.700644,-0.6939882,-0.6867162,-0.681293,-0.6752535,-0.6685977,-0.66314363,-0.6583059,-0.6528518,-0.6395711,-0.61596775,-0.5893446,-0.5687918,-0.5567128,-0.5524605,-0.54944074,-0.55187505,-0.56638837,-0.59541494,-0.6377531,-0.68187845,-0.71756077,-0.7405479,-0.74902165,-0.7448002,-0.73330665,-0.7223986,-0.71697533,-0.71697533,-0.7181771,-0.71756077,-0.7145411,-0.712723,-0.712723,-0.71756077,-0.7284689,-0.7502234,-0.77743196,-0.7937633,-0.7484054,-0.5814871,-0.26579982,0.16781187,0.6014544,0.8856807,0.8856807,0.5966166,0.12186849,-0.36619115,-0.70788527,-0.84700954,-0.82944566,-0.7435676,-0.66677964,-0.63229907,-0.63229907,-0.64983207,-0.6685977,-0.68187845,-0.6867162,-0.6824947,-0.6752535,-0.6685977,-0.66375995,-0.6601239,-0.6528518,-0.6437926,-0.6347333,-0.626845,-0.6208055,-0.61356425,-0.6062922,-0.599051,-0.5929806,-0.5869411,-0.57788193,-0.5682063,-0.5591163,-0.54944074,-0.54038155,-0.5282717,-0.5161927,-0.5052846,-0.4950236,-0.48353004,-0.46901673,-0.45206916,-0.43573785,-0.42002285,-0.40430784,-0.38615847,-0.3668074,-0.34865808,-0.33112508,-0.3129757,-0.2906049,-0.26339632,-0.23495525,-0.20654488,-0.17872006,-0.14907718,-0.12005055,-0.09284204,-0.068036854,-0.04628235,-0.024497032,-0.0027117133,0.01784122,0.036575913,0.049271107,0.055341482,0.04748404,0.02206266,-0.022093475,-0.08196479,-0.15027893,-0.22709775,-0.3087542,-0.39339972,-0.47444004,-0.54703724,-0.6105137,-0.66554713,-0.7133393,-0.7526577,-0.781068,-0.8022371,-0.81977016,-0.8342835,-0.845777,-0.8506148,-0.8524327,-0.8524327,-0.8536345,-0.8542508,-0.8524327,-0.849413,-0.84700954,-0.843959,-0.8403537,-0.8348997,-0.82944566,-0.8258405,-0.8246079,-0.8227899,-0.81795216,-0.81373066,-0.8125289,-0.81373066,-0.8167504,-0.81493235,-0.8107109,-0.80525684,-0.80285335,-0.80103534,-0.79681385,-0.7937633,-0.79135984,-0.7919453,-0.7937633,-0.79256153,-0.78954184,-0.7871075,-0.78532034,-0.78652203,-0.78652203,-0.7859058,-0.7877238,-0.7901581,-0.79256153,-0.7919453,-0.7889255,-0.7859058,-0.7840878,-0.784704,-0.784704,-0.78532034,-0.7859058,-0.78532034,-0.7840878,-0.781068,-0.7780483,-0.7768465,-0.77743196,-0.7786645,-0.77743196,-0.7756448,-0.7732105,-0.77139246,-0.76957446,-0.7659693,-0.76353496,-0.7623332,-0.7623332,-0.7623332,-0.7586972,-0.7544757,-0.7520414,-0.75324315,-0.75567746,-0.75506115,-0.7502234,-0.74298215,-0.7363264,-0.7314886,-0.7278526,-0.7260346,-0.72665083,-0.72905433,-0.7314886,-0.7308724,-0.7278526,-0.7248329,-0.7242166,-0.7254491,-0.7242166,-0.72119683,-0.7199951,-0.72061133,-0.7242166,-0.7260346,-0.72363114,-0.7187934,-0.716359,-0.71697533,-0.7181771,-0.71756077,-0.71152127,-0.7024621,-0.693372,-0.684929,-0.67947495,-0.6788587,-0.68009126,-0.6782732,-0.6673651,-0.6449943,-0.6177857,-0.5942132,-0.5790836,-0.5687918,-0.56395406,-0.56577206,-0.5796691,-0.6087265,-0.64801407,-0.6885342,-0.7187934,-0.7345084,-0.7369119,-0.72905433,-0.72119683,-0.7193788,-0.7218131,-0.7260346,-0.7260346,-0.72363114,-0.7193788,-0.71697533,-0.716359,-0.71697533,-0.7260346,-0.7465874,-0.7725942,-0.7937633,-0.7605152,-0.614766,-0.32024777,0.09160936,0.5113239,0.7895417,0.78347135,0.48593342,0.006347537,-0.47807598,-0.80103534,-0.914122,-0.8669461,-0.75506115,-0.6625274,-0.616584,-0.6117462,-0.626845,-0.6468123,-0.6613256,-0.66554713,-0.66375995,-0.6576896,-0.65346813,-0.64924663,-0.6401565,-0.630481,-0.6214218,-0.61535144,-0.6117462,-0.60690844,-0.59963644,-0.59359694,-0.5887592,-0.5833051,-0.5742458,-0.5627523,-0.5512588,-0.5421995,-0.53372574,-0.5197979,-0.5034666,-0.48956954,-0.47989398,-0.4726528,-0.46236098,-0.44784766,-0.42969835,-0.4133671,-0.40067178,-0.38797647,-0.3734632,-0.3571319,-0.33836627,-0.31781346,-0.2948264,-0.27125382,-0.24888307,-0.22709775,-0.20290887,-0.1757003,-0.14787549,-0.1212523,-0.09706342,-0.07530892,-0.051120102,-0.025113225,-0.0015099645,0.017224789,0.029334664,0.037808537,0.039595604,0.02992022,0.0039132833,-0.0396266,-0.097679794,-0.1678428,-0.24583244,-0.32930702,-0.41275078,-0.49018586,-0.560318,-0.61960375,-0.6703849,-0.7121376,-0.74538565,-0.7725942,-0.7943796,-0.81132716,-0.8222044,-0.8288602,-0.8330817,-0.8361014,-0.8397375,-0.8415555,-0.8385357,-0.833698,-0.8282439,-0.82340616,-0.8203864,-0.8167504,-0.8125289,-0.8100946,-0.8100946,-0.80889285,-0.8064894,-0.80343884,-0.79983366,-0.79860103,-0.79739934,-0.79558134,-0.79317784,-0.79135984,-0.7919453,-0.79256153,-0.7901581,-0.7877238,-0.7859058,-0.78532034,-0.784704,-0.7822698,-0.77925,-0.77743196,-0.7780483,-0.7798663,-0.7798663,-0.7798663,-0.7798663,-0.781068,-0.7822698,-0.77925,-0.7738268,-0.76957446,-0.7683727,-0.76957446,-0.7701908,-0.77139246,-0.7701908,-0.76775646,-0.76353496,-0.75808096,-0.75324315,-0.75142515,-0.7544757,-0.75808096,-0.75808096,-0.75506115,-0.7502234,-0.7472037,-0.74538565,-0.7448002,-0.7448002,-0.74600196,-0.74902165,-0.7520414,-0.7520414,-0.7502234,-0.7472037,-0.7448002,-0.7411642,-0.7363264,-0.7326904,-0.7314886,-0.73330665,-0.73571014,-0.73571014,-0.73330665,-0.72967064,-0.7278526,-0.72723633,-0.72723633,-0.7260346,-0.7248329,-0.72301483,-0.71697533,-0.7085016,-0.7000277,-0.6946045,-0.6939882,-0.693372,-0.6873325,-0.6722029,-0.6486304,-0.6226235,-0.6008382,-0.58450687,-0.5748313,-0.57242787,-0.5790836,-0.59541494,-0.6189875,-0.6522664,-0.6879487,-0.7193788,-0.7411642,-0.7465874,-0.74174964,-0.7326904,-0.7254491,-0.72301483,-0.72061133,-0.7193788,-0.71697533,-0.71756077,-0.7187934,-0.7193788,-0.7193788,-0.72301483,-0.7369119,-0.75931346,-0.7786645,-0.7659693,-0.6619419,-0.4266786,-0.057775974,0.3607371,0.69217,0.7895417,0.5929805,0.18173969,-0.2972607,-0.6722029,-0.85668504,-0.8699658,-0.78652203,-0.69217026,-0.63593507,-0.62323976,-0.63833857,-0.65950763,-0.67161745,-0.67343545,-0.6673651,-0.6601239,-0.6540844,-0.64983207,-0.6444088,-0.63833857,-0.6329153,-0.62564325,-0.616584,-0.60690844,-0.5978184,-0.5923952,-0.58755744,-0.5802853,-0.57181156,-0.5615506,-0.5524605,-0.544603,-0.5343112,-0.5234339,-0.5137584,-0.5040828,-0.49440736,-0.48291373,-0.46840054,-0.4532709,-0.43999016,-0.42788035,-0.41456878,-0.40005547,-0.38070446,-0.3607679,-0.33898258,-0.31541002,-0.29242295,-0.27005213,-0.24826676,-0.22648138,-0.20290887,-0.17751831,-0.15209693,-0.12732261,-0.10433555,-0.08014667,-0.05654335,-0.032970726,-0.013003409,0.005731344,0.021477103,0.031152606,0.032970786,0.019042969,-0.01060003,-0.054139853,-0.11280936,-0.18417406,-0.26579982,-0.35167783,-0.4333344,-0.5065172,-0.5712261,-0.6280775,-0.67765695,-0.71756077,-0.74902165,-0.7756448,-0.79739934,-0.81493235,-0.8258405,-0.8330817,-0.8391212,-0.845777,-0.8518473,-0.8542508,-0.8524327,-0.847595,-0.8427572,-0.8379195,-0.83126366,-0.82522416,-0.8210027,-0.8203864,-0.82158816,-0.8210027,-0.81795216,-0.81373066,-0.8107109,-0.8082766,-0.80343884,-0.79681385,-0.78954184,-0.784704,-0.782886,-0.78350234,-0.7840878,-0.784704,-0.7840878,-0.7822698,-0.7780483,-0.7732105,-0.7701908,-0.770807,-0.7720088,-0.77139246,-0.7683727,-0.76535296,-0.76535296,-0.7665547,-0.7665547,-0.76535296,-0.7629187,-0.7629187,-0.76535296,-0.767171,-0.768989,-0.76957446,-0.7701908,-0.770807,-0.76957446,-0.767171,-0.76535296,-0.76535296,-0.7659693,-0.7647367,-0.76171696,-0.75808096,-0.75567746,-0.7544757,-0.75324315,-0.7520414,-0.7502234,-0.74963796,-0.7484054,-0.74600196,-0.7435676,-0.74174964,-0.74174964,-0.74174964,-0.7399624,-0.7375281,-0.7351247,-0.73571014,-0.73571014,-0.73330665,-0.72967064,-0.7254491,-0.7242166,-0.7248329,-0.7254491,-0.7248329,-0.72301483,-0.72301483,-0.72363114,-0.72363114,-0.7218131,-0.7193788,-0.71697533,-0.712723,-0.7048655,-0.69519,-0.68551445,-0.681293,-0.6806767,-0.6788587,-0.6710012,-0.6540844,-0.630481,-0.6044742,-0.5821034,-0.5669738,-0.55973256,-0.5591163,-0.56577206,-0.57846737,-0.6020707,-0.6365205,-0.6770407,-0.7121376,-0.7351247,-0.7423659,-0.7387299,-0.7308724,-0.7248329,-0.72061133,-0.7187934,-0.7181771,-0.7187934,-0.7199951,-0.7187934,-0.7157736,-0.7145411,-0.7218131,-0.7399624,-0.76535296,-0.7859058,-0.7720088,-0.66375995,-0.42002285,-0.032354534,0.41518497,0.7822696,0.91412187,0.7417495,0.3365482,-0.15573293,-0.56213605,-0.7871075,-0.8361014,-0.77743196,-0.693372,-0.6365205,-0.61960375,-0.628663,-0.6449943,-0.65587157,-0.65950763,-0.6601239,-0.6589222,-0.65587157,-0.64983207,-0.64197457,-0.6365205,-0.63229907,-0.626845,-0.6201892,-0.6123317,-0.60690844,-0.6020707,-0.5942132,-0.58392143,-0.57242787,-0.5615506,-0.55187505,-0.5421995,-0.532524,-0.5228485,-0.5143746,-0.5071026,-0.49804336,-0.4865498,-0.47505623,-0.46356273,-0.45025116,-0.4351524,-0.41820484,-0.40005547,-0.38495672,-0.3692109,-0.3510924,-0.32992333,-0.30573446,-0.28213114,-0.25855857,-0.23313725,-0.20472687,-0.175084,-0.14667368,-0.11884886,-0.09284204,-0.066835225,-0.0414446,-0.017255783,0.005145788,0.02690041,0.04686773,0.06076479,0.06378448,0.05290723,0.027516603,-0.013003409,-0.06865317,-0.13819993,-0.2180385,-0.3008659,-0.38252246,-0.46054298,-0.5312914,-0.5929806,-0.6437926,-0.684929,-0.7193788,-0.7508397,-0.7768465,-0.7961976,-0.80950916,-0.8185684,-0.8264259,-0.833698,-0.83733404,-0.8367177,-0.8348997,-0.833698,-0.8324654,-0.8306782,-0.8270422,-0.8240225,-0.82340616,-0.8227899,-0.8203864,-0.81554866,-0.8100946,-0.80769116,-0.80707484,-0.80525684,-0.8016516,-0.79681385,-0.7961976,-0.79739934,-0.79681385,-0.79317784,-0.78652203,-0.781068,-0.7780483,-0.7780483,-0.7786645,-0.7786645,-0.7798663,-0.78048253,-0.7798663,-0.7762303,-0.7720088,-0.770807,-0.77139246,-0.7725942,-0.77139246,-0.76775646,-0.7647367,-0.7623332,-0.7605152,-0.7586972,-0.75808096,-0.7605152,-0.76353496,-0.7659693,-0.7647367,-0.7623332,-0.7611315,-0.7605152,-0.75989896,-0.75749546,-0.75506115,-0.75385946,-0.75385946,-0.75324315,-0.7502234,-0.7465874,-0.74538565,-0.74538565,-0.74538565,-0.74298215,-0.7381444,-0.7338921,-0.7302869,-0.72905433,-0.72665083,-0.7248329,-0.7242166,-0.7242166,-0.7254491,-0.72665083,-0.72665083,-0.72665083,-0.72665083,-0.72665083,-0.7254491,-0.7242166,-0.7242166,-0.7242166,-0.72301483,-0.72061133,-0.71756077,-0.71697533,-0.7187934,-0.7193788,-0.71756077,-0.7139556,-0.7097033,-0.7072998,-0.70606726,-0.7036638,-0.700644,-0.6976243,-0.69519,-0.6927865,-0.6885342,-0.684929,-0.6836964,-0.68311095,-0.6806767,-0.67343545,-0.6643454,-0.6583059,-0.65587157,-0.6528518,-0.646196,-0.6298647,-0.60690844,-0.5827196,-0.56577206,-0.55609655,-0.55369306,-0.5567128,-0.56336856,-0.5754476,-0.59723294,-0.62927926,-0.6673651,-0.7030475,-0.7278526,-0.73571014,-0.7314886,-0.7223986,-0.7139556,-0.7103195,-0.7091178,-0.7085016,-0.710905,-0.7121376,-0.712723,-0.712723,-0.71756077,-0.7345084,-0.7629187,-0.79135984,-0.7883401,-0.69217026,-0.4569069,-0.068036854,0.40187335,0.8112962,0.996364,0.8609065,0.4635626,-0.055957854,-0.50590086,-0.7683727,-0.8409392,-0.78954184,-0.7036638,-0.64135826,-0.6189875,-0.626845,-0.646196,-0.66375995,-0.6710012,-0.6710012,-0.66677964,-0.6619419,-0.6564878,-0.64983207,-0.6444088,-0.6401565,-0.63593507,-0.6310973,-0.62200725,-0.61113,-0.6008382,-0.5911626,-0.58392143,-0.5766493,-0.5682063,-0.5609343,-0.5542785,-0.54580474,-0.53612924,-0.5246357,-0.5143746,-0.5034666,-0.4925893,-0.47807598,-0.46174473,-0.4454134,-0.42969835,-0.4151851,-0.39885372,-0.3837242,-0.36982715,-0.35349584,-0.33294308,-0.3075217,-0.27849507,-0.2506702,-0.224078,-0.19868737,-0.17086256,-0.14183593,-0.114596546,-0.08680254,-0.060179353,-0.031769097,-0.0033279061,0.021477103,0.04264629,0.05956304,0.07349086,0.081933856,0.0777123,0.05894673,0.025698662,-0.020275533,-0.07953042,-0.15271318,-0.23495525,-0.322035,-0.40612584,-0.48291373,-0.55369306,-0.61596775,-0.6685977,-0.7103195,-0.74298215,-0.7701908,-0.7919453,-0.80950916,-0.82158816,-0.830062,-0.83733404,-0.8421718,-0.8445753,-0.8427572,-0.8409392,-0.8397375,-0.8397375,-0.8385357,-0.833698,-0.8282439,-0.82340616,-0.81977016,-0.8161649,-0.8107109,-0.80587316,-0.8040551,-0.8046714,-0.8064894,-0.8040551,-0.79860103,-0.79499584,-0.79256153,-0.7937633,-0.7943796,-0.7937633,-0.7919453,-0.7883401,-0.784704,-0.781068,-0.77925,-0.7816843,-0.78532034,-0.7883401,-0.7871075,-0.784704,-0.78350234,-0.7840878,-0.7859058,-0.78532034,-0.78350234,-0.7822698,-0.7822698,-0.782886,-0.7822698,-0.782886,-0.784704,-0.7859058,-0.7840878,-0.77925,-0.7732105,-0.7701908,-0.770807,-0.7732105,-0.7725942,-0.770807,-0.768989,-0.76775646,-0.7659693,-0.76353496,-0.7605152,-0.7611315,-0.76171696,-0.76171696,-0.75567746,-0.74902165,-0.74538565,-0.7441839,-0.74538565,-0.7435676,-0.7405479,-0.7387299,-0.7387299,-0.73934615,-0.7381444,-0.7351247,-0.7345084,-0.7338921,-0.7326904,-0.7278526,-0.72301483,-0.72061133,-0.7199951,-0.72119683,-0.7199951,-0.7187934,-0.7193788,-0.7199951,-0.72119683,-0.7199951,-0.7187934,-0.72061133,-0.72301483,-0.7223986,-0.7199951,-0.71756077,-0.71756077,-0.7187934,-0.7181771,-0.7133393,-0.7085016,-0.7066835,-0.7085016,-0.712723,-0.712723,-0.7097033,-0.70606726,-0.69820976,-0.69155395,-0.6836964,-0.6770407,-0.6752535,-0.67281914,-0.6679814,-0.6528518,-0.6280775,-0.6020707,-0.5833051,-0.57242787,-0.5645703,-0.560318,-0.560318,-0.5712261,-0.6002527,-0.6407728,-0.684929,-0.72119683,-0.7405479,-0.74538565,-0.73571014,-0.7223986,-0.712723,-0.7085016,-0.70788527,-0.7066835,-0.7066835,-0.7085016,-0.7097033,-0.7133393,-0.71756077,-0.72967064,-0.75385946,-0.78048253,-0.781068,-0.6903522,-0.46054298,-0.08073223,0.36921084,0.74902165,0.90081024,0.7369118,0.3238529,-0.19203162,-0.6238252,-0.8554525,-0.8929529,-0.81311435,-0.7121376,-0.64801407,-0.628663,-0.63833857,-0.65710413,-0.67281914,-0.67947495,-0.67765695,-0.6722029,-0.66554713,-0.6601239,-0.6540844,-0.646196,-0.6389548,-0.634117,-0.62927926,-0.6244415,-0.614766,-0.6044742,-0.59541494,-0.58996093,-0.5851231,-0.5772656,-0.56638837,-0.55609655,-0.54642105,-0.53612924,-0.5246357,-0.5113549,-0.49804336,-0.48593348,-0.47505623,-0.46054298,-0.44602966,-0.4327181,-0.4188211,-0.40489322,-0.38677472,-0.3668074,-0.34625465,-0.32628727,-0.3075217,-0.2851509,-0.26157832,-0.2367732,-0.21138263,-0.18537575,-0.15634918,-0.12670636,-0.10008317,-0.075894475,-0.05232185,-0.028133035,-0.0021261573,0.02206266,0.041413665,0.054108977,0.05956304,0.054108977,0.035990477,0.0033278465,-0.0456661,-0.10917324,-0.18417406,-0.26700157,-0.34985983,-0.42969835,-0.5010631,-0.56577206,-0.6238252,-0.6740209,-0.71697533,-0.7508397,-0.7780483,-0.80103534,-0.81977016,-0.8324654,-0.8385357,-0.8415555,-0.843959,-0.8463933,-0.8487967,-0.8463933,-0.8415555,-0.8367177,-0.83188,-0.82944566,-0.82522416,-0.82158816,-0.81736666,-0.81311435,-0.8100946,-0.80587316,-0.80285335,-0.80103534,-0.8016516,-0.80285335,-0.8004191,-0.79739934,-0.79499584,-0.7937633,-0.7919453,-0.7877238,-0.7840878,-0.781068,-0.78048253,-0.782886,-0.78350234,-0.7822698,-0.7822698,-0.7816843,-0.781068,-0.77925,-0.7780483,-0.77743196,-0.7780483,-0.77925,-0.77743196,-0.7756448,-0.7744123,-0.7762303,-0.7762303,-0.7732105,-0.7701908,-0.76775646,-0.76775646,-0.7725942,-0.7725942,-0.770807,-0.7683727,-0.7665547,-0.76775646,-0.767171,-0.7659693,-0.7659693,-0.7665547,-0.767171,-0.7647367,-0.7623332,-0.75989896,-0.7605152,-0.7641513,-0.7647367,-0.7629187,-0.75989896,-0.7562937,-0.7520414,-0.7484054,-0.74600196,-0.74538565,-0.7472037,-0.7502234,-0.74902165,-0.7472037,-0.7448002,-0.7423659,-0.7405479,-0.73571014,-0.7308724,-0.7284689,-0.7278526,-0.7302869,-0.7320741,-0.7338921,-0.73571014,-0.7369119,-0.7375281,-0.7338921,-0.7308724,-0.72905433,-0.72967064,-0.72905433,-0.7248329,-0.7181771,-0.7097033,-0.7024621,-0.6963917,-0.6879487,-0.68009126,-0.6752535,-0.67161745,-0.66677964,-0.64983207,-0.6238252,-0.59600043,-0.5760639,-0.56638837,-0.56395406,-0.5675901,-0.5766493,-0.59600043,-0.6274613,-0.6649617,-0.7012295,-0.7278526,-0.7423659,-0.74298215,-0.7314886,-0.7187934,-0.71152127,-0.71152127,-0.716359,-0.7193788,-0.7193788,-0.7181771,-0.71756077,-0.7193788,-0.7242166,-0.7375281,-0.75931346,-0.782886,-0.77743196,-0.68311095,-0.4550889,-0.09102404,0.32869065,0.67100096,0.79135966,0.61960363,0.22346163,-0.25794232,-0.6510338,-0.85304904,-0.8729856,-0.7883401,-0.6891505,-0.6298647,-0.614766,-0.62564325,-0.6444088,-0.6589222,-0.6661634,-0.6643454,-0.65710413,-0.64983207,-0.6437926,-0.6389548,-0.6329153,-0.6262595,-0.6201892,-0.61596775,-0.6117462,-0.6026561,-0.5929806,-0.58392143,-0.5790836,-0.5754476,-0.56940806,-0.56213605,-0.55369306,-0.5452193,-0.53736174,-0.5264536,-0.5149601,-0.5034666,-0.49440736,-0.4847318,-0.4714203,-0.45632148,-0.43999016,-0.42547685,-0.41154903,-0.39339972,-0.3734632,-0.3522941,-0.33171046,-0.3141775,-0.29362464,-0.27063757,-0.24404532,-0.21498787,-0.18657756,-0.15693474,-0.1291098,-0.10433555,-0.08196479,-0.060795724,-0.03660685,-0.013003409,0.009367347,0.026314855,0.035990477,0.039010286,0.030536413,0.007549286,-0.034172535,-0.09284204,-0.16238868,-0.237975,-0.3166117,-0.39645028,-0.47385454,-0.5452193,-0.6087265,-0.6619419,-0.7066835,-0.7423659,-0.768989,-0.78954184,-0.80707484,-0.82158816,-0.8324654,-0.83733404,-0.8385357,-0.8379195,-0.8379195,-0.8385357,-0.8367177,-0.833698,-0.8306782,-0.8288602,-0.8264259,-0.8222044,-0.81795216,-0.81554866,-0.81373066,-0.8107109,-0.8040551,-0.7961976,-0.7901581,-0.7889255,-0.7907436,-0.7901581,-0.7877238,-0.784704,-0.7816843,-0.77925,-0.7768465,-0.7750285,-0.7738268,-0.7750285,-0.7762303,-0.7750285,-0.7732105,-0.7720088,-0.7720088,-0.7732105,-0.7725942,-0.770807,-0.768989,-0.7683727,-0.76775646,-0.76353496,-0.75989896,-0.75808096,-0.7586972,-0.7623332,-0.7629187,-0.76171696,-0.7605152,-0.75989896,-0.75931346,-0.7562937,-0.7526577,-0.7508397,-0.7502234,-0.75142515,-0.75142515,-0.7502234,-0.74963796,-0.7520414,-0.75324315,-0.7520414,-0.7478199,-0.7423659,-0.7399624,-0.7399624,-0.7405479,-0.74174964,-0.7411642,-0.7399624,-0.7387299,-0.7363264,-0.7338921,-0.7320741,-0.7320741,-0.7326904,-0.7320741,-0.7314886,-0.72967064,-0.72723633,-0.7248329,-0.72061133,-0.7181771,-0.7187934,-0.7223986,-0.72665083,-0.72723633,-0.7242166,-0.7193788,-0.71697533,-0.7157736,-0.7121376,-0.7066835,-0.69944227,-0.6946045,-0.69217026,-0.68976676,-0.6867162,-0.6788587,-0.66554713,-0.6437926,-0.61596775,-0.5923952,-0.5754476,-0.5669738,-0.5651558,-0.5651558,-0.57242787,-0.5905771,-0.62323976,-0.6643454,-0.69944227,-0.72301483,-0.7326904,-0.7314886,-0.7242166,-0.7145411,-0.70788527,-0.7036638,-0.7048655,-0.7066835,-0.7066835,-0.70548177,-0.70428,-0.7072998,-0.71756077,-0.7351247,-0.7586972,-0.7762303,-0.7568792,-0.6431763,-0.39339972,-0.0075494647,0.42726398,0.77441204,0.88749874,0.70726883,0.30690527,-0.173266,-0.56577206,-0.7756448,-0.81373066,-0.7526577,-0.6740209,-0.6280775,-0.6208055,-0.63229907,-0.6486304,-0.6607094,-0.66918314,-0.67281914,-0.6703849,-0.6649617,-0.6589222,-0.6540844,-0.64924663,-0.64197457,-0.63168275,-0.6201892,-0.61113,-0.6044742,-0.59723294,-0.5905771,-0.5833051,-0.5766493,-0.56940806,-0.5591163,-0.54762274,-0.53736174,-0.5282717,-0.5192124,-0.5089206,-0.4968416,-0.4847318,-0.47444004,-0.46356273,-0.45025116,-0.43635416,-0.4212246,-0.4073276,-0.39099622,-0.3710289,-0.34865808,-0.32628727,-0.30450195,-0.28151482,-0.25430626,-0.22589594,-0.19686937,-0.17024624,-0.14423943,-0.11521274,-0.08498454,-0.05472535,-0.028718531,-0.0069639087,0.014205098,0.034172416,0.05050373,0.05894673,0.05774498,0.045049787,0.018426538,-0.024497032,-0.08556992,-0.16057068,-0.2428127,-0.32748902,-0.41034734,-0.48775154,-0.55791456,-0.616584,-0.66554713,-0.7066835,-0.74298215,-0.7744123,-0.79739934,-0.81311435,-0.82522416,-0.8361014,-0.8445753,-0.8487967,-0.8500293,-0.849413,-0.849413,-0.849413,-0.845777,-0.8415555,-0.8385357,-0.83733404,-0.8361014,-0.8324654,-0.8258405,-0.81918466,-0.81736666,-0.8167504,-0.81373066,-0.80889285,-0.8040551,-0.8016516,-0.80103534,-0.79860103,-0.7943796,-0.78954184,-0.7889255,-0.79135984,-0.79317784,-0.79317784,-0.7901581,-0.7871075,-0.78350234,-0.7786645,-0.7756448,-0.77743196,-0.7822698,-0.7877238,-0.7907436,-0.78954184,-0.78652203,-0.78652203,-0.7889255,-0.7889255,-0.7877238,-0.78532034,-0.7840878,-0.78350234,-0.7822698,-0.7798663,-0.7762303,-0.7762303,-0.7786645,-0.78048253,-0.78048253,-0.7798663,-0.7798663,-0.781068,-0.781068,-0.77925,-0.7780483,-0.77743196,-0.77743196,-0.7744123,-0.770807,-0.767171,-0.7665547,-0.7665547,-0.7647367,-0.7623332,-0.75989896,-0.7611315,-0.76535296,-0.76775646,-0.7683727,-0.767171,-0.7659693,-0.7641513,-0.7611315,-0.75749546,-0.75324315,-0.75142515,-0.74963796,-0.74600196,-0.7423659,-0.7399624,-0.7405479,-0.7423659,-0.7411642,-0.7375281,-0.7338921,-0.7320741,-0.7320741,-0.7314886,-0.72905433,-0.7248329,-0.72301483,-0.7223986,-0.7218131,-0.72119683,-0.7199951,-0.7181771,-0.7133393,-0.70428,-0.6946045,-0.684929,-0.6824947,-0.6806767,-0.6764552,-0.6649617,-0.64197457,-0.616584,-0.59541494,-0.5833051,-0.5796691,-0.5802853,-0.5827196,-0.5905771,-0.6062922,-0.6347333,-0.67343545,-0.712723,-0.74174964,-0.7544757,-0.7508397,-0.73934615,-0.72905433,-0.7248329,-0.72363114,-0.72301483,-0.72301483,-0.72363114,-0.7248329,-0.7260346,-0.72905433,-0.7399624,-0.7641513,-0.79135984,-0.7961976,-0.7187934,-0.5107386,-0.15511668,0.29544258,0.70850146,0.9328567,0.8554523,0.5071025,0.014205098,-0.4430099,-0.7314886,-0.8270422,-0.79317784,-0.7145411,-0.6546699,-0.63229907,-0.63833857,-0.65587157,-0.67161745,-0.68009126,-0.681293,-0.6788587,-0.67583895,-0.67161745,-0.6649617,-0.65710413,-0.64801407,-0.6401565,-0.63229907,-0.62323976,-0.61294794,-0.60388875,-0.59723294,-0.5905771,-0.5821034,-0.57242787,-0.56213605,-0.5548948,-0.5488553,-0.54158324,-0.53190774,-0.5204141,-0.5089206,-0.4986288,-0.4871661,-0.47323823,-0.45810866,-0.44421166,-0.4290821,-0.41216534,-0.39463228,-0.3776847,-0.36015165,-0.34138602,-0.31842977,-0.2911904,-0.26339632,-0.237975,-0.21196812,-0.18475956,-0.15453118,-0.12368661,-0.09404367,-0.06621885,-0.038394034,-0.011185408,0.01482141,0.036575913,0.05592704,0.0716728,0.080115795,0.077096105,0.05774498,0.022678852,-0.027516782,-0.09040767,-0.16420674,-0.24826676,-0.33596283,-0.42002285,-0.4968416,-0.5645703,-0.6262595,-0.6806767,-0.7254491,-0.75931346,-0.78350234,-0.8022371,-0.8167504,-0.8288602,-0.8379195,-0.8451915,-0.8518473,-0.85727054,-0.8597048,-0.8602903,-0.8597048,-0.8597048,-0.8584722,-0.8536345,-0.84700954,-0.8397375,-0.835516,-0.8342835,-0.83188,-0.8282439,-0.82340616,-0.82158816,-0.81977016,-0.81736666,-0.8143469,-0.8100946,-0.80769116,-0.80769116,-0.80707484,-0.80525684,-0.8016516,-0.79860103,-0.79499584,-0.7919453,-0.7889255,-0.7889255,-0.79256153,-0.79558134,-0.79558134,-0.7919453,-0.7877238,-0.784704,-0.78532034,-0.7859058,-0.7859058,-0.784704,-0.784704,-0.78532034,-0.7871075,-0.7889255,-0.78954184,-0.79135984,-0.7907436,-0.78652203,-0.781068,-0.77743196,-0.7780483,-0.781068,-0.78350234,-0.78350234,-0.782886,-0.78350234,-0.7840878,-0.78350234,-0.78048253,-0.77743196,-0.7786645,-0.7798663,-0.781068,-0.77925,-0.7750285,-0.7725942,-0.7701908,-0.7659693,-0.7611315,-0.75567746,-0.75506115,-0.75567746,-0.7568792,-0.75567746,-0.7544757,-0.75385946,-0.7520414,-0.74963796,-0.7435676,-0.7387299,-0.7387299,-0.7411642,-0.7423659,-0.7411642,-0.7381444,-0.73571014,-0.7345084,-0.7326904,-0.7302869,-0.72723633,-0.72665083,-0.7278526,-0.7284689,-0.7278526,-0.72665083,-0.72665083,-0.7254491,-0.72363114,-0.72061133,-0.716359,-0.71152127,-0.7036638,-0.693372,-0.681293,-0.67161745,-0.6661634,-0.6613256,-0.6522664,-0.6329153,-0.6081102,-0.5869411,-0.5730441,-0.5675901,-0.56577206,-0.56638837,-0.5736296,-0.5905771,-0.6208055,-0.6601239,-0.70184577,-0.7369119,-0.75749546,-0.7611315,-0.7526577,-0.7399624,-0.7314886,-0.7284689,-0.7278526,-0.7260346,-0.72363114,-0.72301483,-0.7223986,-0.7254491,-0.7351247,-0.7562937,-0.7840878,-0.79558134,-0.73571014,-0.548239,-0.21258438,0.22829938,0.65103364,0.90444624,0.8639262,0.54398656,0.057159543,-0.4206391,-0.7381444,-0.8524327,-0.8203864,-0.73330665,-0.66375995,-0.6371368,-0.6444088,-0.66554713,-0.6867162,-0.700644,-0.7048655,-0.7012295,-0.693372,-0.6873325,-0.68311095,-0.6782732,-0.6703849,-0.6613256,-0.6540844,-0.64742863,-0.64135826,-0.6335008,-0.6244415,-0.616584,-0.60931194,-0.6020707,-0.5917789,-0.5802853,-0.56940806,-0.55973256,-0.54944074,-0.5385635,-0.5258682,-0.5143746,-0.50226486,-0.48895323,-0.47385454,-0.45810866,-0.44239366,-0.42547685,-0.4073276,-0.38677472,-0.3649894,-0.3444366,-0.32326752,-0.30028045,-0.2748899,-0.24826676,-0.22225994,-0.19563681,-0.1672265,-0.13576561,-0.103719294,-0.074692726,-0.04868585,-0.02388078,0.00089359283,0.025698662,0.046251416,0.06258273,0.07225835,0.07225835,0.05956304,0.028718352,-0.018457532,-0.08014667,-0.15271318,-0.2325517,-0.31781346,-0.40550953,-0.48836786,-0.5615506,-0.625027,-0.6806767,-0.7284689,-0.76775646,-0.79739934,-0.81795216,-0.833698,-0.8463933,-0.85727054,-0.8639263,-0.8681478,-0.8717838,-0.8742181,-0.8742181,-0.8705821,-0.86512804,-0.8609066,-0.8578868,-0.85668504,-0.85486704,-0.85123104,-0.8482113,-0.8445753,-0.8409392,-0.835516,-0.8306782,-0.82762766,-0.8240225,-0.82158816,-0.81795216,-0.8161649,-0.81493235,-0.81311435,-0.80889285,-0.80343884,-0.79860103,-0.79921734,-0.8016516,-0.8040551,-0.8046714,-0.80285335,-0.8016516,-0.79983366,-0.79860103,-0.7961976,-0.79558134,-0.7980156,-0.8004191,-0.8004191,-0.79739934,-0.79256153,-0.7901581,-0.7889255,-0.7877238,-0.78532034,-0.78350234,-0.782886,-0.7840878,-0.784704,-0.7840878,-0.782886,-0.78350234,-0.784704,-0.78532034,-0.784704,-0.784704,-0.7859058,-0.7871075,-0.7877238,-0.784704,-0.781068,-0.78048253,-0.781068,-0.781068,-0.7798663,-0.77743196,-0.7768465,-0.7780483,-0.7798663,-0.7780483,-0.7744123,-0.7720088,-0.76957446,-0.7665547,-0.76353496,-0.75989896,-0.75931346,-0.75989896,-0.76171696,-0.7623332,-0.76171696,-0.76171696,-0.75989896,-0.75808096,-0.75506115,-0.75142515,-0.74902165,-0.7465874,-0.7435676,-0.7375281,-0.7338921,-0.7326904,-0.7320741,-0.7314886,-0.72723633,-0.7218131,-0.7145411,-0.7066835,-0.6976243,-0.6879487,-0.6806767,-0.6764552,-0.6679814,-0.6504483,-0.6244415,-0.599051,-0.58450687,-0.5814871,-0.58392143,-0.5863248,-0.5905771,-0.6044742,-0.63168275,-0.6703849,-0.7097033,-0.7405479,-0.75931346,-0.7641513,-0.75931346,-0.74902165,-0.73934615,-0.7351247,-0.7326904,-0.7302869,-0.72665083,-0.72363114,-0.7242166,-0.7284689,-0.7381444,-0.75567746,-0.7780483,-0.7943796,-0.75324315,-0.5942132,-0.2791114,0.15453112,0.583305,0.84999835,0.8167503,0.49077117,-0.008782029,-0.50044686,-0.82158816,-0.92743355,-0.87119836,-0.75567746,-0.66554713,-0.6280775,-0.63168275,-0.64924663,-0.6649617,-0.6752535,-0.67765695,-0.6746372,-0.6703849,-0.66375995,-0.6583059,-0.6522664,-0.6449943,-0.63531876,-0.6274613,-0.6238252,-0.62200725,-0.6189875,-0.6123317,-0.60327244,-0.59359694,-0.58450687,-0.5754476,-0.56336856,-0.5512588,-0.54038155,-0.5294734,-0.52161586,-0.5101223,-0.49804336,-0.48775154,-0.4768743,-0.4653808,-0.4490494,-0.43151635,-0.41398335,-0.39765203,-0.38070446,-0.3607679,-0.33716458,-0.31359196,-0.2887869,-0.26521432,-0.23979294,-0.21258438,-0.18537575,-0.15875268,-0.13034236,-0.1013158,-0.07349092,-0.049887598,-0.028133035,-0.0081656575,0.0130034685,0.032970786,0.04686773,0.054108977,0.051089287,0.037808537,0.009983659,-0.035374284,-0.09888154,-0.175084,-0.25794232,-0.34320408,-0.42969835,-0.5113549,-0.5851231,-0.646196,-0.6963917,-0.7375281,-0.770807,-0.7980156,-0.8203864,-0.8385357,-0.85486704,-0.86756235,-0.87541986,-0.8784396,-0.87723786,-0.8742181,-0.87119836,-0.86756235,-0.8609066,-0.8560688,-0.8524327,-0.8487967,-0.8451915,-0.8397375,-0.835516,-0.8324654,-0.8330817,-0.833698,-0.83188,-0.8270422,-0.8227899,-0.8185684,-0.81554866,-0.81311435,-0.81191266,-0.8125289,-0.81373066,-0.8125289,-0.80707484,-0.79921734,-0.79558134,-0.79558134,-0.79739934,-0.79921734,-0.79983366,-0.79921734,-0.7980156,-0.79739934,-0.79499584,-0.79256153,-0.79317784,-0.7943796,-0.79317784,-0.7877238,-0.781068,-0.7786645,-0.77925,-0.78350234,-0.784704,-0.782886,-0.7816843,-0.78048253,-0.7786645,-0.7768465,-0.7750285,-0.7768465,-0.77925,-0.7822698,-0.7822698,-0.7816843,-0.7822698,-0.782886,-0.782886,-0.7798663,-0.7750285,-0.7725942,-0.77139246,-0.7738268,-0.7744123,-0.7744123,-0.7744123,-0.7732105,-0.77139246,-0.7683727,-0.7659693,-0.76535296,-0.7641513,-0.7629187,-0.7568792,-0.75142515,-0.7478199,-0.7441839,-0.73934615,-0.7302869,-0.7187934,-0.710905,-0.7091178,-0.7085016,-0.7036638,-0.6885342,-0.6661634,-0.6425909,-0.6238252,-0.60931194,-0.6008382,-0.599051,-0.6044742,-0.6208055,-0.64924663,-0.68551445,-0.7242166,-0.75506115,-0.77139246,-0.77139246,-0.7623332,-0.7520414,-0.7465874,-0.7448002,-0.74298215,-0.7423659,-0.7441839,-0.7472037,-0.74963796,-0.7484054,-0.74902165,-0.75931346,-0.77925,-0.8016516,-0.80103534,-0.72665083,-0.5312914,-0.19686937,0.21316981,0.57846725,0.747789,0.6238252,0.2543062,-0.2301175,-0.64983207,-0.8869134,-0.9340893,-0.8584722,-0.75506115,-0.6824947,-0.65710413,-0.66375995,-0.6782732,-0.6891505,-0.6903522,-0.68613076,-0.6824947,-0.67947495,-0.6764552,-0.66918314,-0.6601239,-0.65346813,-0.6486304,-0.6456106,-0.6389548,-0.6310973,-0.6244415,-0.6177857,-0.6123317,-0.60327244,-0.5942132,-0.58450687,-0.5754476,-0.56577206,-0.5548948,-0.5439867,-0.53554374,-0.5264536,-0.5149601,-0.4992451,-0.48109573,-0.46476448,-0.4508674,-0.43875766,-0.42365885,-0.4073276,-0.38979447,-0.37404865,-0.36196965,-0.34804183,-0.32628727,-0.2930084,-0.25430626,-0.21378613,-0.17628574,-0.14849168,-0.12368661,-0.10008317,-0.07712692,-0.052907348,-0.027516782,-0.0045297146,0.016023159,0.031152606,0.039595604,0.039010286,0.023264289,-0.0081656575,-0.05836135,-0.12186861,-0.19625306,-0.27667707,-0.35953534,-0.43999016,-0.5149601,-0.58392143,-0.646196,-0.69820976,-0.7399624,-0.768989,-0.78954184,-0.80587316,-0.81977016,-0.8324654,-0.8421718,-0.8506148,-0.8578868,-0.8621083,-0.86272454,-0.85727054,-0.85123104,-0.845777,-0.8421718,-0.8415555,-0.8385357,-0.835516,-0.833698,-0.83188,-0.8288602,-0.8227899,-0.81736666,-0.81311435,-0.8107109,-0.80950916,-0.80525684,-0.8004191,-0.79739934,-0.7961976,-0.79558134,-0.79256153,-0.7889255,-0.7883401,-0.7889255,-0.7901581,-0.7889255,-0.7859058,-0.78532034,-0.7871075,-0.7901581,-0.79135984,-0.79256153,-0.7919453,-0.7919453,-0.7901581,-0.7859058,-0.7816843,-0.7798663,-0.781068,-0.782886,-0.7816843,-0.7798663,-0.7780483,-0.7780483,-0.7786645,-0.77743196,-0.7780483,-0.781068,-0.78532034,-0.7877238,-0.78532034,-0.7798663,-0.7744123,-0.77139246,-0.76957446,-0.76775646,-0.7659693,-0.767171,-0.76957446,-0.77139246,-0.7683727,-0.76353496,-0.7611315,-0.7611315,-0.76171696,-0.75567746,-0.7448002,-0.7345084,-0.72723633,-0.7248329,-0.7223986,-0.7187934,-0.712723,-0.7012295,-0.68551445,-0.6625274,-0.6407728,-0.6262595,-0.6177857,-0.61356425,-0.61294794,-0.61960375,-0.6389548,-0.6722029,-0.7133393,-0.7478199,-0.770807,-0.781068,-0.7780483,-0.7683727,-0.75749546,-0.74963796,-0.7465874,-0.74538565,-0.74538565,-0.74298215,-0.7411642,-0.7405479,-0.7423659,-0.7465874,-0.75324315,-0.768989,-0.78954184,-0.80525684,-0.77925,-0.65346813,-0.39037997,-0.000308156,0.42486048,0.74720347,0.82522404,0.6117153,0.18777919,-0.29424095,-0.66979945,-0.8524327,-0.8669461,-0.7907436,-0.70606726,-0.6583059,-0.6468123,-0.6576896,-0.6746372,-0.68613076,-0.6891505,-0.6836964,-0.6752535,-0.66918314,-0.6661634,-0.6643454,-0.6589222,-0.6516501,-0.6431763,-0.63593507,-0.62927926,-0.62200725,-0.61596775,-0.60992825,-0.6050905,-0.5984347,-0.5881429,-0.5772656,-0.5675901,-0.55973256,-0.55307674,-0.5427849,-0.5294734,-0.5161927,-0.50288117,-0.4907713,-0.4768743,-0.46356273,-0.44966573,-0.4351524,-0.42002285,-0.40005547,-0.3770684,-0.35411215,-0.33050877,-0.30631995,-0.2791114,-0.25008482,-0.22225994,-0.19384962,-0.16661018,-0.13699818,-0.1073553,-0.08134842,-0.05654335,-0.031152785,-0.0027117133,0.025082469,0.04686773,0.058361292,0.05956304,0.05050373,0.025698662,-0.01784128,-0.07832867,-0.15209693,-0.23131919,-0.3141775,-0.39823753,-0.47989398,-0.5542785,-0.61596775,-0.66677964,-0.710905,-0.74963796,-0.782886,-0.80769116,-0.8264259,-0.8403537,-0.8500293,-0.85668504,-0.85908854,-0.8597048,-0.8621083,-0.8645426,-0.8669461,-0.8645426,-0.8584722,-0.85304904,-0.8487967,-0.845777,-0.8415555,-0.83733404,-0.833698,-0.83126366,-0.8282439,-0.8222044,-0.81493235,-0.80950916,-0.80707484,-0.8064894,-0.8046714,-0.80285335,-0.80103534,-0.79921734,-0.7961976,-0.7901581,-0.784704,-0.78350234,-0.7871075,-0.79317784,-0.79558134,-0.79499584,-0.79135984,-0.7859058,-0.7816843,-0.7762303,-0.7738268,-0.7750285,-0.7786645,-0.7816843,-0.7786645,-0.7720088,-0.7665547,-0.76353496,-0.7647367,-0.7665547,-0.7683727,-0.768989,-0.7683727,-0.76775646,-0.76535296,-0.76353496,-0.7647367,-0.767171,-0.7701908,-0.768989,-0.7659693,-0.7623332,-0.75989896,-0.75931346,-0.7568792,-0.75324315,-0.7502234,-0.7484054,-0.7472037,-0.7441839,-0.7411642,-0.7405479,-0.74174964,-0.74538565,-0.7465874,-0.7465874,-0.7448002,-0.7423659,-0.7399624,-0.7338921,-0.72905433,-0.7260346,-0.7254491,-0.7278526,-0.7284689,-0.7284689,-0.72905433,-0.7302869,-0.7302869,-0.7260346,-0.7193788,-0.7103195,-0.7024621,-0.69519,-0.6873325,-0.681293,-0.67765695,-0.67281914,-0.6649617,-0.646196,-0.6201892,-0.59600043,-0.5796691,-0.57242787,-0.5682063,-0.56638837,-0.5712261,-0.5869411,-0.61596775,-0.6540844,-0.6927865,-0.7248329,-0.7448002,-0.7502234,-0.7405479,-0.72665083,-0.716359,-0.7145411,-0.71756077,-0.71756077,-0.716359,-0.7139556,-0.7139556,-0.71756077,-0.7248329,-0.7399624,-0.7641513,-0.78954184,-0.79256153,-0.7145411,-0.5077189,-0.15151143,0.30028033,0.7187624,0.952824,0.8802575,0.5337255,0.036575913,-0.4327181,-0.73330665,-0.8391212,-0.80950916,-0.72967064,-0.66375995,-0.6335008,-0.63168275,-0.6449943,-0.6601239,-0.6722029,-0.67583895,-0.6746372,-0.6710012,-0.6673651,-0.6643454,-0.6583059,-0.6522664,-0.646196,-0.6407728,-0.634117,-0.6238252,-0.6123317,-0.6020707,-0.59541494,-0.58996093,-0.5827196,-0.5742458,-0.56577206,-0.5567128,-0.548239,-0.53736174,-0.5252519,-0.5137584,-0.50288117,-0.4925893,-0.47749054,-0.46115923,-0.44359535,-0.4272949,-0.41154903,-0.39281422,-0.3734632,-0.35349584,-0.33294308,-0.30995595,-0.28151482,-0.25008482,-0.2180385,-0.18839556,-0.16238868,-0.13456386,-0.10492104,-0.07530892,-0.04446435,-0.014205158,0.017224789,0.046251416,0.07044029,0.0873878,0.09826517,0.10430467,0.0994668,0.07891405,0.039595604,-0.01784128,-0.08680254,-0.16359043,-0.24706507,-0.33171046,-0.4158013,-0.4907713,-0.5572983,-0.61356425,-0.6625274,-0.7036638,-0.7351247,-0.75931346,-0.77925,-0.79558134,-0.80769116,-0.8143469,-0.81736666,-0.81918466,-0.8203864,-0.82158816,-0.8203864,-0.81918466,-0.81736666,-0.8167504,-0.81554866,-0.8100946,-0.8046714,-0.79983366,-0.79681385,-0.79681385,-0.79499584,-0.7919453,-0.7901581,-0.7871075,-0.7840878,-0.77925,-0.7768465,-0.7750285,-0.7732105,-0.770807,-0.7647367,-0.75808096,-0.7568792,-0.75931346,-0.7629187,-0.7641513,-0.7623332,-0.76171696,-0.7629187,-0.76775646,-0.768989,-0.76957446,-0.7683727,-0.767171,-0.767171,-0.7641513,-0.7605152,-0.75749546,-0.7568792,-0.75808096,-0.75749546,-0.7544757,-0.75142515,-0.74902165,-0.7478199,-0.74538565,-0.74298215,-0.74174964,-0.74298215,-0.74538565,-0.7441839,-0.7411642,-0.7381444,-0.7369119,-0.7375281,-0.7369119,-0.73571014,-0.73330665,-0.7338921,-0.7345084,-0.7320741,-0.72905433,-0.7254491,-0.7223986,-0.7218131,-0.7199951,-0.7181771,-0.7157736,-0.716359,-0.71756077,-0.71697533,-0.71697533,-0.716359,-0.71756077,-0.7193788,-0.7187934,-0.7157736,-0.7121376,-0.7103195,-0.7103195,-0.7097033,-0.7091178,-0.7085016,-0.70788527,-0.70606726,-0.7012295,-0.69519,-0.6909685,-0.68976676,-0.6909685,-0.6909685,-0.6903522,-0.68976676,-0.6909685,-0.6927865,-0.6909685,-0.6867162,-0.68311095,-0.6824947,-0.68311095,-0.6824947,-0.6806767,-0.6770407,-0.6722029,-0.66554713,-0.65587157,-0.6456106,-0.6377531,-0.634117,-0.6310973,-0.6189875,-0.5966166,-0.56940806,-0.54642105,-0.5343112,-0.53190774,-0.5331094,-0.53736174,-0.54642105,-0.5645703,-0.5942132,-0.6335008,-0.67343545,-0.7048655,-0.72119683,-0.7193788,-0.7091178,-0.69944227,-0.69580626,-0.697008,-0.697008,-0.6946045,-0.68976676,-0.6885342,-0.6909685,-0.7000277,-0.72061133,-0.7508397,-0.7780483,-0.75749546,-0.6226235,-0.33534652,0.09284186,0.5579144,0.90808237,0.9939605,0.7701906,0.3202169,-0.19203162,-0.5893446,-0.784704,-0.80343884,-0.72967064,-0.64924663,-0.60931194,-0.6087265,-0.6280775,-0.6504483,-0.6673651,-0.6746372,-0.6722029,-0.6679814,-0.6643454,-0.6625274,-0.65950763,-0.6516501,-0.6425909,-0.634117,-0.6274613,-0.62200725,-0.6123317,-0.59963644,-0.5881429,-0.5802853,-0.5742458,-0.5669738,-0.5585308,-0.54944074,-0.54158324,-0.53372574,-0.5228485,-0.50953686,-0.49560905,-0.48232836,-0.46960223,-0.45450348,-0.4393739,-0.42606235,-0.41216534,-0.39645028,-0.37586665,-0.35349584,-0.33112508,-0.31235945,-0.29180664,-0.26641607,-0.23738945,-0.20774662,-0.1799218,-0.15332943,-0.12427205,-0.09342742,-0.061997354,-0.032354534,-0.0063476562,0.019659162,0.045049787,0.06742048,0.08436811,0.09586167,0.10190117,0.09706342,0.07832861,0.039010286,-0.01904291,-0.09040767,-0.17086256,-0.257326,-0.34625465,-0.4327181,-0.5107386,-0.57846737,-0.6347333,-0.68311095,-0.72301483,-0.75385946,-0.77743196,-0.7943796,-0.80950916,-0.8222044,-0.83126366,-0.8385357,-0.843959,-0.8487967,-0.85123104,-0.8518473,-0.847595,-0.8415555,-0.8348997,-0.8288602,-0.8227899,-0.81736666,-0.81311435,-0.81132716,-0.8100946,-0.80889285,-0.8082766,-0.8064894,-0.80587316,-0.80285335,-0.79739934,-0.7889255,-0.78048253,-0.7756448,-0.7744123,-0.7738268,-0.7750285,-0.7768465,-0.77925,-0.7816843,-0.7816843,-0.7816843,-0.7822698,-0.7840878,-0.78532034,-0.7816843,-0.7786645,-0.7756448,-0.7762303,-0.7786645,-0.7780483,-0.7762303,-0.7768465,-0.7798663,-0.7822698,-0.7798663,-0.7732105,-0.76775646,-0.768989,-0.7744123,-0.77925,-0.7786645,-0.7738268,-0.7701908,-0.76957446,-0.7701908,-0.768989,-0.7659693,-0.76353496,-0.7629187,-0.7623332,-0.75989896,-0.75749546,-0.7562937,-0.75749546,-0.75808096,-0.75749546,-0.75385946,-0.7520414,-0.7508397,-0.74902165,-0.7465874,-0.7423659,-0.73934615,-0.7381444,-0.7351247,-0.7314886,-0.7278526,-0.72723633,-0.7278526,-0.7278526,-0.72723633,-0.7260346,-0.72665083,-0.7260346,-0.7242166,-0.7223986,-0.7223986,-0.72665083,-0.7320741,-0.7326904,-0.7284689,-0.7223986,-0.7181771,-0.7181771,-0.7193788,-0.7193788,-0.71697533,-0.7145411,-0.7133393,-0.7103195,-0.7085016,-0.7085016,-0.7091178,-0.7085016,-0.70184577,-0.6903522,-0.6788587,-0.6710012,-0.66677964,-0.66375995,-0.6583059,-0.646196,-0.6280775,-0.6081102,-0.58996093,-0.5790836,-0.5748313,-0.5748313,-0.5760639,-0.58392143,-0.6044742,-0.63833857,-0.681293,-0.7199951,-0.7411642,-0.74538565,-0.7381444,-0.7278526,-0.7199951,-0.716359,-0.7157736,-0.71515733,-0.7157736,-0.716359,-0.716359,-0.71756077,-0.7254491,-0.74600196,-0.7744123,-0.79739934,-0.7720088,-0.6371368,-0.35349584,0.05592704,0.48713517,0.7895417,0.8143159,0.53733087,0.06319904,-0.43213266,-0.77925,-0.914122,-0.8802576,-0.7720088,-0.6770407,-0.630481,-0.6244415,-0.64197457,-0.6601239,-0.6685977,-0.66979945,-0.6661634,-0.66375995,-0.6607094,-0.6564878,-0.6504483,-0.6425909,-0.63531876,-0.6262595,-0.614766,-0.60327244,-0.59359694,-0.5881429,-0.5827196,-0.5760639,-0.5682063,-0.560318,-0.55548024,-0.5512588,-0.54340124,-0.5312914,-0.5161927,-0.50226486,-0.49018586,-0.47807598,-0.46599698,-0.45388716,-0.4430099,-0.43213266,-0.4188211,-0.40067178,-0.38011897,-0.35771734,-0.33534652,-0.3129757,-0.2911904,-0.26823407,-0.24583244,-0.22105825,-0.19203162,-0.16057068,-0.1291098,-0.10313374,-0.08134842,-0.058977604,-0.034788847,-0.009367406,0.013588786,0.033556104,0.05050373,0.061997294,0.065017104,0.05472529,0.02690041,-0.01663953,-0.07651067,-0.14849168,-0.2307337,-0.31599545,-0.39823753,-0.47625798,-0.54642105,-0.6105137,-0.66677964,-0.7139556,-0.75385946,-0.7859058,-0.81191266,-0.8306782,-0.8403537,-0.843959,-0.845777,-0.8487967,-0.8524327,-0.8518473,-0.847595,-0.8421718,-0.8385357,-0.8367177,-0.8348997,-0.82944566,-0.8240225,-0.82158816,-0.81977016,-0.81918466,-0.81493235,-0.80889285,-0.80343884,-0.8004191,-0.79739934,-0.79499584,-0.79317784,-0.79317784,-0.79135984,-0.78954184,-0.7859058,-0.7816843,-0.78048253,-0.7798663,-0.7780483,-0.7768465,-0.7762303,-0.7780483,-0.781068,-0.78048253,-0.77743196,-0.7732105,-0.770807,-0.770807,-0.770807,-0.770807,-0.770807,-0.7732105,-0.7750285,-0.7744123,-0.77139246,-0.76775646,-0.7665547,-0.767171,-0.767171,-0.76535296,-0.7629187,-0.76171696,-0.7605152,-0.75749546,-0.75324315,-0.7502234,-0.7502234,-0.7526577,-0.7520414,-0.7502234,-0.7484054,-0.74963796,-0.75324315,-0.75567746,-0.7544757,-0.7502234,-0.7465874,-0.74538565,-0.7448002,-0.7448002,-0.7435676,-0.7441839,-0.7435676,-0.7405479,-0.73571014,-0.7302869,-0.7284689,-0.7278526,-0.7284689,-0.72905433,-0.72905433,-0.7308724,-0.7302869,-0.72905433,-0.7260346,-0.72301483,-0.7218131,-0.7199951,-0.71697533,-0.712723,-0.7085016,-0.7066835,-0.7066835,-0.70548177,-0.70184577,-0.69519,-0.6873325,-0.67765695,-0.66918314,-0.6619419,-0.65587157,-0.6468123,-0.6310973,-0.60992825,-0.5905771,-0.57846737,-0.5754476,-0.5766493,-0.5790836,-0.5857394,-0.6026561,-0.6335008,-0.6710012,-0.70428,-0.7248329,-0.7320741,-0.7308724,-0.7254491,-0.7193788,-0.7133393,-0.7091178,-0.7072998,-0.7072998,-0.70788527,-0.7103195,-0.7139556,-0.7254491,-0.7448002,-0.76957446,-0.7883401,-0.7641513,-0.6389548,-0.37223065,0.025082469,0.45268524,0.76837254,0.82220423,0.58087075,0.13940144,-0.34563828,-0.70548177,-0.86938035,-0.8663606,-0.7768465,-0.68311095,-0.6298647,-0.61960375,-0.6329153,-0.6504483,-0.6619419,-0.6649617,-0.66375995,-0.6625274,-0.6607094,-0.6564878,-0.6504483,-0.6437926,-0.6365205,-0.62927926,-0.62200725,-0.61294794,-0.60567594,-0.59963644,-0.5942132,-0.5887592,-0.5821034,-0.5736296,-0.56577206,-0.5572983,-0.54762274,-0.5385635,-0.5307059,-0.5222322,-0.5137584,-0.5040828,-0.4925893,-0.48109573,-0.46658248,-0.44966573,-0.43031466,-0.41216534,-0.39521778,-0.3795027,-0.35953534,-0.33654827,-0.3105722,-0.2869689,-0.26398182,-0.23979294,-0.21378613,-0.1859613,-0.15816724,-0.12972611,-0.10190129,-0.07349092,-0.04628235,-0.023295283,-0.0021261573,0.01784122,0.035374165,0.04748404,0.04748404,0.034172416,0.005145788,-0.040828347,-0.10190129,-0.17810374,-0.26278007,-0.34865808,-0.43031466,-0.50590086,-0.5736296,-0.63168275,-0.6788587,-0.7157736,-0.74600196,-0.7725942,-0.7943796,-0.81191266,-0.8227899,-0.830062,-0.8367177,-0.8421718,-0.8463933,-0.84700954,-0.843959,-0.8421718,-0.8385357,-0.8342835,-0.8288602,-0.8246079,-0.82762766,-0.8288602,-0.82522416,-0.81493235,-0.79921734,-0.78954184,-0.7889255,-0.79135984,-0.7919453,-0.7883401,-0.784704,-0.7816843,-0.7798663,-0.7762303,-0.7720088,-0.7683727,-0.7665547,-0.767171,-0.768989,-0.7701908,-0.77139246,-0.7720088,-0.770807,-0.768989,-0.767171,-0.76775646,-0.7683727,-0.768989,-0.76775646,-0.76535296,-0.76353496,-0.76171696,-0.75989896,-0.7586972,-0.7586972,-0.75989896,-0.75989896,-0.7568792,-0.7520414,-0.7484054,-0.7484054,-0.74963796,-0.7508397,-0.74963796,-0.7472037,-0.7478199,-0.74963796,-0.75142515,-0.7502234,-0.7478199,-0.7465874,-0.74600196,-0.7435676,-0.73934615,-0.7345084,-0.73330665,-0.7345084,-0.7363264,-0.7369119,-0.7345084,-0.73330665,-0.7308724,-0.72723633,-0.7223986,-0.71756077,-0.716359,-0.7181771,-0.72061133,-0.72119683,-0.72061133,-0.72061133,-0.72119683,-0.7218131,-0.72119683,-0.7193788,-0.71697533,-0.7139556,-0.7103195,-0.70606726,-0.7030475,-0.70428,-0.70606726,-0.7072998,-0.70548177,-0.7000277,-0.6946045,-0.68976676,-0.6824947,-0.67343545,-0.6643454,-0.6576896,-0.6540844,-0.6510338,-0.6468123,-0.6347333,-0.6141497,-0.5881429,-0.56336856,-0.54762274,-0.5427849,-0.5452193,-0.55005705,-0.5591163,-0.5742458,-0.6002527,-0.6377531,-0.67583895,-0.70428,-0.7181771,-0.71697533,-0.7072998,-0.69580626,-0.6879487,-0.68311095,-0.681293,-0.68311095,-0.68551445,-0.6873325,-0.6873325,-0.68976676,-0.7030475,-0.7278526,-0.7544757,-0.75749546,-0.68009126,-0.4768743,-0.12550461,0.31963134,0.73025596,0.95402575,0.87541974,0.52888775,0.037192106,-0.42002285,-0.71152127,-0.8125289,-0.78048253,-0.7000277,-0.634117,-0.6081102,-0.6141497,-0.6329153,-0.64924663,-0.65710413,-0.65710413,-0.6546699,-0.6516501,-0.64742863,-0.6425909,-0.6365205,-0.63229907,-0.626845,-0.61960375,-0.60931194,-0.5984347,-0.5911626,-0.5863248,-0.5809016,-0.57181156,-0.5615506,-0.5524605,-0.5439867,-0.53612924,-0.5264536,-0.51557636,-0.50590086,-0.4950236,-0.48232836,-0.46719873,-0.4508674,-0.43573785,-0.42184085,-0.40671128,-0.39161253,-0.3752812,-0.35771734,-0.34018433,-0.3190152,-0.2972607,-0.27790964,-0.26278007,-0.245247,-0.22044188,-0.19021356,-0.15511668,-0.13092786,-0.097679794,-0.062613666,-0.02086103,0.02388072,0.055341482,0.075278044,0.08556986,0.09644711,0.10190117,0.09524548,0.074076295,0.034172416,-0.01965928,-0.08498454,-0.16238868,-0.24765044,-0.33232677,-0.41398335,-0.48956954,-0.5585308,-0.61960375,-0.66918314,-0.70788527,-0.7381444,-0.76353496,-0.7840878,-0.8004191,-0.81132716,-0.81736666,-0.8227899,-0.8264259,-0.82762766,-0.8246079,-0.8203864,-0.8185684,-0.81918466,-0.8203864,-0.81918466,-0.8161649,-0.81373066,-0.8100946,-0.8064894,-0.8022371,-0.7980156,-0.79558134,-0.79317784,-0.7901581,-0.784704,-0.78048253,-0.78048253,-0.7816843,-0.7816843,-0.77743196,-0.7720088,-0.76957446,-0.7701908,-0.77139246,-0.77139246,-0.768989,-0.767171,-0.76775646,-0.767171,-0.7659693,-0.7647367,-0.76535296,-0.7659693,-0.76535296,-0.7623332,-0.75931346,-0.75989896,-0.7623332,-0.76535296,-0.76535296,-0.7623332,-0.75989896,-0.75808096,-0.75808096,-0.7568792,-0.75567746,-0.7562937,-0.7568792,-0.7562937,-0.7544757,-0.75142515,-0.7508397,-0.75142515,-0.7526577,-0.75142515,-0.74963796,-0.7472037,-0.7448002,-0.74298215,-0.7399624,-0.7351247,-0.7326904,-0.7308724,-0.7308724,-0.7302869,-0.7302869,-0.7320741,-0.7351247,-0.7375281,-0.73934615,-0.7387299,-0.7375281,-0.7345084,-0.72967064,-0.72301483,-0.7181771,-0.71756077,-0.7193788,-0.72061133,-0.7187934,-0.71697533,-0.716359,-0.7181771,-0.7187934,-0.716359,-0.7121376,-0.7097033,-0.7103195,-0.7121376,-0.712723,-0.7121376,-0.71152127,-0.710905,-0.7097033,-0.70606726,-0.7024621,-0.70184577,-0.70184577,-0.7000277,-0.6927865,-0.6788587,-0.6643454,-0.6516501,-0.6444088,-0.6395711,-0.63593507,-0.6298647,-0.61356425,-0.5905771,-0.56577206,-0.54762274,-0.5421995,-0.5439867,-0.548239,-0.55307674,-0.56638837,-0.59359694,-0.63168275,-0.6740209,-0.70548177,-0.72301483,-0.72723633,-0.72119683,-0.712723,-0.70548177,-0.7030475,-0.70548177,-0.7072998,-0.70788527,-0.7030475,-0.697008,-0.6976243,-0.7097033,-0.7369119,-0.7665547,-0.7798663,-0.71697533,-0.52405024,-0.17690206,0.28333282,0.7230147,0.98487043,0.9407141,0.6117153,0.115798116,-0.3668074,-0.6903522,-0.81795216,-0.79921734,-0.7187934,-0.6516501,-0.62564325,-0.63168275,-0.6528518,-0.66918314,-0.67583895,-0.6746372,-0.6679814,-0.6601239,-0.6486304,-0.6425909,-0.64135826,-0.64135826,-0.6431763,-0.6389548,-0.630481,-0.618402,-0.6087265,-0.59963644,-0.5917789,-0.58450687,-0.5827196,-0.5790836,-0.5736296,-0.5627523,-0.54762274,-0.53554374,-0.5252519,-0.5137584,-0.4986288,-0.48353004,-0.46960223,-0.45934123,-0.44843316,-0.4309001,-0.40852928,-0.38856196,-0.3716452,-0.3571319,-0.33898258,-0.31599545,-0.2894032,-0.25976032,-0.23193544,-0.20352513,-0.17690206,-0.15209693,-0.12609005,-0.098296046,-0.06745142,-0.034172535,-0.0027117133,0.026314855,0.052321672,0.075278044,0.0934273,0.10310292,0.100699425,0.08316648,0.052321672,0.005145788,-0.057159603,-0.13274586,-0.2180385,-0.30511826,-0.39037997,-0.47203648,-0.54642105,-0.61113,-0.66375995,-0.7066835,-0.7435676,-0.7738268,-0.79739934,-0.81311435,-0.82158816,-0.8288602,-0.8361014,-0.8421718,-0.84337354,-0.8409392,-0.8379195,-0.8348997,-0.83126366,-0.8258405,-0.8203864,-0.81736666,-0.8167504,-0.81554866,-0.8125289,-0.8100946,-0.80707484,-0.80525684,-0.80285335,-0.79739934,-0.79317784,-0.7919453,-0.7937633,-0.79499584,-0.7943796,-0.7919453,-0.7907436,-0.78954184,-0.7871075,-0.78350234,-0.7798663,-0.7786645,-0.77925,-0.77925,-0.7762303,-0.7732105,-0.7738268,-0.7768465,-0.7816843,-0.782886,-0.7786645,-0.7750285,-0.7720088,-0.770807,-0.76957446,-0.76957446,-0.76957446,-0.7701908,-0.770807,-0.7683727,-0.7647367,-0.7623332,-0.7605152,-0.75989896,-0.7586972,-0.75931346,-0.75989896,-0.75989896,-0.75808096,-0.75324315,-0.7502234,-0.7502234,-0.7526577,-0.75324315,-0.7478199,-0.7405479,-0.73330665,-0.72905433,-0.72905433,-0.72967064,-0.7308724,-0.7320741,-0.7320741,-0.7320741,-0.7308724,-0.7302869,-0.7314886,-0.7351247,-0.73571014,-0.7320741,-0.7254491,-0.7199951,-0.7193788,-0.7218131,-0.72363114,-0.7242166,-0.7254491,-0.72723633,-0.72967064,-0.72905433,-0.72665083,-0.72301483,-0.7199951,-0.716359,-0.71152127,-0.7097033,-0.7121376,-0.7157736,-0.7181771,-0.7145411,-0.7072998,-0.6976243,-0.6873325,-0.6770407,-0.66677964,-0.65950763,-0.6564878,-0.6546699,-0.6431763,-0.6189875,-0.5905771,-0.5682063,-0.5567128,-0.5548948,-0.55548024,-0.55973256,-0.5730441,-0.59963644,-0.6395711,-0.6782732,-0.7097033,-0.72905433,-0.73330665,-0.72665083,-0.7133393,-0.70428,-0.7012295,-0.70428,-0.7097033,-0.710905,-0.7121376,-0.71515733,-0.72301483,-0.7381444,-0.75989896,-0.7859058,-0.8046714,-0.7701908,-0.6201892,-0.31541002,0.1248883,0.58752644,0.9189596,0.9655192,0.70122933,0.22527957,-0.29362464,-0.6788587,-0.8560688,-0.8560688,-0.768989,-0.681293,-0.6365205,-0.63168275,-0.6468123,-0.6649617,-0.6782732,-0.6843127,-0.68613076,-0.6824947,-0.6782732,-0.6746372,-0.6685977,-0.6607094,-0.64924663,-0.6395711,-0.6335008,-0.628663,-0.6238252,-0.61596775,-0.6050905,-0.59541494,-0.5863248,-0.5772656,-0.5682063,-0.560318,-0.5542785,-0.54703724,-0.5391489,-0.5252519,-0.5101223,-0.49560905,-0.48171204,-0.47083473,-0.45810866,-0.44359535,-0.4284966,-0.41034734,-0.39037997,-0.36862546,-0.34502208,-0.322035,-0.29966414,-0.2748899,-0.24583244,-0.21680588,-0.18839556,-0.16177249,-0.13699818,-0.109758794,-0.08134842,-0.054139853,-0.026315033,0.00089359283,0.02690041,0.05050373,0.068036795,0.075894356,0.07349086,0.061997294,0.035374165,-0.0063476562,-0.062613666,-0.13216043,-0.21015006,-0.2954427,-0.38495672,-0.47323823,-0.5548948,-0.6214218,-0.6746372,-0.7181771,-0.75385946,-0.78350234,-0.8064894,-0.82522416,-0.8409392,-0.8542508,-0.86512804,-0.86876404,-0.8669461,-0.86331004,-0.8609066,-0.8615228,-0.8621083,-0.86331004,-0.8621083,-0.85668504,-0.8506148,-0.8421718,-0.8361014,-0.833698,-0.8324654,-0.8288602,-0.8240225,-0.81918466,-0.81918466,-0.8210027,-0.8240225,-0.82340616,-0.82158816,-0.8203864,-0.81977016,-0.8185684,-0.8143469,-0.8107109,-0.81132716,-0.8161649,-0.8210027,-0.82340616,-0.8222044,-0.81918466,-0.8167504,-0.81373066,-0.81191266,-0.8100946,-0.8107109,-0.81311435,-0.8125289,-0.80707484,-0.8016516,-0.7980156,-0.79860103,-0.8016516,-0.80103534,-0.7980156,-0.79499584,-0.7937633,-0.79499584,-0.7961976,-0.79860103,-0.79921734,-0.79983366,-0.7980156,-0.7919453,-0.78652203,-0.7840878,-0.784704,-0.78652203,-0.7871075,-0.78652203,-0.78532034,-0.784704,-0.78532034,-0.7822698,-0.7780483,-0.7750285,-0.77139246,-0.768989,-0.767171,-0.7659693,-0.767171,-0.770807,-0.7744123,-0.7725942,-0.7683727,-0.7641513,-0.7562937,-0.7465874,-0.7345084,-0.72363114,-0.71697533,-0.71697533,-0.716359,-0.7072998,-0.6891505,-0.66375995,-0.63833857,-0.618402,-0.6044742,-0.5966166,-0.5978184,-0.6062922,-0.626845,-0.65710413,-0.693372,-0.72905433,-0.75567746,-0.768989,-0.767171,-0.75567746,-0.74298215,-0.7381444,-0.7399624,-0.7423659,-0.74538565,-0.74600196,-0.74538565,-0.7441839,-0.74174964,-0.7435676,-0.75324315,-0.7756448,-0.8022371,-0.81918466,-0.78954184,-0.65528613,-0.38011897,0.012387037,0.42184067,0.7030473,0.71392465,0.4375558,-0.02267903,-0.4986288,-0.8270422,-0.94980437,-0.9099005,-0.7980156,-0.697008,-0.64742863,-0.64135826,-0.65710413,-0.6752535,-0.6836964,-0.6836964,-0.67947495,-0.6752535,-0.6722029,-0.6679814,-0.6625274,-0.6564878,-0.6504483,-0.6431763,-0.634117,-0.6244415,-0.616584,-0.61113,-0.60749394,-0.60145444,-0.5942132,-0.5869411,-0.5796691,-0.57181156,-0.560318,-0.548239,-0.53736174,-0.5264536,-0.5149601,-0.4992451,-0.48232836,-0.46960223,-0.46174473,-0.45450348,-0.44239366,-0.42606235,-0.40612584,-0.38736022,-0.3692109,-0.34804183,-0.32446927,-0.29846245,-0.27365732,-0.24765044,-0.21985644,-0.19079906,-0.16238868,-0.13576561,-0.11219299,-0.08800429,-0.060179353,-0.034172535,-0.011185408,0.0069639683,0.016639352,0.018426538,0.010569096,-0.014205158,-0.057159603,-0.1133948,-0.1817398,-0.25976032,-0.34200233,-0.42547685,-0.5046991,-0.5766493,-0.6395711,-0.693372,-0.7399624,-0.77925,-0.8100946,-0.835516,-0.85304904,-0.8639263,-0.8669461,-0.8681478,-0.86876404,-0.87119836,-0.87480354,-0.87360185,-0.86938035,-0.86331004,-0.85727054,-0.85123104,-0.8463933,-0.8415555,-0.8391212,-0.8391212,-0.8397375,-0.83733404,-0.8342835,-0.83188,-0.83188,-0.8324654,-0.8288602,-0.8222044,-0.8143469,-0.8082766,-0.8064894,-0.8040551,-0.8016516,-0.79921734,-0.79681385,-0.79681385,-0.7961976,-0.79558134,-0.79558134,-0.79558134,-0.79558134,-0.79499584,-0.79499584,-0.79558134,-0.79739934,-0.79921734,-0.79681385,-0.7943796,-0.7919453,-0.79135984,-0.7901581,-0.7871075,-0.78350234,-0.7822698,-0.78350234,-0.7859058,-0.78532034,-0.7840878,-0.782886,-0.782886,-0.78350234,-0.781068,-0.77743196,-0.7750285,-0.7744123,-0.7756448,-0.7738268,-0.76957446,-0.7659693,-0.7647367,-0.7647367,-0.7623332,-0.75808096,-0.7526577,-0.7478199,-0.7435676,-0.73934615,-0.7351247,-0.7326904,-0.7278526,-0.71697533,-0.697008,-0.67161745,-0.6486304,-0.6335008,-0.6244415,-0.61596775,-0.614766,-0.62323976,-0.6456106,-0.68187845,-0.7199951,-0.75142515,-0.7701908,-0.7756448,-0.76957446,-0.75749546,-0.7472037,-0.7411642,-0.73934615,-0.7399624,-0.73934615,-0.73934615,-0.7387299,-0.73934615,-0.7399624,-0.73934615,-0.7435676,-0.7562937,-0.7780483,-0.8004191,-0.79983366,-0.72665083,-0.53612924,-0.20894837,0.198071,0.56577206,0.751425,0.65466976,0.31297565,-0.15089524,-0.56638837,-0.81554866,-0.88269186,-0.82762766,-0.7345084,-0.6649617,-0.6371368,-0.6395711,-0.65528613,-0.6703849,-0.67583895,-0.6770407,-0.67583895,-0.6740209,-0.6722029,-0.6649617,-0.6546699,-0.6444088,-0.6365205,-0.630481,-0.6238252,-0.61596775,-0.60749394,-0.6008382,-0.59359694,-0.5851231,-0.5748313,-0.56395406,-0.5542785,-0.54642105,-0.5367454,-0.52405024,-0.5113549,-0.4986288,-0.4853481,-0.47203648,-0.45934123,-0.4472314,-0.4369704,-0.42547685,-0.40973103,-0.39161253,-0.37044346,-0.34865808,-0.32508558,-0.29784614,-0.27063757,-0.2446307,-0.22225994,-0.19988912,-0.17446768,-0.14725918,-0.11884886,-0.09222567,-0.065633416,-0.038394034,-0.013619781,0.007549286,0.023264289,0.03475797,0.04264629,0.040828228,0.02388072,-0.011801779,-0.06440085,-0.12852436,-0.20170712,-0.28151482,-0.36378765,-0.44359535,-0.5149601,-0.5754476,-0.626845,-0.6703849,-0.7072998,-0.7369119,-0.7611315,-0.781068,-0.7980156,-0.8100946,-0.8167504,-0.8203864,-0.8227899,-0.82522416,-0.8282439,-0.8270422,-0.8246079,-0.8227899,-0.8210027,-0.81918466,-0.8143469,-0.80769116,-0.80285335,-0.79983366,-0.8004191,-0.79860103,-0.7961976,-0.79317784,-0.7907436,-0.7883401,-0.78350234,-0.77743196,-0.77139246,-0.768989,-0.768989,-0.76957446,-0.7683727,-0.767171,-0.76535296,-0.7647367,-0.76353496,-0.7629187,-0.7629187,-0.7629187,-0.7623332,-0.75989896,-0.7568792,-0.7562937,-0.75749546,-0.7586972,-0.75808096,-0.75506115,-0.75142515,-0.7508397,-0.7502234,-0.7484054,-0.7465874,-0.7448002,-0.7448002,-0.74600196,-0.7472037,-0.7484054,-0.74902165,-0.74963796,-0.74963796,-0.7465874,-0.74298215,-0.74174964,-0.74298215,-0.74600196,-0.7465874,-0.74538565,-0.7423659,-0.7411642,-0.7399624,-0.7351247,-0.7260346,-0.716359,-0.7091178,-0.70548177,-0.7036638,-0.7030475,-0.7000277,-0.6909685,-0.6752535,-0.65346813,-0.6274613,-0.60567594,-0.58996093,-0.5790836,-0.5754476,-0.5851231,-0.60690844,-0.6407728,-0.68009126,-0.7139556,-0.7375281,-0.74902165,-0.7502234,-0.7441839,-0.7363264,-0.7308724,-0.7278526,-0.72723633,-0.7278526,-0.72665083,-0.7248329,-0.7242166,-0.7254491,-0.72723633,-0.72905433,-0.7326904,-0.7448002,-0.767171,-0.7877238,-0.77743196,-0.681293,-0.45992666,-0.10797155,0.30511808,0.653468,0.79739916,0.6595075,0.29239202,-0.17144793,-0.5645703,-0.7859058,-0.835516,-0.77925,-0.6976243,-0.6431763,-0.6262595,-0.634117,-0.6486304,-0.65710413,-0.6564878,-0.64924663,-0.64135826,-0.6365205,-0.63229907,-0.625027,-0.6177857,-0.6105137,-0.6050905,-0.59963644,-0.5929806,-0.5851231,-0.57846737,-0.5766493,-0.5748313,-0.5687918,-0.5585308,-0.54580474,-0.5349275,-0.5252519,-0.5149601,-0.5040828,-0.4932056,-0.48353004,-0.47444004,-0.46356273,-0.4508674,-0.43755585,-0.4266786,-0.41456878,-0.40005547,-0.38252246,-0.3625551,-0.34320408,-0.32326752,-0.3008659,-0.27547532,-0.24888307,-0.22225994,-0.19505137,-0.16540843,-0.13638186,-0.109758794,-0.08618617,-0.065633416,-0.043848097,-0.021477282,-0.00092440844,0.015406847,0.027516603,0.034172416,0.031152606,0.013588786,-0.02267903,-0.07712692,-0.14365393,-0.21924019,-0.30028045,-0.3837242,-0.46294641,-0.5331094,-0.5917789,-0.64197457,-0.684929,-0.72119683,-0.74963796,-0.77139246,-0.7883401,-0.8040551,-0.81795216,-0.8270422,-0.8306782,-0.8306782,-0.830062,-0.8282439,-0.8264259,-0.8227899,-0.8167504,-0.81132716,-0.80889285,-0.8040551,-0.80103534,-0.79681385,-0.7919453,-0.7883401,-0.78532034,-0.78532034,-0.7859058,-0.7883401,-0.7907436,-0.7889255,-0.784704,-0.7786645,-0.7738268,-0.76957446,-0.7647367,-0.7605152,-0.75749546,-0.75808096,-0.75989896,-0.75989896,-0.75749546,-0.7526577,-0.74963796,-0.74902165,-0.7508397,-0.75567746,-0.7605152,-0.7647367,-0.7647367,-0.75931346,-0.7526577,-0.74902165,-0.75142515,-0.7568792,-0.75989896,-0.75808096,-0.75324315,-0.74963796,-0.7478199,-0.74600196,-0.7448002,-0.7441839,-0.74600196,-0.7478199,-0.7478199,-0.7448002,-0.74174964,-0.7405479,-0.73934615,-0.7369119,-0.73330665,-0.7320741,-0.73571014,-0.7405479,-0.74298215,-0.74174964,-0.7369119,-0.73330665,-0.7314886,-0.7302869,-0.7284689,-0.7278526,-0.7278526,-0.7278526,-0.72723633,-0.7248329,-0.72119683,-0.7181771,-0.7145411,-0.710905,-0.7072998,-0.7066835,-0.7097033,-0.7139556,-0.7139556,-0.7103195,-0.7036638,-0.6976243,-0.69155395,-0.68551445,-0.6782732,-0.6722029,-0.66918314,-0.6661634,-0.6607094,-0.64742863,-0.628663,-0.60749394,-0.58755744,-0.57242787,-0.560318,-0.5512588,-0.5506425,-0.560318,-0.5809016,-0.61356425,-0.6540844,-0.6946045,-0.72301483,-0.7351247,-0.7314886,-0.7199951,-0.7097033,-0.7048655,-0.7030475,-0.7024621,-0.7030475,-0.7048655,-0.70606726,-0.7036638,-0.6976243,-0.6946045,-0.700644,-0.7181771,-0.7448002,-0.7659693,-0.74963796,-0.6389548,-0.39219803,-0.0051459074,0.43814123,0.7992172,0.92620087,0.75204134,0.34804165,-0.14121968,-0.54580474,-0.768989,-0.8167504,-0.75808096,-0.6752535,-0.62200725,-0.6105137,-0.6262595,-0.6486304,-0.66375995,-0.66918314,-0.6679814,-0.6625274,-0.65346813,-0.6437926,-0.6335008,-0.626845,-0.6226235,-0.6189875,-0.61535144,-0.60992825,-0.6044742,-0.59723294,-0.58755744,-0.5772656,-0.56940806,-0.56336856,-0.5572983,-0.54703724,-0.532524,-0.5185962,-0.5077189,-0.4992451,-0.4907713,-0.4805103,-0.46781498,-0.45570523,-0.44239366,-0.42788035,-0.41275078,-0.39583397,-0.38070446,-0.36196965,-0.33959877,-0.31359196,-0.28576714,-0.26096207,-0.23738945,-0.21320069,-0.18719381,-0.16057068,-0.13456386,-0.10917324,-0.08255017,-0.0553416,-0.026931226,-0.000308156,0.024496913,0.04748404,0.068036795,0.0813483,0.0813483,0.06742048,0.041413665,0.0027115345,-0.0493021,-0.11521274,-0.19079906,-0.27063757,-0.34985983,-0.4266786,-0.4992451,-0.56395406,-0.618402,-0.6619419,-0.6976243,-0.7278526,-0.7520414,-0.7701908,-0.7822698,-0.7907436,-0.79860103,-0.8040551,-0.80707484,-0.80707484,-0.80525684,-0.80525684,-0.8046714,-0.80285335,-0.79921734,-0.7961976,-0.79499584,-0.7943796,-0.7919453,-0.7871075,-0.7816843,-0.77743196,-0.7744123,-0.77139246,-0.76775646,-0.7647367,-0.7641513,-0.7641513,-0.7629187,-0.7611315,-0.7586972,-0.75931346,-0.7605152,-0.7611315,-0.7605152,-0.75931346,-0.75989896,-0.7605152,-0.7611315,-0.75931346,-0.75808096,-0.7586972,-0.7611315,-0.76171696,-0.7605152,-0.7586972,-0.75808096,-0.75808096,-0.75749546,-0.75506115,-0.7526577,-0.75324315,-0.7544757,-0.75506115,-0.75385946,-0.75142515,-0.7502234,-0.74963796,-0.74902165,-0.7465874,-0.7441839,-0.7435676,-0.7435676,-0.7423659,-0.7411642,-0.7411642,-0.7423659,-0.7411642,-0.7369119,-0.72967064,-0.72301483,-0.7199951,-0.72061133,-0.7223986,-0.72301483,-0.72363114,-0.7254491,-0.7260346,-0.72363114,-0.7181771,-0.712723,-0.7097033,-0.7091178,-0.7103195,-0.7103195,-0.7091178,-0.7103195,-0.710905,-0.7097033,-0.7072998,-0.70428,-0.7036638,-0.7048655,-0.70548177,-0.7048655,-0.7024621,-0.7030475,-0.7036638,-0.7036638,-0.700644,-0.6963917,-0.6946045,-0.6927865,-0.6909685,-0.6873325,-0.6836964,-0.6836964,-0.68613076,-0.6873325,-0.68551445,-0.681293,-0.6788587,-0.6770407,-0.6746372,-0.6703849,-0.66554713,-0.65950763,-0.6522664,-0.6437926,-0.63593507,-0.6310973,-0.62927926,-0.625027,-0.60931194,-0.58392143,-0.5572983,-0.54038155,-0.53612924,-0.5367454,-0.5367454,-0.5379472,-0.5488553,-0.5742458,-0.6123317,-0.6540844,-0.6891505,-0.7139556,-0.7242166,-0.72061133,-0.7091178,-0.698826,-0.6946045,-0.69519,-0.6976243,-0.6976243,-0.6963917,-0.6976243,-0.7030475,-0.71756077,-0.74174964,-0.76957446,-0.77925,-0.7103195,-0.5107386,-0.15755093,0.29544258,0.71392465,0.94496644,0.8729855,0.53129137,0.039595604,-0.4248606,-0.72363114,-0.82944566,-0.7980156,-0.71756077,-0.6564878,-0.6365205,-0.6468123,-0.66677964,-0.68311095,-0.69155395,-0.6927865,-0.6885342,-0.681293,-0.6740209,-0.6703849,-0.6679814,-0.6643454,-0.65710413,-0.64801407,-0.6395711,-0.63168275,-0.6238252,-0.6141497,-0.60388875,-0.59600043,-0.5887592,-0.5809016,-0.56940806,-0.55609655,-0.54340124,-0.53190774,-0.5228485,-0.51194036,-0.50044686,-0.49018586,-0.47807598,-0.46356273,-0.44602966,-0.42788035,-0.4109636,-0.39401597,-0.3770684,-0.35771734,-0.33716458,-0.31719726,-0.2954427,-0.27063757,-0.2428127,-0.21258438,-0.18475956,-0.15634918,-0.12790811,-0.098296046,-0.069854975,-0.045049787,-0.022093475,-0.000308156,0.02206266,0.044433355,0.061380982,0.072874546,0.075894356,0.06742048,0.044433355,0.0027115345,-0.0553416,-0.12609005,-0.20290887,-0.28333282,-0.3668074,-0.44664598,-0.5185962,-0.5796691,-0.6298647,-0.6740209,-0.71152127,-0.7423659,-0.7665547,-0.7840878,-0.8004191,-0.81493235,-0.8258405,-0.8306782,-0.8306782,-0.82944566,-0.82762766,-0.8258405,-0.82158816,-0.8161649,-0.8100946,-0.8040551,-0.79739934,-0.7907436,-0.7859058,-0.784704,-0.784704,-0.784704,-0.7822698,-0.77925,-0.7780483,-0.7780483,-0.77925,-0.7780483,-0.7762303,-0.7756448,-0.7762303,-0.7768465,-0.7762303,-0.7738268,-0.7725942,-0.7720088,-0.7725942,-0.770807,-0.7683727,-0.767171,-0.7665547,-0.7683727,-0.7701908,-0.7720088,-0.7732105,-0.7732105,-0.77139246,-0.7683727,-0.76535296,-0.7647367,-0.7647367,-0.76353496,-0.7586972,-0.75324315,-0.74902165,-0.7465874,-0.74538565,-0.7423659,-0.7405479,-0.7411642,-0.74298215,-0.7441839,-0.7423659,-0.7387299,-0.7369119,-0.73571014,-0.7345084,-0.7320741,-0.7308724,-0.7314886,-0.7338921,-0.7351247,-0.73330665,-0.72967064,-0.72723633,-0.7248329,-0.72301483,-0.7199951,-0.71756077,-0.71756077,-0.7181771,-0.7199951,-0.7193788,-0.71697533,-0.7157736,-0.7145411,-0.7121376,-0.7091178,-0.7072998,-0.7072998,-0.7072998,-0.7072998,-0.70428,-0.7012295,-0.7012295,-0.7024621,-0.7036638,-0.7024621,-0.69944227,-0.697008,-0.69519,-0.6927865,-0.6891505,-0.68613076,-0.68551445,-0.68613076,-0.6879487,-0.68613076,-0.6836964,-0.68311095,-0.68311095,-0.6836964,-0.681293,-0.6782732,-0.6770407,-0.6764552,-0.6770407,-0.6764552,-0.67583895,-0.6782732,-0.68009126,-0.6806767,-0.67343545,-0.6607094,-0.64983207,-0.6401565,-0.63229907,-0.62564325,-0.6171695,-0.60327244,-0.58450687,-0.56336856,-0.5452193,-0.5367454,-0.5379472,-0.540967,-0.5439867,-0.54944074,-0.56395406,-0.5947987,-0.6365205,-0.6782732,-0.7072998,-0.7193788,-0.7181771,-0.7091178,-0.69944227,-0.69155395,-0.6873325,-0.6867162,-0.68613076,-0.6867162,-0.6873325,-0.69155395,-0.70606726,-0.73330665,-0.7641513,-0.7768465,-0.7145411,-0.5258682,-0.18657756,0.25976014,0.6867161,0.94133043,0.89415455,0.5639539,0.068036795,-0.41154903,-0.7260346,-0.8385357,-0.80285335,-0.7097033,-0.634117,-0.6050905,-0.61294794,-0.63531876,-0.65346813,-0.65950763,-0.6583059,-0.6564878,-0.6546699,-0.6516501,-0.646196,-0.63833857,-0.63168275,-0.6262595,-0.61960375,-0.6105137,-0.60145444,-0.5947987,-0.5887592,-0.5833051,-0.5754476,-0.56577206,-0.5572983,-0.55005705,-0.5421995,-0.5331094,-0.5228485,-0.5131729,-0.5010631,-0.48836786,-0.47385454,-0.45934123,-0.44602966,-0.43213266,-0.4151851,-0.39463228,-0.3734632,-0.3565156,-0.34080058,-0.32446927,-0.30391645,-0.2809294,-0.25794232,-0.2367732,-0.21560413,-0.19079906,-0.161187,-0.12972611,-0.097679794,-0.068036854,-0.0414446,-0.01784128,0.0021260977,0.020244598,0.036575913,0.052321672,0.06440079,0.06862223,0.06258273,0.043231606,0.009367347,-0.0414446,-0.109758794,-0.18839556,-0.27183932,-0.35287958,-0.42969835,-0.50226486,-0.5712261,-0.63229907,-0.68187845,-0.72301483,-0.7562937,-0.782886,-0.8040551,-0.81795216,-0.8258405,-0.8330817,-0.8391212,-0.843959,-0.8451915,-0.8427572,-0.8397375,-0.83733404,-0.8367177,-0.8342835,-0.830062,-0.8258405,-0.82158816,-0.8185684,-0.8161649,-0.8143469,-0.8143469,-0.81493235,-0.81311435,-0.80889285,-0.80525684,-0.80343884,-0.80285335,-0.80285335,-0.79983366,-0.79558134,-0.7943796,-0.79499584,-0.79681385,-0.79499584,-0.7901581,-0.7859058,-0.782886,-0.7840878,-0.7859058,-0.7871075,-0.7877238,-0.7877238,-0.7877238,-0.7871075,-0.7859058,-0.78652203,-0.7859058,-0.784704,-0.7816843,-0.77925,-0.77925,-0.77925,-0.781068,-0.78048253,-0.7798663,-0.781068,-0.782886,-0.78350234,-0.78048253,-0.7768465,-0.7762303,-0.77743196,-0.77925,-0.7768465,-0.7732105,-0.770807,-0.768989,-0.76775646,-0.7641513,-0.7605152,-0.7586972,-0.75931346,-0.76171696,-0.75989896,-0.7568792,-0.75567746,-0.75506115,-0.75506115,-0.7520414,-0.74963796,-0.7478199,-0.7478199,-0.7478199,-0.7448002,-0.7411642,-0.7381444,-0.73571014,-0.7345084,-0.7314886,-0.72723633,-0.72723633,-0.7284689,-0.72967064,-0.7284689,-0.72723633,-0.7278526,-0.72905433,-0.7302869,-0.7284689,-0.7248329,-0.7199951,-0.712723,-0.70184577,-0.6879487,-0.6770407,-0.67343545,-0.6746372,-0.67281914,-0.65950763,-0.63531876,-0.6105137,-0.5917789,-0.58392143,-0.5802853,-0.5790836,-0.5833051,-0.5966166,-0.62323976,-0.6589222,-0.6963917,-0.7278526,-0.7472037,-0.75324315,-0.7465874,-0.7351247,-0.7254491,-0.72119683,-0.72061133,-0.7193788,-0.71756077,-0.7157736,-0.71515733,-0.71756077,-0.7248329,-0.7441839,-0.7701908,-0.7943796,-0.7720088,-0.6401565,-0.36196965,0.037808537,0.45206904,0.73509383,0.74600184,0.46840036,0.0033278465,-0.4786923,-0.81132716,-0.931655,-0.88571167,-0.768989,-0.6703849,-0.62564325,-0.6208055,-0.6347333,-0.64983207,-0.6601239,-0.6643454,-0.6613256,-0.6546699,-0.6486304,-0.6431763,-0.63833857,-0.63168275,-0.6244415,-0.6189875,-0.614766,-0.6105137,-0.60388875,-0.5947987,-0.5863248,-0.5796691,-0.5742458,-0.5669738,-0.55791456,-0.548239,-0.53736174,-0.5258682,-0.5137584,-0.5034666,-0.49622536,-0.48836786,-0.47807598,-0.46236098,-0.44239366,-0.42365885,-0.40791297,-0.39161253,-0.37223065,-0.3522941,-0.33232677,-0.3129757,-0.2930084,-0.27063757,-0.245247,-0.22105825,-0.19686937,-0.17086256,-0.14242136,-0.114596546,-0.09040767,-0.06745142,-0.046867847,-0.023295283,-0.0015099645,0.015406847,0.02992022,0.040211916,0.046251416,0.039595604,0.0118016,-0.037808597,-0.10433555,-0.17872006,-0.25914407,-0.34080058,-0.4230426,-0.5010631,-0.56999356,-0.6310973,-0.68311095,-0.72723633,-0.7641513,-0.7901581,-0.8100946,-0.82762766,-0.84337354,-0.85668504,-0.8645426,-0.86756235,-0.8669461,-0.8645426,-0.86272454,-0.8584722,-0.8554525,-0.85304904,-0.8518473,-0.8518473,-0.847595,-0.8421718,-0.8361014,-0.83188,-0.82944566,-0.82762766,-0.8264259,-0.8258405,-0.8240225,-0.82158816,-0.8161649,-0.81132716,-0.80889285,-0.80889285,-0.8100946,-0.8082766,-0.8064894,-0.80525684,-0.8064894,-0.8082766,-0.80950916,-0.80950916,-0.80950916,-0.80950916,-0.80769116,-0.80285335,-0.79739934,-0.79499584,-0.79558134,-0.79860103,-0.79739934,-0.79317784,-0.7883401,-0.78532034,-0.78652203,-0.7877238,-0.7883401,-0.7871075,-0.78652203,-0.7859058,-0.782886,-0.7798663,-0.7780483,-0.77743196,-0.7768465,-0.7744123,-0.7725942,-0.7720088,-0.7738268,-0.7750285,-0.7725942,-0.768989,-0.76775646,-0.76775646,-0.76775646,-0.76535296,-0.7611315,-0.7586972,-0.75808096,-0.7586972,-0.7586972,-0.7568792,-0.75567746,-0.75385946,-0.75142515,-0.7478199,-0.7448002,-0.74298215,-0.7399624,-0.7363264,-0.7302869,-0.7242166,-0.72061133,-0.72061133,-0.7187934,-0.7103195,-0.69580626,-0.6746372,-0.6504483,-0.62927926,-0.6123317,-0.5978184,-0.5887592,-0.5881429,-0.59963644,-0.6226235,-0.6589222,-0.700644,-0.7375281,-0.7623332,-0.77139246,-0.768989,-0.7611315,-0.7526577,-0.74600196,-0.73934615,-0.7338921,-0.7320741,-0.7345084,-0.73934615,-0.7411642,-0.7411642,-0.7441839,-0.75324315,-0.7725942,-0.7943796,-0.8064894,-0.76353496,-0.61294794,-0.32144952,0.0837518,0.4949926,0.7659384,0.7623023,0.48171186,0.026314855,-0.43999016,-0.76353496,-0.8923674,-0.86756235,-0.7725942,-0.6873325,-0.6449943,-0.6425909,-0.6589222,-0.6752535,-0.68551445,-0.6873325,-0.6873325,-0.68551445,-0.68009126,-0.6740209,-0.6685977,-0.66314363,-0.6589222,-0.6510338,-0.64197457,-0.634117,-0.6274613,-0.62323976,-0.6177857,-0.61113,-0.60388875,-0.59541494,-0.5857394,-0.5730441,-0.5609343,-0.55187505,-0.544603,-0.53554374,-0.5228485,-0.5071026,-0.49018586,-0.47505623,-0.46054298,-0.44421166,-0.42788035,-0.41216534,-0.39765203,-0.38190615,-0.36135334,-0.33898258,-0.3166117,-0.29362464,-0.27125382,-0.2428127,-0.21138263,-0.1799218,-0.15151143,-0.12550461,-0.097679794,-0.07047117,-0.043848097,-0.01965928,0.0003080368,0.019042969,0.033556104,0.040828228,0.035990477,0.017224789,-0.015437782,-0.065017104,-0.13154411,-0.21015006,-0.2954427,-0.37830096,-0.45570523,-0.5264536,-0.5911626,-0.64924663,-0.697008,-0.73571014,-0.767171,-0.79317784,-0.8143469,-0.8282439,-0.83733404,-0.843959,-0.8500293,-0.8554525,-0.85668504,-0.85486704,-0.8524327,-0.85123104,-0.8506148,-0.8487967,-0.845777,-0.84337354,-0.8421718,-0.8415555,-0.8379195,-0.8324654,-0.8258405,-0.8203864,-0.81554866,-0.8107109,-0.8082766,-0.80769116,-0.80889285,-0.80889285,-0.80587316,-0.8004191,-0.79558134,-0.7937633,-0.79317784,-0.7919453,-0.7901581,-0.7877238,-0.78652203,-0.7859058,-0.784704,-0.7859058,-0.7883401,-0.79317784,-0.79739934,-0.7980156,-0.79558134,-0.7907436,-0.7871075,-0.78532034,-0.782886,-0.7816843,-0.781068,-0.781068,-0.7816843,-0.78048253,-0.77925,-0.7780483,-0.7780483,-0.7780483,-0.7750285,-0.770807,-0.7665547,-0.7641513,-0.76353496,-0.7623332,-0.7605152,-0.7586972,-0.75808096,-0.75749546,-0.75506115,-0.75142515,-0.74902165,-0.74902165,-0.7508397,-0.7508397,-0.7502234,-0.74963796,-0.74902165,-0.7484054,-0.7472037,-0.74538565,-0.7441839,-0.7448002,-0.7448002,-0.7411642,-0.73571014,-0.7314886,-0.72967064,-0.72905433,-0.7242166,-0.71756077,-0.7103195,-0.7048655,-0.7012295,-0.6963917,-0.6885342,-0.6752535,-0.65710413,-0.634117,-0.60931194,-0.5905771,-0.5772656,-0.5706098,-0.57181156,-0.5814871,-0.6026561,-0.6365205,-0.67947495,-0.7187934,-0.74538565,-0.75749546,-0.7562937,-0.74963796,-0.74298215,-0.7375281,-0.7345084,-0.7326904,-0.7320741,-0.7326904,-0.7320741,-0.7320741,-0.73330665,-0.7387299,-0.7508397,-0.76775646,-0.78954184,-0.80343884,-0.7744123,-0.6425909,-0.36739284,0.042029977,0.48593342,0.81977,0.8953563,0.67100096,0.23375332,-0.26037657,-0.6425909,-0.83126366,-0.8482113,-0.7732105,-0.6903522,-0.646196,-0.64135826,-0.6564878,-0.6740209,-0.68551445,-0.6909685,-0.69155395,-0.6879487,-0.68187845,-0.6746372,-0.6703849,-0.6661634,-0.6613256,-0.6546699,-0.6468123,-0.6389548,-0.63168275,-0.62323976,-0.6141497,-0.60567594,-0.5984347,-0.5911626,-0.5821034,-0.57242787,-0.5615506,-0.5512588,-0.540967,-0.52768624,-0.5149601,-0.50288117,-0.49200386,-0.4805103,-0.46417898,-0.44664598,-0.4284966,-0.41275078,-0.39645028,-0.3770684,-0.3546976,-0.32992333,-0.30573446,-0.2827474,-0.25674057,-0.22953194,-0.20047456,-0.17268056,-0.14365393,-0.1133948,-0.08196479,-0.05232185,-0.025113225,-0.000308156,0.02388072,0.04748404,0.066835046,0.077096105,0.07651055,0.06258273,0.033556104,-0.013619781,-0.07651067,-0.15151143,-0.23313725,-0.3166117,-0.39885372,-0.47927773,-0.55307674,-0.6171695,-0.6710012,-0.71515733,-0.75142515,-0.78048253,-0.80103534,-0.8167504,-0.82944566,-0.8409392,-0.8487967,-0.8518473,-0.8506148,-0.847595,-0.845777,-0.84337354,-0.8403537,-0.8367177,-0.833698,-0.8330817,-0.83188,-0.82762766,-0.8227899,-0.8185684,-0.8167504,-0.81554866,-0.81311435,-0.8100946,-0.80707484,-0.80587316,-0.80525684,-0.80343884,-0.79921734,-0.7943796,-0.7907436,-0.7889255,-0.7871075,-0.7859058,-0.78532034,-0.78652203,-0.7883401,-0.7871075,-0.782886,-0.7780483,-0.7756448,-0.7756448,-0.7756448,-0.7756448,-0.7756448,-0.7768465,-0.7780483,-0.7780483,-0.77743196,-0.7762303,-0.7762303,-0.7762303,-0.7744123,-0.7720088,-0.76957446,-0.76957446,-0.7701908,-0.76775646,-0.76353496,-0.75989896,-0.75931346,-0.7605152,-0.76171696,-0.7623332,-0.7623332,-0.7629187,-0.76353496,-0.7623332,-0.75989896,-0.75808096,-0.75808096,-0.7586972,-0.7568792,-0.7520414,-0.74600196,-0.74174964,-0.7399624,-0.7375281,-0.7351247,-0.73330665,-0.7326904,-0.7326904,-0.7320741,-0.7314886,-0.7308724,-0.7320741,-0.7338921,-0.7338921,-0.7320741,-0.72967064,-0.72905433,-0.72665083,-0.7223986,-0.7181771,-0.7145411,-0.7139556,-0.712723,-0.7072998,-0.698826,-0.68976676,-0.68311095,-0.68009126,-0.6770407,-0.6710012,-0.6583059,-0.6389548,-0.6141497,-0.5887592,-0.5706098,-0.55791456,-0.5512588,-0.5512588,-0.5591163,-0.5802853,-0.61596775,-0.6613256,-0.7030475,-0.72967064,-0.7399624,-0.7363264,-0.72723633,-0.7181771,-0.7121376,-0.7085016,-0.70788527,-0.7085016,-0.7097033,-0.7091178,-0.7072998,-0.7072998,-0.712723,-0.7260346,-0.7478199,-0.7725942,-0.7840878,-0.7351247,-0.5675901,-0.25310457,0.17810369,0.6081101,0.88811505,0.8802575,0.5857085,0.11037493,-0.37466496,-0.7133393,-0.8487967,-0.8270422,-0.73571014,-0.6546699,-0.61960375,-0.62200725,-0.6401565,-0.6564878,-0.6649617,-0.6661634,-0.6625274,-0.6564878,-0.64983207,-0.6449943,-0.64135826,-0.6377531,-0.6298647,-0.61960375,-0.60931194,-0.60145444,-0.59723294,-0.5923952,-0.5863248,-0.57846737,-0.5712261,-0.5627523,-0.55307674,-0.5427849,-0.532524,-0.5228485,-0.5137584,-0.50226486,-0.48836786,-0.47385454,-0.46115923,-0.4490494,-0.43573785,-0.4206391,-0.40369153,-0.38856196,-0.3728469,-0.35411215,-0.33294308,-0.3093397,-0.2851509,-0.26157832,-0.236157,-0.20836288,-0.17933625,-0.15089524,-0.1230703,-0.09466004,-0.06621885,-0.039010227,-0.014205158,0.008165598,0.031152606,0.052321672,0.06923854,0.0777123,0.07651055,0.065017104,0.040211916,-0.000308156,-0.060179353,-0.13518018,-0.21862388,-0.30450195,-0.38856196,-0.46840054,-0.54158324,-0.6044742,-0.65710413,-0.70184577,-0.7405479,-0.7720088,-0.79558134,-0.81191266,-0.8240225,-0.835516,-0.8451915,-0.85123104,-0.85304904,-0.85304904,-0.8536345,-0.8536345,-0.8506148,-0.8445753,-0.83733404,-0.8324654,-0.82944566,-0.8264259,-0.82340616,-0.8203864,-0.81918466,-0.81736666,-0.81311435,-0.80769116,-0.80285335,-0.8016516,-0.80285335,-0.80285335,-0.8022371,-0.79983366,-0.79860103,-0.79739934,-0.79499584,-0.79135984,-0.7877238,-0.7871075,-0.7883401,-0.78954184,-0.7889255,-0.7877238,-0.7877238,-0.7883401,-0.7877238,-0.7871075,-0.7859058,-0.78652203,-0.7877238,-0.7877238,-0.78652203,-0.78532034,-0.7859058,-0.78652203,-0.784704,-0.7816843,-0.77743196,-0.7762303,-0.7768465,-0.77743196,-0.77743196,-0.7768465,-0.7786645,-0.78048253,-0.78048253,-0.7786645,-0.7768465,-0.7756448,-0.7744123,-0.7732105,-0.7701908,-0.7665547,-0.76535296,-0.7647367,-0.7641513,-0.76171696,-0.75749546,-0.7562937,-0.75506115,-0.7526577,-0.74963796,-0.7478199,-0.7484054,-0.75142515,-0.75385946,-0.75385946,-0.7520414,-0.75142515,-0.7502234,-0.7484054,-0.74538565,-0.7411642,-0.73934615,-0.7381444,-0.7369119,-0.7351247,-0.7338921,-0.73330665,-0.7326904,-0.7278526,-0.71756077,-0.7072998,-0.700644,-0.6976243,-0.69580626,-0.69217026,-0.681293,-0.66314363,-0.6371368,-0.60749394,-0.5833051,-0.5682063,-0.5615506,-0.56213605,-0.56940806,-0.5863248,-0.616584,-0.6607094,-0.7066835,-0.74174964,-0.75931346,-0.75989896,-0.7508397,-0.7387299,-0.72905433,-0.7223986,-0.7187934,-0.7187934,-0.7218131,-0.7248329,-0.72723633,-0.72723633,-0.7284689,-0.7338921,-0.7472037,-0.76957446,-0.79135984,-0.7961976,-0.72363114,-0.52161586,-0.16962993,0.27787864,0.68853414,0.91048574,0.8258095,0.46840036,-0.037192285,-0.50953686,-0.8046714,-0.8935692,-0.8385357,-0.7351247,-0.6589222,-0.6310973,-0.6389548,-0.6583059,-0.6764552,-0.6873325,-0.6903522,-0.6879487,-0.6806767,-0.6710012,-0.6625274,-0.65528613,-0.6486304,-0.64197457,-0.6371368,-0.6347333,-0.63229907,-0.626845,-0.6177857,-0.6087265,-0.6008382,-0.59359694,-0.5851231,-0.5736296,-0.5615506,-0.55187505,-0.54158324,-0.5294734,-0.5143746,-0.4986288,-0.4871661,-0.47749054,-0.46781498,-0.45450348,-0.4393739,-0.42424434,-0.4091456,-0.39281422,-0.3716452,-0.34563828,-0.32024777,-0.29424095,-0.26700157,-0.23979294,-0.21015006,-0.18294156,-0.15755093,-0.12852436,-0.099497795,-0.07228917,-0.04868585,-0.028133035,-0.0069639087,0.016023159,0.037808537,0.05290723,0.05956304,0.05592704,0.04264629,0.01482141,-0.032970726,-0.098296046,-0.17690206,-0.26339632,-0.35167783,-0.4393739,-0.5228485,-0.6008382,-0.6673651,-0.7218131,-0.76535296,-0.7980156,-0.8222044,-0.8403537,-0.8536345,-0.8657443,-0.8760361,-0.88327736,-0.8869134,-0.8869134,-0.8862971,-0.88509536,-0.88327736,-0.87905586,-0.87360185,-0.8717838,-0.8699658,-0.8669461,-0.8615228,-0.8542508,-0.8487967,-0.845777,-0.843959,-0.8397375,-0.8348997,-0.83188,-0.83126366,-0.8324654,-0.8330817,-0.8330817,-0.8324654,-0.8306782,-0.82762766,-0.8222044,-0.81736666,-0.8161649,-0.81554866,-0.81493235,-0.81373066,-0.81191266,-0.81373066,-0.8167504,-0.8185684,-0.8167504,-0.81191266,-0.80889285,-0.80707484,-0.8064894,-0.80525684,-0.8022371,-0.8016516,-0.80103534,-0.80103534,-0.80103534,-0.79983366,-0.79860103,-0.79681385,-0.7943796,-0.79317784,-0.79256153,-0.7943796,-0.7961976,-0.7961976,-0.7937633,-0.79135984,-0.79135984,-0.7919453,-0.7907436,-0.7877238,-0.78532034,-0.7859058,-0.7883401,-0.7889255,-0.784704,-0.7798663,-0.7762303,-0.7744123,-0.7732105,-0.7701908,-0.7683727,-0.7701908,-0.7725942,-0.7738268,-0.77139246,-0.76775646,-0.7647367,-0.7629187,-0.7629187,-0.76171696,-0.7605152,-0.7605152,-0.7586972,-0.75324315,-0.7435676,-0.73330665,-0.72665083,-0.72119683,-0.71697533,-0.7103195,-0.698826,-0.6843127,-0.66375995,-0.6395711,-0.6171695,-0.60145444,-0.5923952,-0.5911626,-0.599051,-0.614766,-0.6444088,-0.684929,-0.7254491,-0.75567746,-0.770807,-0.7732105,-0.7683727,-0.7623332,-0.7586972,-0.7568792,-0.7544757,-0.7526577,-0.7508397,-0.7478199,-0.74600196,-0.7448002,-0.7484054,-0.75567746,-0.76957446,-0.7883401,-0.80525684,-0.7937633,-0.6909685,-0.45025116,-0.069854975,0.3589189,0.69580615,0.7865219,0.5736295,0.13998699,-0.36015165,-0.74963796,-0.9340893,-0.93106955,-0.82522416,-0.7133393,-0.64983207,-0.6347333,-0.646196,-0.6607094,-0.6673651,-0.6703849,-0.6710012,-0.6703849,-0.6685977,-0.66375995,-0.6564878,-0.6486304,-0.6407728,-0.6335008,-0.626845,-0.6226235,-0.6171695,-0.60992825,-0.59963644,-0.5881429,-0.5802853,-0.5742458,-0.5675901,-0.5572983,-0.54580474,-0.53554374,-0.5258682,-0.5161927,-0.5046991,-0.4925893,-0.48171204,-0.47021848,-0.4569069,-0.4405756,-0.42184085,-0.40430784,-0.38797647,-0.3716452,-0.35167783,-0.32930702,-0.30573446,-0.28213114,-0.25794232,-0.2307337,-0.20229256,-0.175084,-0.14787549,-0.12186861,-0.09586179,-0.069854975,-0.04628235,-0.024497032,-0.0045297146,0.015406847,0.032970786,0.043231606,0.043848038,0.032970786,0.008165598,-0.032354534,-0.09102404,-0.16359043,-0.2446307,-0.32748902,-0.40852928,-0.4853481,-0.5572983,-0.6201892,-0.67281914,-0.716359,-0.75324315,-0.782886,-0.8064894,-0.82340616,-0.8361014,-0.84700954,-0.8560688,-0.8609066,-0.8609066,-0.85727054,-0.8554525,-0.8554525,-0.8554525,-0.8536345,-0.8487967,-0.843959,-0.8385357,-0.8342835,-0.82944566,-0.8270422,-0.8270422,-0.8270422,-0.8264259,-0.8210027,-0.81493235,-0.81132716,-0.8082766,-0.80707484,-0.8022371,-0.79681385,-0.7943796,-0.79317784,-0.79256153,-0.7907436,-0.7889255,-0.7883401,-0.7907436,-0.79256153,-0.79135984,-0.78954184,-0.7883401,-0.7883401,-0.7889255,-0.78652203,-0.78350234,-0.7822698,-0.78532034,-0.7889255,-0.78954184,-0.7883401,-0.7877238,-0.7877238,-0.7883401,-0.7859058,-0.78048253,-0.7750285,-0.770807,-0.76957446,-0.768989,-0.77139246,-0.7744123,-0.7762303,-0.7750285,-0.770807,-0.7659693,-0.7647367,-0.7659693,-0.76775646,-0.767171,-0.7641513,-0.76353496,-0.7629187,-0.7623332,-0.75989896,-0.75749546,-0.75567746,-0.75385946,-0.75324315,-0.7502234,-0.7465874,-0.74538565,-0.7435676,-0.7405479,-0.7345084,-0.7278526,-0.7242166,-0.7223986,-0.7218131,-0.7199951,-0.716359,-0.7091178,-0.69519,-0.67343545,-0.6444088,-0.618402,-0.5984347,-0.5863248,-0.5827196,-0.58755744,-0.60327244,-0.6347333,-0.6752535,-0.7157736,-0.74298215,-0.7568792,-0.75931346,-0.75385946,-0.7465874,-0.73934615,-0.7345084,-0.7326904,-0.7338921,-0.7363264,-0.7351247,-0.7326904,-0.72967064,-0.7284689,-0.7326904,-0.74298215,-0.7623332,-0.782886,-0.784704,-0.712723,-0.5161927,-0.17751831,0.24342895,0.622007,0.8107108,0.7066834,0.3492434,-0.13638186,-0.5742458,-0.835516,-0.9008104,-0.835516,-0.7314886,-0.6564878,-0.6274613,-0.628663,-0.64135826,-0.6546699,-0.6625274,-0.6649617,-0.6625274,-0.6576896,-0.65346813,-0.64742863,-0.6401565,-0.6310973,-0.6238252,-0.61960375,-0.616584,-0.61294794,-0.6050905,-0.59723294,-0.58996093,-0.5821034,-0.5754476,-0.5669738,-0.5572983,-0.54944074,-0.540967,-0.53008974,-0.5173944,-0.5034666,-0.48956954,-0.4768743,-0.46417898,-0.44966573,-0.43573785,-0.4230426,-0.40973103,-0.39463228,-0.37404865,-0.3510924,-0.32748902,-0.30450195,-0.28031307,-0.25372082,