0.31853306,0.2625414,0.20866561,0.15794802,0.11462045,0.07767081,0.047007322,0.018490195,-0.010026932,-0.032227337,-0.048080444,-0.056512892,-0.060744464,-0.063902795,-0.06497604,-0.06709188,-0.06813437,-0.071323395,-0.074481726,-0.07555497,-0.07343924,-0.06813437,-0.06286031,-0.058628738,-0.054397106,-0.05019617,-0.044891477,-0.041733027,-0.0396173,-0.03645891,-0.032227337,-0.025880039,-0.021648407,-0.01637435,-0.012142777,-0.007911146,-0.0026370883,-0.0015944839,-0.0037102103,-0.0005212426,0.00371027,0.011100292,0.01637435,0.01637435,0.015331864,0.015331864,0.01637435,0.018490195,0.020605922,0.024837613,0.029069066,0.032227397,0.032227397,0.031154156,0.031154156,0.032227397,0.034343123,0.032227397,0.027995944,0.025880098,0.024837613,0.024837613,0.021648526,0.01744759,0.015331864,0.015331864,0.01744759,0.01744759,0.015331864,0.014258623,0.013216019,0.013216019,0.010027051,0.007911205,0.007911205,0.011100292,0.015331864,0.01637435,0.014258623,0.012142777,0.011100292,0.011100292,0.010027051,0.010027051,0.012142777,0.011100292,0.006868601,-0.0026370883,-0.004752815,0.0026370287,0.01744759,0.03011167,0.032227397,0.024837613,0.020605922,0.020605922,0.023764372,0.023764372,0.022721767,0.021648526,0.022721767,0.024837613,0.025880098,0.022721767,0.020605922,0.018490195,0.01637435,0.013216019,0.0089844465,0.006868601,0.006868601,0.010027051,0.012142777,0.014258623,0.018490195,0.021648526,0.02695334,0.027995944,0.027995944,0.029069066,0.032227397,0.03645897,0.038574815,0.04277575,0.057586193,0.085060835,0.11992526,0.14632654,0.16533792,0.17591691,0.18646514,0.20970821,0.23718274,0.26465726,0.2879002,0.30798483,0.32172215,0.32595372,0.32488048,0.31433213,0.2984792,0.27943707,0.25199318,0.21182394,0.16217959,0.107230544,0.05970204,0.027995944,0.018490195,0.022721767,0.03011167,0.03011167,0.020605922,0.0058261156,-0.005795419,-0.012142777,-0.013216019,-0.013216019,-0.012142777,-0.010026932,-0.008984387,-0.008984387,-0.012142777,-0.017416835,-0.020605922,-0.022721648,-0.022721648,-0.0026370883,0.061817765,0.18226421,0.34284925,0.49816024,0.55942595,0.50027597,0.352355,0.09879804,-0.24141413,-0.57739484,-0.8034772,-0.8235619,-0.6133019,-0.27732122,0.01953268,0.18330681,0.22767699,0.21078146,0.18119109,0.16110635,0.15583217,0.1632222,0.17803276,0.19492829,0.20866561,0.21924448,0.22875023,0.2403717,0.25199318,0.2604257,0.26465726,0.26993144,0.27627873,0.28474188,0.2931744,0.30163753,0.31114316,0.32172215,0.33334363,0.34389186,0.35658658,0.37032378,0.3840611,0.3956827,0.40307248,0.4104625,0.41892564,0.4315896,0.44636953,0.46010673,0.47384405,0.48758137,0.5044769,0.5245615,0.543573,0.56261504,0.58478475,0.6069852,0.62915504,0.65028214,0.66825104,0.68833566,0.71050537,0.73374844,0.7527597,0.766497,0.7749603,0.7813077,0.78658164,0.7886976,0.7908133,0.79397154,0.7950449,0.7950449,0.7886976,0.777076,0.76018035,0.7379799,0.70838964,0.6703669,0.62388086,0.5731633,0.52032995,0.46541154,0.40834665,0.35128176,0.2984792,0.24987733,0.20339143,0.15902126,0.11462045,0.07343924,0.038574815,0.0089844465,-0.01637435,-0.037501514,-0.05228138,-0.061817706,-0.06497604,-0.06601864,-0.06709188,-0.06813437,-0.07025015,-0.07025015,-0.072366,-0.071323395,-0.06709188,-0.06286031,-0.055470347,-0.051238775,-0.047007203,-0.04277563,-0.0396173,-0.03538567,-0.032227337,-0.02903837,-0.022721648,-0.015331745,-0.010026932,-0.007911146,-0.008984387,-0.007911146,-0.0037102103,0.0015944242,0.00371027,0.00371027,0.00371027,0.0047528744,0.0089844465,0.010027051,0.007911205,0.0047528744,0.0015944242,-0.0005212426,-0.005795419,-0.005795419,-0.004752815,-0.0037102103,-0.0026370883,-0.007911146,-0.017416835,-0.022721648,-0.024837434,-0.023764253,-0.021648407,-0.021648407,-0.01953268,-0.01637435,-0.015331745,-0.017416835,-0.022721648,-0.025880039,-0.02695328,-0.02695328,-0.02903837,-0.03011161,-0.027995765,-0.023764253,-0.01637435,-0.013216019,-0.013216019,-0.013216019,-0.014258504,-0.013216019,-0.013216019,-0.013216019,-0.011100173,-0.0068686604,-0.0037102103,-0.0068686604,-0.012142777,-0.01637435,-0.018490076,-0.015331745,-0.013216019,-0.012142777,-0.011100173,-0.011100173,-0.010026932,-0.010026932,-0.008984387,-0.004752815,0.0005213022,0.0058261156,0.007911205,0.0089844465,0.012142777,0.01744759,0.024837613,0.029069066,0.03011167,0.031154156,0.033269882,0.03645897,0.0396173,0.041733146,0.04277575,0.043848872,0.041733146,0.035385728,0.027995944,0.023764372,0.022721767,0.029069066,0.034343123,0.037501574,0.0396173,0.04069054,0.04069054,0.038574815,0.038574815,0.0396173,0.04277575,0.04912305,0.052312136,0.057586193,0.07343924,0.10299897,0.1368208,0.16429543,0.18014848,0.18646514,0.19069672,0.20866561,0.23190856,0.2541089,0.2731204,0.2879002,0.30059493,0.3122164,0.31853306,0.31641734,0.30375338,0.28474188,0.2561941,0.21817124,0.16745377,0.11462045,0.06920767,0.04069054,0.031154156,0.035385728,0.041733146,0.043848872,0.0396173,0.03011167,0.018490195,0.007911205,-0.0005212426,-0.008984387,-0.014258504,-0.015331745,-0.015331745,-0.015331745,-0.018490076,-0.01953268,-0.015331745,-0.008984387,0.0058261156,0.041733146,0.12415671,0.2551515,0.41573656,0.53934145,0.55203617,0.46010673,0.25726736,-0.058628738,-0.4284312,-0.73270583,-0.8679321,-0.76968604,-0.47595978,-0.14316815,0.08929241,0.18965411,0.20550728,0.18965411,0.17695951,0.17695951,0.18542254,0.2012757,0.21817124,0.23295116,0.24353004,0.25091994,0.25830984,0.26888883,0.2805102,0.28897345,0.2952901,0.29952168,0.30479586,0.31114316,0.31537473,0.32383788,0.33438623,0.34708083,0.35870242,0.36609232,0.37136638,0.37982953,0.39145112,0.40730405,0.42312658,0.4389795,0.45379007,0.46961248,0.48442304,0.4960444,0.5044769,0.5150559,0.5298357,0.5499203,0.57000494,0.59217465,0.61118615,0.6270392,0.64500797,0.660861,0.67775667,0.6978414,0.7200111,0.73905313,0.7517172,0.76018035,0.7675704,0.777076,0.78762436,0.79292905,0.7908133,0.7886976,0.78658164,0.78658164,0.7823502,0.7718018,0.7559489,0.73270583,0.7062738,0.6703669,0.6270392,0.5763217,0.5214032,0.4632957,0.40411508,0.3460076,0.2931744,0.24564576,0.19808662,0.14948499,0.107230544,0.07025027,0.041733146,0.018490195,-0.0037102103,-0.024837434,-0.041733027,-0.05228138,-0.06286031,-0.071323395,-0.07659757,-0.07555497,-0.06601864,-0.05335462,-0.044891477,-0.038574755,-0.034343183,-0.03011161,-0.023764253,-0.021648407,-0.022721648,-0.021648407,-0.020605922,-0.01637435,-0.013216019,-0.008984387,-0.005795419,-0.0015944839,-0.0005212426,-0.004752815,-0.010026932,-0.014258504,-0.015331745,-0.012142777,-0.011100173,-0.010026932,-0.007911146,-0.005795419,-0.0037102103,-0.0068686604,-0.010026932,-0.013216019,-0.011100173,-0.008984387,-0.008984387,-0.013216019,-0.017416835,-0.01953268,-0.017416835,-0.014258504,-0.0068686604,-0.0026370883,0.00371027,0.006868601,0.0026370287,-0.0037102103,-0.0068686604,-0.0068686604,-0.0026370883,-0.0026370883,-0.005795419,-0.012142777,-0.01637435,-0.01637435,-0.015331745,-0.012142777,-0.008984387,-0.004752815,-0.0026370883,-0.0026370883,-0.0026370883,-0.0005212426,0.00371027,0.006868601,0.00371027,-0.0005212426,-0.0037102103,-0.0015944839,0.0047528744,0.0089844465,0.013216019,0.01637435,0.022721767,0.02695334,0.02695334,0.025880098,0.022721767,0.01744759,0.015331864,0.013216019,0.013216019,0.01744759,0.020605922,0.021648526,0.020605922,0.01744759,0.01637435,0.018490195,0.01953268,0.01744759,0.01744759,0.01953268,0.021648526,0.023764372,0.021648526,0.018490195,0.01637435,0.018490195,0.021648526,0.023764372,0.025880098,0.029069066,0.04069054,0.06286025,0.09033489,0.11357784,0.13154674,0.14209497,0.14739978,0.15794802,0.17695951,0.19915986,0.22132957,0.24353004,0.25938308,0.27100468,0.2805102,0.28366864,0.27627873,0.25830984,0.22979271,0.18858087,0.1368208,0.085060835,0.037501574,0.0089844465,0.0015944242,0.006868601,0.015331864,0.015331864,0.0089844465,0.0005213022,-0.005795419,-0.007911146,-0.011100173,-0.014258504,-0.01637435,-0.015331745,-0.014258504,-0.012142777,-0.010026932,-0.004752815,0.00371027,0.012142777,0.029069066,0.074481845,0.16641116,0.29636335,0.43370533,0.50555015,0.46856987,0.341776,0.11673629,-0.19704401,-0.5287931,-0.76649696,-0.8256777,-0.6661352,-0.36078745,-0.07025015,0.107230544,0.17168534,0.17064273,0.15055811,0.13470507,0.13154674,0.1368208,0.15267384,0.17168534,0.18646514,0.19492829,0.2012757,0.207623,0.2160554,0.22132957,0.22767699,0.23190856,0.23718274,0.24353004,0.2477616,0.25199318,0.26149893,0.27839446,0.29952168,0.3206489,0.3396603,0.352355,0.36081815,0.3671348,0.37243962,0.38194537,0.39672518,0.41362083,0.4315896,0.44428444,0.457991,0.47384405,0.49285543,0.5140133,0.5340673,0.5499203,0.566816,0.5879432,0.60910106,0.6302283,0.65028214,0.66720843,0.6841041,0.7031156,0.7200111,0.7369374,0.7517172,0.7633388,0.7707286,0.7707286,0.76861286,0.7675704,0.7696861,0.7718018,0.7675704,0.7569914,0.7400956,0.72108436,0.69572556,0.6597879,0.6143751,0.56261504,0.5087085,0.457991,0.40518832,0.35023928,0.2942475,0.23929846,0.18646514,0.13470507,0.085060835,0.04277575,0.0089844465,-0.017416835,-0.040659785,-0.060744464,-0.077640176,-0.08926159,-0.097724736,-0.1051147,-0.111462,-0.116736114,-0.117809355,-0.11357784,-0.111462,-0.10934627,-0.107230425,-0.10299885,-0.094566405,-0.08610326,-0.0787133,-0.072366,-0.06709188,-0.061817706,-0.057586133,-0.054397106,-0.05019617,-0.044891477,-0.037501514,-0.032227337,-0.02903837,-0.027995765,-0.02903837,-0.03011161,-0.03011161,-0.025880039,-0.01953268,-0.012142777,-0.007911146,-0.008984387,-0.014258504,-0.020605922,-0.024837434,-0.024837434,-0.024837434,-0.024837434,-0.025880039,-0.025880039,-0.027995765,-0.031154096,-0.03538567,-0.040659785,-0.044891477,-0.048080444,-0.05019617,-0.05335462,-0.054397106,-0.05335462,-0.05228138,-0.05335462,-0.05335462,-0.05228138,-0.048080444,-0.0459646,-0.0459646,-0.04912305,-0.05228138,-0.051238775,-0.043848872,-0.03645891,-0.031154096,-0.025880039,-0.022721648,-0.022721648,-0.024837434,-0.025880039,-0.024837434,-0.018490076,-0.012142777,-0.008984387,-0.007911146,-0.0068686604,-0.0026370883,0.00371027,0.007911205,0.007911205,0.0058261156,0.00371027,0.0005213022,0.0005213022,0.0026370287,0.006868601,0.010027051,0.011100292,0.0089844465,0.0047528744,0.0015944242,0.0015944242,0.0026370287,0.0005213022,-0.0005212426,0.0026370287,0.01637435,0.04069054,0.06709182,0.09137738,0.10934627,0.12308347,0.1368208,0.15583217,0.17484367,0.19176996,0.20550728,0.21924448,0.23190856,0.24880409,0.26361465,0.2678156,0.25938308,0.23614013,0.2012757,0.15583217,0.108303785,0.06604934,0.031154156,0.012142777,0.006868601,0.0089844465,0.011100292,0.00371027,-0.0068686604,-0.018490076,-0.027995765,-0.034343183,-0.040659785,-0.0459646,-0.051238775,-0.05335462,-0.05228138,-0.05228138,-0.051238775,-0.04912305,-0.048080444,-0.043848872,-0.01953268,0.043848872,0.15794802,0.3058691,0.44428444,0.49497116,0.43793702,0.2952901,0.058628798,-0.25830978,-0.5710475,-0.77496016,-0.78973997,-0.59217465,-0.27839446,-0.005795419,0.14528406,0.18542254,0.17168534,0.14844239,0.13258922,0.12835765,0.1304735,0.1378634,0.14844239,0.15902126,0.168527,0.17907524,0.19069672,0.20020247,0.20654976,0.21182394,0.21924448,0.22979271,0.24353004,0.2551515,0.2657305,0.27523613,0.2868576,0.2984792,0.30798483,0.31749058,0.3269962,0.3396603,0.3533976,0.36501908,0.37664056,0.38826203,0.40199924,0.41469407,0.4252423,0.43793702,0.45167434,0.47280145,0.497087,0.5182142,0.53829885,0.5551944,0.5731633,0.5942905,0.6154177,0.6376182,0.65662956,0.6767142,0.69676816,0.7115786,0.7253159,0.7379799,0.7506747,0.76018035,0.7633388,0.7612231,0.7569914,0.75487566,0.75383294,0.74855876,0.73482156,0.7115786,0.6841041,0.6523979,0.6133019,0.57000494,0.52032995,0.46752727,0.41150498,0.3533976,0.29636335,0.24353004,0.19600153,0.15160072,0.1051147,0.060744524,0.01953268,-0.011100173,-0.032227337,-0.04912305,-0.061817706,-0.074481726,-0.08294487,-0.0871765,-0.08821899,-0.0871765,-0.08294487,-0.077640176,-0.072366,-0.07343924,-0.077640176,-0.0797559,-0.074481726,-0.06286031,-0.04912305,-0.038574755,-0.031154096,-0.025880039,-0.018490076,-0.012142777,-0.0037102103,0.0015944242,0.0058261156,0.0058261156,0.0015944242,-0.0015944839,-0.0037102103,-0.0015944839,0.0026370287,0.0058261156,0.0089844465,0.012142777,0.01637435,0.01953268,0.018490195,0.01637435,0.012142777,0.0089844465,0.0089844465,0.007911205,0.0047528744,0.0015944242,0.0005213022,0.0015944242,0.0047528744,0.0089844465,0.012142777,0.013216019,0.011100292,0.0058261156,0.0005213022,-0.0026370883,-0.0015944839,0.0005213022,0.0005213022,-0.0005212426,-0.0026370883,-0.0015944839,-0.0015944839,-0.0015944839,-0.0015944839,-0.0026370883,-0.0005212426,0.0015944242,0.0005213022,-0.0005212426,0.0005213022,0.0047528744,0.011100292,0.013216019,0.013216019,0.0089844465,0.0058261156,0.006868601,0.010027051,0.015331864,0.01953268,0.021648526,0.021648526,0.01953268,0.01953268,0.021648526,0.02695334,0.032227397,0.032227397,0.03011167,0.02695334,0.024837613,0.02695334,0.031154156,0.035385728,0.04069054,0.045964718,0.048080444,0.047007322,0.047007322,0.052312136,0.06920767,0.09560895,0.120967746,0.14316821,0.15794802,0.168527,0.18330681,0.20339143,0.22451866,0.24141431,0.2551515,0.2678156,0.27839446,0.29213178,0.30375338,0.30268013,0.28897345,0.25938308,0.21817124,0.16745377,0.11462045,0.06604934,0.024837613,0.0005213022,-0.005795419,0.0005213022,0.006868601,0.006868601,0.0026370287,-0.005795419,-0.011100173,-0.014258504,-0.01953268,-0.025880039,-0.03011161,-0.03011161,-0.027995765,-0.02695328,-0.02695328,-0.02695328,-0.024837434,-0.01637435,0.013216019,0.085060835,0.20339143,0.35551333,0.49497116,0.5414572,0.4749173,0.32276464,0.07025027,-0.26042557,-0.57739484,-0.7781185,-0.7802342,-0.5625843,-0.23506683,0.041733146,0.18753827,0.21924448,0.19600153,0.16533792,0.14632654,0.14316821,0.15160072,0.16533792,0.17907524,0.18965411,0.19704401,0.20550728,0.21393967,0.22132957,0.22344542,0.22451866,0.22767699,0.23825598,0.25199318,0.26361465,0.274163,0.2815528,0.29213178,0.30375338,0.3122164,0.3196063,0.32911205,0.34389186,0.35870242,0.37136638,0.38087213,0.38933527,0.40095663,0.41573656,0.42947388,0.44428444,0.45906425,0.47807562,0.49920273,0.52032995,0.53934145,0.5573102,0.57739496,0.59640634,0.6143751,0.632344,0.65028214,0.66929364,0.68937826,0.70734704,0.7253159,0.7400956,0.75383294,0.7633388,0.76545453,0.7633388,0.7580646,0.7559489,0.7527597,0.74644303,0.73586416,0.7168528,0.691494,0.6597879,0.61649096,0.5678892,0.51294005,0.457991,0.40518832,0.352355,0.29740596,0.24248755,0.18965411,0.13893664,0.09245062,0.052312136,0.01637435,-0.011100173,-0.03538567,-0.058628738,-0.077640176,-0.09245068,-0.10195631,-0.107230425,-0.108303666,-0.107230425,-0.1051147,-0.09984058,-0.09560889,-0.09349316,-0.09349316,-0.09560889,-0.09668213,-0.094566405,-0.09137744,-0.083987474,-0.07659757,-0.06709188,-0.061817706,-0.061817706,-0.063902795,-0.06601864,-0.06286031,-0.058628738,-0.055470347,-0.05335462,-0.051238775,-0.0459646,-0.0396173,-0.03645891,-0.034343183,-0.03538567,-0.03326994,-0.02903837,-0.02903837,-0.031154096,-0.034343183,-0.034343183,-0.034343183,-0.03538567,-0.0396173,-0.0459646,-0.051238775,-0.054397106,-0.058628738,-0.05970198,-0.060744464,-0.057586133,-0.054397106,-0.055470347,-0.056512892,-0.058628738,-0.057586133,-0.05228138,-0.04912305,-0.044891477,-0.041733027,-0.03645891,-0.034343183,-0.03645891,-0.0396173,-0.041733027,-0.040659785,-0.038574755,-0.0396173,-0.0396173,-0.0396173,-0.03538567,-0.031154096,-0.02903837,-0.03011161,-0.032227337,-0.032227337,-0.031154096,-0.03326994,-0.03538567,-0.03538567,-0.03326994,-0.031154096,-0.032227337,-0.034343183,-0.037501514,-0.03645891,-0.032227337,-0.031154096,-0.02903837,-0.02903837,-0.025880039,-0.021648407,-0.01953268,-0.017416835,-0.018490076,-0.01637435,-0.005795419,0.01637435,0.045964718,0.07767081,0.107230544,0.12519932,0.13366246,0.14528406,0.16006374,0.17803276,0.19704401,0.21078146,0.22663438,0.24248755,0.2625414,0.27100468,0.2625414,0.23614013,0.19600153,0.14844239,0.094566345,0.0396173,-0.007911146,-0.040659785,-0.05228138,-0.051238775,-0.05019617,-0.05335462,-0.061817706,-0.06920761,-0.074481726,-0.0787133,-0.08187163,-0.083987474,-0.08294487,-0.0797559,-0.07555497,-0.072366,-0.074481726,-0.074481726,-0.07659757,-0.08294487,-0.07555497,-0.034343183,0.06604934,0.21393967,0.37982953,0.4833498,0.46645403,0.35870242,0.14948499,-0.16745365,-0.52140313,-0.79924566,-0.9017539,-0.76438123,-0.45167422,-0.12412614,0.088219166,0.17064273,0.17168534,0.14421082,0.12415671,0.11885202,0.1304735,0.14844239,0.16533792,0.17695951,0.18330681,0.19388568,0.20654976,0.21712863,0.22344542,0.22767699,0.23295116,0.2403717,0.24987733,0.26149893,0.27100468,0.28366864,0.2952901,0.30479586,0.3122164,0.3196063,0.33015466,0.341776,0.35447085,0.36820805,0.3840611,0.40411508,0.42312658,0.43793702,0.45167434,0.4632957,0.47914886,0.49816024,0.5150559,0.5287931,0.5425304,0.56261504,0.58478475,0.6080278,0.6270392,0.64184976,0.65767205,0.67459834,0.6936097,0.7126211,0.72847426,0.74221134,0.75487566,0.76545453,0.77391756,0.77919173,0.7813077,0.77919173,0.77391756,0.7643813,0.7517172,0.7369374,0.7158102,0.6872624,0.6534711,0.61014366,0.5604992,0.5044769,0.44109535,0.37559795,0.3122164,0.2541089,0.20231819,0.15371644,0.107230544,0.061817765,0.023764372,-0.0068686604,-0.03326994,-0.055470347,-0.074481726,-0.0871765,-0.09668213,-0.10088307,-0.10299885,-0.104072094,-0.10299885,-0.10299885,-0.10299885,-0.10195631,-0.097724736,-0.08821899,-0.0787133,-0.07025015,-0.06497604,-0.060744464,-0.055470347,-0.05019617,-0.044891477,-0.0396173,-0.03645891,-0.03326994,-0.03011161,-0.027995765,-0.024837434,-0.020605922,-0.014258504,-0.008984387,-0.005795419,-0.005795419,-0.0068686604,-0.004752815,-0.0026370883,-0.0015944839,-0.0026370883,-0.004752815,-0.005795419,-0.007911146,-0.011100173,-0.014258504,-0.01637435,-0.01637435,-0.012142777,-0.011100173,-0.013216019,-0.015331745,-0.015331745,-0.015331745,-0.015331745,-0.014258504,-0.017416835,-0.018490076,-0.018490076,-0.01953268,-0.023764253,-0.02695328,-0.02903837,-0.02903837,-0.03011161,-0.02903837,-0.027995765,-0.023764253,-0.020605922,-0.022721648,-0.025880039,-0.031154096,-0.031154096,-0.02695328,-0.023764253,-0.024837434,-0.027995765,-0.03011161,-0.031154096,-0.031154096,-0.031154096,-0.02903837,-0.021648407,-0.013216019,-0.0068686604,-0.0026370883,-0.0026370883,-0.0037102103,-0.004752815,-0.008984387,-0.013216019,-0.012142777,0.0015944242,0.024837613,0.051238894,0.075555086,0.09245062,0.104072094,0.11569369,0.1304735,0.15160072,0.17272794,0.19388568,0.21078146,0.22344542,0.23825598,0.2541089,0.26149893,0.25303566,0.22240281,0.17272794,0.10934627,0.048080444,-0.0026370883,-0.037501514,-0.051238775,-0.051238775,-0.043848872,-0.0396173,-0.040659785,-0.047007203,-0.055470347,-0.06286031,-0.06709188,-0.071323395,-0.07343924,-0.07343924,-0.07025015,-0.06497604,-0.061817706,-0.060744464,-0.060744464,-0.057586133,-0.047007203,-0.018490076,0.043848872,0.15371644,0.29636335,0.430547,0.4759599,0.4104625,0.24668837,-0.018490076,-0.36186063,-0.6862198,-0.8859009,-0.8827119,-0.65978783,-0.32803875,-0.0459646,0.11253536,0.16217959,0.16217959,0.15055811,0.14528406,0.14948499,0.16006374,0.17380106,0.18646514,0.19600153,0.20020247,0.20550728,0.21501291,0.22663438,0.23614013,0.24248755,0.24668837,0.25303566,0.26149893,0.27100468,0.2815528,0.29105854,0.30268013,0.31641734,0.33015466,0.34284925,0.35447085,0.36925054,0.38298798,0.39460945,0.4062308,0.41892564,0.43474793,0.45167434,0.46645403,0.48123395,0.49497116,0.5108243,0.52771986,0.54568875,0.56261504,0.5805533,0.6016805,0.621765,0.6407765,0.6597879,0.6767142,0.69572556,0.71473694,0.72951686,0.74325407,0.7527597,0.7643813,0.7728443,0.7781185,0.77919173,0.77600276,0.77391756,0.7707286,0.7643813,0.75487566,0.73586416,0.7115786,0.6798724,0.6376182,0.5900589,0.5361831,0.4833498,0.42735815,0.36925054,0.3090273,0.2477616,0.19281244,0.14316821,0.09668219,0.055470467,0.018490195,-0.008984387,-0.02695328,-0.043848872,-0.057586133,-0.07025015,-0.0797559,-0.08294487,-0.08294487,-0.08294487,-0.085060716,-0.083987474,-0.08082914,-0.077640176,-0.07343924,-0.072366,-0.06920761,-0.06601864,-0.063902795,-0.061817706,-0.058628738,-0.054397106,-0.04912305,-0.047007203,-0.0459646,-0.0459646,-0.04277563,-0.0396173,-0.037501514,-0.03645891,-0.03645891,-0.02695328,-0.012142777,-0.0015944839,0.0047528744,0.0026370287,-0.0026370883,-0.007911146,-0.010026932,-0.011100173,-0.014258504,-0.015331745,-0.01637435,-0.018490076,-0.01953268,-0.020605922,-0.017416835,-0.015331745,-0.018490076,-0.01953268,-0.018490076,-0.012142777,-0.004752815,-0.0037102103,-0.011100173,-0.021648407,-0.027995765,-0.02903837,-0.02903837,-0.031154096,-0.03326994,-0.03326994,-0.02903837,-0.025880039,-0.022721648,-0.021648407,-0.01953268,-0.01637435,-0.015331745,-0.015331745,-0.01953268,-0.020605922,-0.021648407,-0.022721648,-0.024837434,-0.027995765,-0.02903837,-0.027995765,-0.024837434,-0.021648407,-0.01953268,-0.01637435,-0.012142777,-0.0068686604,-0.0026370883,0.0005213022,0.00371027,0.0047528744,0.010027051,0.023764372,0.04277575,0.06813443,0.08929241,0.10299897,0.11357784,0.12943089,0.15583217,0.18330681,0.20550728,0.22240281,0.23506689,0.25091994,0.26993144,0.27839446,0.26993144,0.24248755,0.2012757,0.14948499,0.08929241,0.033269882,-0.013216019,-0.040659785,-0.04912305,-0.048080444,-0.0459646,-0.048080444,-0.051238775,-0.057586133,-0.06709188,-0.07555497,-0.08187163,-0.08187163,-0.0797559,-0.07659757,-0.07343924,-0.071323395,-0.06601864,-0.06286031,-0.063902795,-0.071323395,-0.06709188,-0.023764253,0.07659757,0.21817124,0.37982953,0.48442304,0.4749173,0.36925054,0.17064273,-0.12624186,-0.4643383,-0.73693734,-0.8510364,-0.74644303,-0.45799088,-0.13366246,0.09560895,0.19176996,0.19704401,0.16745377,0.14105237,0.13258922,0.1378634,0.14948499,0.16006374,0.16745377,0.17591691,0.18330681,0.18858087,0.19492829,0.20020247,0.21289718,0.22875023,0.24353004,0.2551515,0.26361465,0.27204716,0.2805102,0.29001594,0.29952168,0.3090273,0.32172215,0.33650196,0.35023928,0.36186075,0.37032378,0.38194537,0.39776778,0.41469407,0.43474793,0.45483267,0.4749173,0.49285543,0.507666,0.5214032,0.5351405,0.5509629,0.566816,0.58162653,0.59640634,0.6122594,0.6344292,0.6597879,0.6841041,0.7052313,0.72212696,0.7379799,0.7527597,0.7643813,0.7718018,0.77391756,0.7749603,0.7749603,0.7718018,0.766497,0.7569914,0.74644303,0.7305901,0.70838964,0.6798724,0.64184976,0.59640634,0.54464626,0.48758137,0.42843127,0.37032378,0.31641734,0.26361465,0.21078146,0.16006374,0.11253536,0.072366,0.037501574,0.0047528744,-0.025880039,-0.05335462,-0.072366,-0.08610326,-0.094566405,-0.10088307,-0.1051147,-0.10195631,-0.094566405,-0.08821899,-0.08187163,-0.08187163,-0.08082914,-0.077640176,-0.07343924,-0.06813437,-0.06286031,-0.057586133,-0.05335462,-0.055470347,-0.061817706,-0.06813437,-0.06813437,-0.061817706,-0.05335462,-0.0459646,-0.043848872,-0.041733027,-0.0396173,-0.03645891,-0.03326994,-0.02903837,-0.021648407,-0.013216019,-0.008984387,-0.0068686604,-0.007911146,-0.007911146,-0.005795419,-0.0037102103,-0.0037102103,-0.0068686604,-0.0068686604,-0.004752815,-0.0005212426,0.00371027,0.007911205,0.013216019,0.014258623,0.011100292,0.006868601,0.0005213022,0.0005213022,0.0015944242,0.0026370287,0.0005213022,-0.0026370883,-0.0026370883,-0.0005212426,0.0015944242,0.0015944242,-0.0015944839,-0.0037102103,-0.005795419,-0.010026932,-0.014258504,-0.01953268,-0.01953268,-0.017416835,-0.01637435,-0.015331745,-0.01637435,-0.015331745,-0.014258504,-0.014258504,-0.015331745,-0.01637435,-0.015331745,-0.013216019,-0.011100173,-0.008984387,-0.008984387,-0.0068686604,-0.004752815,-0.0015944839,0.010027051,0.031154156,0.060744524,0.08929241,0.10934627,0.11992526,0.12943089,0.14948499,0.17695951,0.20550728,0.22979271,0.24668837,0.25938308,0.27523613,0.28578436,0.28578436,0.27100468,0.24248755,0.2012757,0.14739978,0.08610332,0.029069066,-0.012142777,-0.031154096,-0.03326994,-0.02903837,-0.027995765,-0.03011161,-0.034343183,-0.0396173,-0.047007203,-0.05335462,-0.056512892,-0.056512892,-0.056512892,-0.054397106,-0.05335462,-0.04912305,-0.0459646,-0.0459646,-0.05019617,-0.057586133,-0.047007203,0.0026370287,0.108303785,0.2561941,0.4178524,0.5150559,0.49181283,0.37032378,0.14528406,-0.18753833,-0.54464614,-0.816172,-0.90595484,-0.7591071,-0.4400527,-0.108303666,0.10618794,0.18646514,0.18226421,0.14948499,0.12624192,0.11885202,0.12624192,0.14209497,0.15794802,0.17695951,0.18858087,0.19388568,0.19492829,0.19388568,0.2012757,0.21501291,0.22767699,0.23718274,0.24564576,0.25726736,0.2731204,0.29105854,0.30479586,0.3132589,0.3206489,0.3280388,0.3375752,0.34919667,0.36081815,0.37559795,0.39037788,0.40307248,0.41573656,0.42843127,0.44636953,0.46752727,0.48758137,0.5044769,0.5182142,0.5351405,0.55307865,0.5721208,0.59113216,0.6080278,0.62915504,0.6545137,0.6788299,0.702073,0.72108436,0.73905313,0.75383294,0.766497,0.77600276,0.7813077,0.78553915,0.78658164,0.7834234,0.77600276,0.7633388,0.7496015,0.7316326,0.7094629,0.6809151,0.6460506,0.6080278,0.5647001,0.5140133,0.45694852,0.39672518,0.3375752,0.27943707,0.22132957,0.16429543,0.11041951,0.06393349,0.022721767,-0.014258504,-0.048080444,-0.077640176,-0.09668213,-0.10934627,-0.11885196,-0.12519926,-0.13047343,-0.12943083,-0.12624186,-0.12308353,-0.120967686,-0.1199252,-0.11462033,-0.108303666,-0.10195631,-0.097724736,-0.09668213,-0.09245068,-0.08926159,-0.08610326,-0.08294487,-0.08187163,-0.08082914,-0.0787133,-0.074481726,-0.06920761,-0.061817706,-0.056512892,-0.055470347,-0.058628738,-0.063902795,-0.06601864,-0.06497604,-0.06286031,-0.060744464,-0.058628738,-0.05970198,-0.057586133,-0.057586133,-0.05970198,-0.060744464,-0.060744464,-0.056512892,-0.057586133,-0.06497604,-0.072366,-0.0797559,-0.07659757,-0.06813437,-0.05970198,-0.056512892,-0.058628738,-0.05970198,-0.058628738,-0.054397106,-0.04912305,-0.0459646,-0.041733027,-0.038574755,-0.040659785,-0.04277563,-0.047007203,-0.047007203,-0.044891477,-0.041733027,-0.040659785,-0.0396173,-0.03326994,-0.02695328,-0.020605922,-0.017416835,-0.018490076,-0.018490076,-0.01637435,-0.012142777,-0.007911146,-0.010026932,-0.008984387,-0.007911146,-0.0068686604,-0.005795419,-0.0068686604,-0.008984387,-0.0068686604,-0.0037102103,0.0015944242,0.0015944242,0.0026370287,0.00371027,0.011100292,0.031154156,0.058628798,0.08929241,0.11462045,0.12943089,0.1378634,0.15371644,0.18119109,0.21393967,0.24141431,0.2604257,0.26993144,0.2805102,0.2952901,0.30163753,0.2931744,0.26465726,0.22344542,0.17064273,0.111462116,0.057586193,0.013216019,-0.008984387,-0.014258504,-0.012142777,-0.013216019,-0.020605922,-0.027995765,-0.03538567,-0.04277563,-0.05019617,-0.057586133,-0.057586133,-0.05335462,-0.051238775,-0.04912305,-0.05228138,-0.054397106,-0.05335462,-0.05228138,-0.05335462,-0.048080444,-0.017416835,0.057586193,0.18542254,0.3449651,0.48123395,0.51717174,0.44532692,0.26361465,-0.04277563,-0.42419964,-0.75699127,-0.9355452,-0.88059616,-0.6080277,-0.2625414,0.0058261156,0.13997924,0.17064273,0.15583217,0.13258922,0.12519932,0.13366246,0.14844239,0.16429543,0.17695951,0.18858087,0.19704401,0.20443404,0.20970821,0.21501291,0.22451866,0.23402429,0.2403717,0.24564576,0.24987733,0.2604257,0.274163,0.28897345,0.30163753,0.31433213,0.33015466,0.3460076,0.36081815,0.37032378,0.37559795,0.3840611,0.39672518,0.41257823,0.4315896,0.44744265,0.46117997,0.47384405,0.48546553,0.5013186,0.5214032,0.543573,0.56261504,0.5805533,0.59640634,0.6122594,0.63550234,0.6597879,0.68198824,0.7031156,0.72108436,0.7400956,0.7569914,0.766497,0.7707286,0.7718018,0.7728443,0.7749603,0.7802342,0.7813077,0.77600276,0.76861286,0.7569914,0.73905313,0.71369433,0.67775667,0.6344292,0.582669,0.5245615,0.46117997,0.39672518,0.33650196,0.28262603,0.22979271,0.17591691,0.11992526,0.071323514,0.031154156,-0.0005212426,-0.022721648,-0.044891477,-0.063902795,-0.08187163,-0.09560889,-0.10618794,-0.111462,-0.1125046,-0.10934627,-0.108303666,-0.10618794,-0.1051147,-0.10088307,-0.09560889,-0.09033483,-0.085060716,-0.08187163,-0.077640176,-0.07659757,-0.072366,-0.06920761,-0.06497604,-0.054397106,-0.044891477,-0.034343183,-0.025880039,-0.020605922,-0.01637435,-0.014258504,-0.013216019,-0.012142777,-0.013216019,-0.008984387,-0.004752815,-0.0015944839,-0.0026370883,-0.0068686604,-0.008984387,-0.010026932,-0.011100173,-0.012142777,-0.01637435,-0.018490076,-0.018490076,-0.01953268,-0.021648407,-0.025880039,-0.02903837,-0.027995765,-0.023764253,-0.020605922,-0.018490076,-0.015331745,-0.015331745,-0.017416835,-0.018490076,-0.018490076,-0.013216019,-0.0068686604,-0.0037102103,-0.004752815,-0.010026932,-0.011100173,-0.012142777,-0.010026932,-0.007911146,-0.0068686604,-0.0026370883,0.0015944242,0.0015944242,-0.0015944839,-0.004752815,-0.0068686604,-0.005795419,-0.0015944839,0.0026370287,0.0058261156,0.013216019,0.01953268,0.021648526,0.020605922,0.01744759,0.014258623,0.012142777,0.012142777,0.012142777,0.01637435,0.03645897,0.06393349,0.09349322,0.11673629,0.12835765,0.13577831,0.14632654,0.16429543,0.18858087,0.21393967,0.23614013,0.25303566,0.26465726,0.2731204,0.2731204,0.26465726,0.24141431,0.20231819,0.14528406,0.07975602,0.023764372,-0.01637435,-0.034343183,-0.037501514,-0.034343183,-0.027995765,-0.024837434,-0.025880039,-0.03011161,-0.038574755,-0.043848872,-0.047007203,-0.04912305,-0.051238775,-0.055470347,-0.055470347,-0.05335462,-0.05228138,-0.05335462,-0.055470347,-0.05228138,-0.040659785,-0.007911146,0.06393349,0.17591691,0.31537473,0.42843127,0.44744265,0.3671348,0.18646514,-0.094566405,-0.43582118,-0.72424257,-0.8658163,-0.7971299,-0.53302467,-0.20970803,0.032227397,0.15055811,0.17695951,0.168527,0.15902126,0.15794802,0.1632222,0.17064273,0.18226421,0.19600153,0.20654976,0.21501291,0.22028697,0.22875023,0.23825598,0.2477616,0.2561941,0.26149893,0.26993144,0.27943707,0.29105854,0.30163753,0.3122164,0.32488048,0.33861768,0.3533976,0.36925054,0.3840611,0.40199924,0.41892564,0.4326322,0.4421686,0.4495585,0.46117997,0.4749173,0.4886546,0.50027597,0.5097817,0.5235189,0.53934145,0.55838346,0.5763217,0.59113216,0.60910106,0.62811244,0.64923954,0.6703669,0.68937826,0.70734704,0.7232002,0.7379799,0.7496015,0.7591071,0.7696861,0.7781185,0.7823502,0.7834234,0.7813077,0.777076,0.7696861,0.7580646,0.74221134,0.7200111,0.6936097,0.660861,0.6186067,0.566816,0.50659275,0.44636953,0.3861463,0.3269962,0.26993144,0.21501291,0.16429543,0.117809534,0.072366,0.032227397,-0.0015944839,-0.024837434,-0.04277563,-0.057586133,-0.07025015,-0.08187163,-0.085060716,-0.08294487,-0.08082914,-0.08187163,-0.08294487,-0.08294487,-0.08082914,-0.0787133,-0.08082914,-0.083987474,-0.08187163,-0.0787133,-0.072366,-0.06601864,-0.061817706,-0.054397106,-0.047007203,-0.040659785,-0.03538567,-0.032227337,-0.027995765,-0.023764253,-0.01953268,-0.015331745,-0.014258504,-0.012142777,-0.010026932,-0.007911146,-0.005795419,-0.0015944839,0.0047528744,0.0089844465,0.0089844465,0.00371027,-0.0015944839,-0.0026370883,-0.0015944839,0.0015944242,0.0015944242,0.0005213022,0.0015944242,0.00371027,0.0026370287,-0.0026370883,-0.010026932,-0.013216019,-0.013216019,-0.010026932,-0.0068686604,-0.004752815,-0.0026370883,-0.0005212426,0.0005213022,-0.0005212426,-0.0015944839,0.0005213022,0.0026370287,0.00371027,0.00371027,0.00371027,0.006868601,0.012142777,0.018490195,0.021648526,0.020605922,0.020605922,0.018490195,0.01744759,0.01637435,0.013216019,0.015331864,0.01744759,0.01744759,0.01637435,0.013216019,0.011100292,0.0089844465,0.0089844465,0.010027051,0.014258623,0.032227397,0.057586193,0.08717656,0.111462116,0.12624192,0.1368208,0.15055811,0.17064273,0.19281244,0.21289718,0.23190856,0.24880409,0.2678156,0.28578436,0.2942475,0.28897345,0.26888883,0.23402429,0.18646514,0.12624192,0.06604934,0.012142777,-0.025880039,-0.04277563,-0.04912305,-0.0459646,-0.041733027,-0.038574755,-0.034343183,-0.031154096,-0.02903837,-0.03011161,-0.034343183,-0.0396173,-0.04277563,-0.0396173,-0.03645891,-0.03326994,-0.03538567,-0.040659785,-0.0459646,-0.05019617,-0.03326994,0.031154156,0.14316821,0.2942475,0.44109535,0.497087,0.4315896,0.2815528,0.054397225,-0.24880415,-0.5382988,-0.73059,-0.75487554,-0.57420576,-0.27312028,0.0015944242,0.15794802,0.20020247,0.18542254,0.15794802,0.14316821,0.14209497,0.15055811,0.16533792,0.17907524,0.19069672,0.19915986,0.20550728,0.21393967,0.22240281,0.22979271,0.23614013,0.24248755,0.25091994,0.26149893,0.2731204,0.28474188,0.2952901,0.30798483,0.3196063,0.3280388,0.33545947,0.34389186,0.35762918,0.3745247,0.39145112,0.40411508,0.41257823,0.42208397,0.43370533,0.44744265,0.46222246,0.47807562,0.49816024,0.52032995,0.5414572,0.5604992,0.57843745,0.59852207,0.6207224,0.64184976,0.66401947,0.6851466,0.70838964,0.73270583,0.75487566,0.7718018,0.7834234,0.7950449,0.8045505,0.81405616,0.81933033,0.82144606,0.8204036,0.8150989,0.8034773,0.78658164,0.76545453,0.74113834,0.7094629,0.6703669,0.6196492,0.5615418,0.5023918,0.44428444,0.3861463,0.3269962,0.2678156,0.21393967,0.16429543,0.117809534,0.075555086,0.037501574,0.007911205,-0.012142777,-0.024837434,-0.034343183,-0.04277563,-0.04912305,-0.054397106,-0.057586133,-0.060744464,-0.061817706,-0.057586133,-0.05019617,-0.04277563,-0.03645891,-0.034343183,-0.032227337,-0.03011161,-0.027995765,-0.027995765,-0.031154096,-0.027995765,-0.020605922,-0.012142777,-0.004752815,-0.0015944839,0.0005213022,0.0005213022,0.0015944242,0.00371027,0.0058261156,0.010027051,0.014258623,0.01637435,0.014258623,0.012142777,0.015331864,0.021648526,0.027995944,0.029069066,0.023764372,0.021648526,0.020605922,0.024837613,0.029069066,0.029069066,0.02695334,0.021648526,0.012142777,0.0047528744,0.0015944242,0.00371027,0.006868601,0.0089844465,0.0047528744,-0.0005212426,-0.0037102103,-0.004752815,-0.0037102103,-0.0015944839,-0.0005212426,0.0047528744,0.010027051,0.013216019,0.013216019,0.013216019,0.01637435,0.020605922,0.025880098,0.029069066,0.029069066,0.031154156,0.032227397,0.032227397,0.03011167,0.027995944,0.027995944,0.029069066,0.03011167,0.029069066,0.024837613,0.022721767,0.024837613,0.034343123,0.054397225,0.08082914,0.10934627,0.1304735,0.14421082,0.15055811,0.16533792,0.19069672,0.21924448,0.24564576,0.2625414,0.27204716,0.2815528,0.29213178,0.2952901,0.28474188,0.25938308,0.22240281,0.17380106,0.11569369,0.05651307,0.006868601,-0.023764253,-0.034343183,-0.03326994,-0.031154096,-0.03326994,-0.037501514,-0.04277563,-0.05019617,-0.05970198,-0.06813437,-0.06920761,-0.06813437,-0.06497604,-0.06286031,-0.063902795,-0.06497604,-0.06709188,-0.06920761,-0.07659757,-0.0797559,-0.055470347,0.018490195,0.14739978,0.31010056,0.457991,0.507666,0.43582118,0.2731204,0.0015944242,-0.34916592,-0.6787992,-0.8827119,-0.87743783,-0.6513554,-0.3121857,-0.022721648,0.13154674,0.16956949,0.14844239,0.117809534,0.10299897,0.104072094,0.11569369,0.12835765,0.13997924,0.15478969,0.16641116,0.17695951,0.18330681,0.18646514,0.19600153,0.21078146,0.22875023,0.24564576,0.25726736,0.2657305,0.2731204,0.2805102,0.29213178,0.3058691,0.32276464,0.3407334,0.35447085,0.36820805,0.38298798,0.3998835,0.41573656,0.42947388,0.43793702,0.44636953,0.45906425,0.47384405,0.49181283,0.5087085,0.52771986,0.5478046,0.566816,0.58374226,0.60275364,0.621765,0.6471237,0.6735252,0.69995713,0.7200111,0.73586416,0.7527597,0.766497,0.7781185,0.7897401,0.7971606,0.8034773,0.80666625,0.8034773,0.7950449,0.7844659,0.7728443,0.7580646,0.73586416,0.7031156,0.66401947,0.6228076,0.57739496,0.52667725,0.46856987,0.40199924,0.33650196,0.2731204,0.21289718,0.15583217,0.10299897,0.061817765,0.025880098,-0.0068686604,-0.03645891,-0.063902795,-0.08187163,-0.094566405,-0.10088307,-0.104072094,-0.104072094,-0.09879798,-0.09137744,-0.08610326,-0.083987474,-0.085060716,-0.083987474,-0.08082914,-0.07555497,-0.07025015,-0.06920761,-0.06813437,-0.06709188,-0.063902795,-0.058628738,-0.051238775,-0.04277563,-0.038574755,-0.03645891,-0.037501514,-0.040659785,-0.03538567,-0.02903837,-0.021648407,-0.018490076,-0.018490076,-0.01953268,-0.018490076,-0.015331745,-0.013216019,-0.015331745,-0.01953268,-0.02695328,-0.034343183,-0.040659785,-0.041733027,-0.037501514,-0.032227337,-0.027995765,-0.027995765,-0.025880039,-0.020605922,-0.014258504,-0.011100173,-0.013216019,-0.018490076,-0.018490076,-0.017416835,-0.012142777,-0.007911146,-0.004752815,-0.0026370883,-0.0015944839,-0.0026370883,-0.0068686604,-0.013216019,-0.013216019,-0.013216019,-0.013216019,-0.014258504,-0.01637435,-0.015331745,-0.010026932,-0.0026370883,0.0005213022,-0.0005212426,-0.0015944839,-0.0015944839,-0.0015944839,0.0005213022,0.0015944242,0.00371027,0.0058261156,0.0058261156,0.0026370287,0.0015944242,0.011100292,0.032227397,0.064976096,0.09668219,0.11992526,0.13366246,0.1378634,0.13893664,0.14844239,0.16956949,0.20020247,0.23086596,0.25199318,0.266773,0.274163,0.28578436,0.29213178,0.28474188,0.2604257,0.21924448,0.16533792,0.108303785,0.05335462,0.012142777,-0.010026932,-0.013216019,-0.0068686604,-0.004752815,-0.008984387,-0.018490076,-0.025880039,-0.031154096,-0.034343183,-0.037501514,-0.04277563,-0.044891477,-0.048080444,-0.055470347,-0.06286031,-0.07025015,-0.07343924,-0.06813437,-0.060744464,-0.048080444,-0.017416835,0.051238894,0.16641116,0.31010056,0.42419982,0.43793702,0.35128176,0.16006374,-0.13574755,-0.49285537,-0.79292905,-0.93342936,-0.85207903,-0.57000494,-0.23402429,0.014258623,0.13366246,0.16006374,0.14739978,0.13154674,0.12415671,0.12943089,0.14105237,0.15583217,0.168527,0.17695951,0.18646514,0.19492829,0.20339143,0.21078146,0.2160554,0.22344542,0.23190856,0.24141431,0.25091994,0.2625414,0.27735186,0.2931744,0.3069116,0.3122164,0.31114316,0.31537473,0.32595372,0.34284925,0.36290336,0.37875628,0.39460945,0.40834665,0.42208397,0.43474793,0.44744265,0.46222246,0.47914886,0.50027597,0.5214032,0.5414572,0.56261504,0.5795107,0.59536374,0.60910106,0.62388086,0.64184976,0.662977,0.6841041,0.7031156,0.72212696,0.73905313,0.75487566,0.766497,0.7718018,0.7728443,0.77600276,0.777076,0.777076,0.77391756,0.7633388,0.74748576,0.7253159,0.691494,0.6481664,0.5974796,0.5425304,0.4823072,0.41996813,0.35762918,0.2952901,0.24141431,0.18858087,0.13470507,0.08187175,0.032227397,-0.008984387,-0.043848872,-0.07025015,-0.09137744,-0.107230425,-0.11462033,-0.116736114,-0.116736114,-0.117809355,-0.116736114,-0.11357784,-0.10934627,-0.104072094,-0.10299885,-0.104072094,-0.10088307,-0.094566405,-0.08610326,-0.0797559,-0.077640176,-0.074481726,-0.07025015,-0.060744464,-0.04912305,-0.040659785,-0.032227337,-0.027995765,-0.027995765,-0.02903837,-0.02903837,-0.02695328,-0.023764253,-0.022721648,-0.022721648,-0.021648407,-0.01637435,-0.010026932,-0.005795419,-0.0068686604,-0.012142777,-0.01953268,-0.027995765,-0.034343183,-0.0396173,-0.040659785,-0.038574755,-0.03645891,-0.03645891,-0.0396173,-0.043848872,-0.044891477,-0.044891477,-0.043848872,-0.0459646,-0.047007203,-0.04277563,-0.038574755,-0.034343183,-0.03538567,-0.0396173,-0.041733027,-0.040659785,-0.037501514,-0.03538567,-0.03538567,-0.03326994,-0.03011161,-0.02695328,-0.02695328,-0.031154096,-0.032227337,-0.03011161,-0.020605922,-0.0068686604,0.015331864,0.041733146,0.06813443,0.08929241,0.09984052,0.10299897,0.111462116,0.12624192,0.14421082,0.16110635,0.17484367,0.19069672,0.20970821,0.23295116,0.2477616,0.24457264,0.22556114,0.19069672,0.14105237,0.07975602,0.01953268,-0.02695328,-0.055470347,-0.061817706,-0.057586133,-0.054397106,-0.054397106,-0.061817706,-0.07343924,-0.085060716,-0.09349316,-0.09560889,-0.094566405,-0.09349316,-0.094566405,-0.09668213,-0.09879798,-0.09984058,-0.09984058,-0.10088307,-0.10195631,-0.09668213,-0.06920761,-0.004752815,0.104072094,0.23929846,0.37243962,0.42735815,0.37559795,0.23929846,0.0089844465,-0.30056417,-0.61014354,-0.81828773,-0.84784746,-0.6671777,-0.35762912,-0.071323395,0.097724795,0.14948499,0.13997924,0.117809534,0.107230544,0.10934627,0.11673629,0.12624192,0.1378634,0.14948499,0.15794802,0.1632222,0.16533792,0.17272794,0.18330681,0.19600153,0.20550728,0.21289718,0.22344542,0.23614013,0.25091994,0.2625414,0.27100468,0.27943707,0.28897345,0.30163753,0.3132589,0.32383788,0.33545947,0.3449651,0.3533976,0.36186075,0.3734821,0.38933527,0.40834665,0.42631555,0.4389795,0.4495585,0.4643383,0.4833498,0.50659275,0.5319514,0.5551944,0.5795107,0.6016805,0.621765,0.63866067,0.6545137,0.6735252,0.6925672,0.71050537,0.72212696,0.7305901,0.7379799,0.74325407,0.74644303,0.7453698,0.7379799,0.7305901,0.71789527,0.70099974,0.67564094,0.6397339,0.5995647,0.55307865,0.5023918,0.44636953,0.3851037,0.3280388,0.2731204,0.22132957,0.16956949,0.11673629,0.06813443,0.022721767,-0.013216019,-0.0459646,-0.071323395,-0.09033483,-0.10299885,-0.1125046,-0.1199252,-0.1273151,-0.13047343,-0.13258922,-0.13258922,-0.13366246,-0.1368208,-0.13574755,-0.13154668,-0.12519926,-0.11885196,-0.1125046,-0.1051147,-0.09984058,-0.09349316,-0.085060716,-0.077640176,-0.06709188,-0.058628738,-0.056512892,-0.05970198,-0.06601864,-0.06813437,-0.06601864,-0.061817706,-0.058628738,-0.05970198,-0.05970198,-0.05970198,-0.058628738,-0.058628738,-0.05970198,-0.05970198,-0.061817706,-0.061817706,-0.063902795,-0.06497604,-0.063902795,-0.061817706,-0.05970198,-0.06286031,-0.06601864,-0.063902795,-0.05970198,-0.05335462,-0.05228138,-0.057586133,-0.063902795,-0.06813437,-0.06709188,-0.06497604,-0.063902795,-0.06286031,-0.061817706,-0.058628738,-0.05335462,-0.047007203,-0.040659785,-0.037501514,-0.03645891,-0.037501514,-0.0396173,-0.037501514,-0.03326994,-0.03011161,-0.02903837,-0.03011161,-0.03011161,-0.02903837,-0.025880039,-0.022721648,-0.015331745,0.0026370287,0.02695334,0.05335462,0.071323514,0.08187175,0.094566345,0.11673629,0.14316821,0.168527,0.18438005,0.19808662,0.21393967,0.23506689,0.2551515,0.2625414,0.2561941,0.23190856,0.19176996,0.1368208,0.072366,0.013216019,-0.032227337,-0.056512892,-0.06286031,-0.058628738,-0.05335462,-0.051238775,-0.05335462,-0.061817706,-0.07343924,-0.08294487,-0.09033483,-0.09245068,-0.09245068,-0.09033483,-0.083987474,-0.0797559,-0.077640176,-0.08082914,-0.083987474,-0.08821899,-0.083987474,-0.05019617,0.031154156,0.16110635,0.32172215,0.45483267,0.48123395,0.39460945,0.21924448,-0.054397106,-0.39037776,-0.6914939,-0.86370045,-0.82990927,-0.5879431,-0.26042557,0.00371027,0.1378634,0.16533792,0.14739978,0.12308347,0.10934627,0.107230544,0.11569369,0.1304735,0.14739978,0.1632222,0.17484367,0.18438005,0.19492829,0.20550728,0.21501291,0.22028697,0.22240281,0.22767699,0.23506689,0.24457264,0.25199318,0.25830984,0.26888883,0.2815528,0.29636335,0.31114316,0.32383788,0.33861768,0.35447085,0.36925054,0.38087213,0.39145112,0.4062308,0.42419982,0.44428444,0.46222246,0.47703302,0.49181283,0.5087085,0.52667725,0.54464626,0.56365764,0.58374226,0.60591197,0.62811244,0.64923954,0.66825104,0.68833566,0.70734704,0.7253159,0.73905313,0.7506747,0.76018035,0.76861286,0.7749603,0.7781185,0.77600276,0.7718018,0.7633388,0.7496015,0.7305901,0.7041887,0.67564094,0.63866067,0.5932479,0.53725636,0.4749173,0.41362083,0.352355,0.2942475,0.23506689,0.17695951,0.12415671,0.07659757,0.034343123,-0.0037102103,-0.037501514,-0.061817706,-0.0797559,-0.09137744,-0.10088307,-0.10934627,-0.11357784,-0.11462033,-0.11357784,-0.1125046,-0.111462,-0.108303666,-0.1051147,-0.10299885,-0.10195631,-0.097724736,-0.08926159,-0.07659757,-0.06709188,-0.06497604,-0.06813437,-0.07025015,-0.07025015,-0.06601864,-0.060744464,-0.056512892,-0.05228138,-0.048080444,-0.043848872,-0.040659785,-0.038574755,-0.03538567,-0.032227337,-0.03011161,-0.027995765,-0.027995765,-0.024837434,-0.021648407,-0.01953268,-0.020605922,-0.022721648,-0.024837434,-0.027995765,-0.02695328,-0.025880039,-0.020605922,-0.012142777,-0.0068686604,-0.004752815,-0.007911146,-0.014258504,-0.017416835,-0.01637435,-0.013216019,-0.013216019,-0.01637435,-0.020605922,-0.024837434,-0.02695328,-0.03011161,-0.03326994,-0.03326994,-0.031154096,-0.02695328,-0.024837434,-0.024837434,-0.023764253,-0.024837434,-0.023764253,-0.024837434,-0.023764253,-0.01953268,-0.01637435,-0.012142777,-0.012142777,-0.011100173,-0.0037102103,0.011100292,0.035385728,0.05970204,0.08187175,0.10195637,0.11673629,0.12943089,0.14528406,0.16429543,0.18646514,0.20866561,0.22875023,0.24353004,0.25726736,0.27204716,0.2805102,0.27523613,0.25091994,0.21182394,0.16006374,0.09984052,0.04069054,-0.007911146,-0.03538567,-0.03645891,-0.022721648,-0.008984387,-0.004752815,-0.014258504,-0.027995765,-0.040659785,-0.048080444,-0.05228138,-0.055470347,-0.057586133,-0.05970198,-0.061817706,-0.06497604,-0.06813437,-0.071323395,-0.07343924,-0.072366,-0.072366,-0.058628738,-0.0037102103,0.111462116,0.26888883,0.43370533,0.5182142,0.47807562,0.34389186,0.10091376,-0.24457252,-0.6027536,-0.8615847,-0.9228812,-0.7453698,-0.4136207,-0.097724736,0.09245062,0.15690541,0.14632654,0.117809534,0.09879804,0.09879804,0.11462045,0.1368208,0.15583217,0.168527,0.17591691,0.18226421,0.18965411,0.19704401,0.20654976,0.21712863,0.22767699,0.23825598,0.2477616,0.25830984,0.26993144,0.28262603,0.2931744,0.2984792,0.30268013,0.3090273,0.31749058,0.33015466,0.34389186,0.35658658,0.3734821,0.39037788,0.40938926,0.42735815,0.4421686,0.457991,0.4759599,0.497087,0.51928747,0.53934145,0.5604992,0.5795107,0.5995647,0.6186067,0.63866067,0.660861,0.68303084,0.7041887,0.72212696,0.73586416,0.74748576,0.7569914,0.7643813,0.7675704,0.7675704,0.7696861,0.7749603,0.7802342,0.7802342,0.7718018,0.75383294,0.72847426,0.6978414,0.6587453,0.6154177,0.5678892,0.5150559,0.45694852,0.3924936,0.32488048,0.2604257,0.19915986,0.14105237,0.08929241,0.04277575,0.0058261156,-0.02695328,-0.054397106,-0.08082914,-0.10088307,-0.111462,-0.11569357,-0.117809355,-0.120967686,-0.12624186,-0.13047343,-0.12943083,-0.12412614,-0.120967686,-0.116736114,-0.11041939,-0.1051147,-0.097724736,-0.09349316,-0.09033483,-0.0871765,-0.08082914,-0.074481726,-0.06920761,-0.06601864,-0.060744464,-0.055470347,-0.047007203,-0.040659785,-0.037501514,-0.03326994,-0.03011161,-0.02903837,-0.032227337,-0.03538567,-0.034343183,-0.02903837,-0.021648407,-0.020605922,-0.022721648,-0.024837434,-0.025880039,-0.024837434,-0.025880039,-0.02903837,-0.03011161,-0.02695328,-0.022721648,-0.022721648,-0.02695328,-0.032227337,-0.03326994,-0.02903837,-0.024837434,-0.022721648,-0.022721648,-0.027995765,-0.03538567,-0.04277563,-0.048080444,-0.047007203,-0.04277563,-0.038574755,-0.037501514,-0.03645891,-0.03326994,-0.02903837,-0.024837434,-0.023764253,-0.024837434,-0.027995765,-0.03011161,-0.02903837,-0.02903837,-0.027995765,-0.024837434,-0.021648407,-0.017416835,-0.014258504,-0.013216019,-0.011100173,-0.008984387,-0.0037102103,-0.0005212426,0.0005213022,0.0015944242,0.0047528744,0.018490195,0.0396173,0.06604934,0.09349322,0.11462045,0.12835765,0.13366246,0.14421082,0.16110635,0.18330681,0.20443404,0.22240281,0.23506689,0.25091994,0.266773,0.27735186,0.27204716,0.24668837,0.20231819,0.14421082,0.08294499,0.029069066,-0.010026932,-0.024837434,-0.024837434,-0.018490076,-0.017416835,-0.022721648,-0.027995765,-0.032227337,-0.037501514,-0.0459646,-0.05335462,-0.05970198,-0.05970198,-0.054397106,-0.05335462,-0.05335462,-0.055470347,-0.056512892,-0.056512892,-0.056512892,-0.051238775,-0.024837434,0.031154156,0.13577831,0.26888883,0.3988409,0.45271683,0.3998835,0.25091994,-0.008984387,-0.35447073,-0.680915,-0.87955356,-0.87320614,-0.6534711,-0.32488042,-0.04277563,0.11462045,0.16533792,0.16006374,0.14421082,0.1368208,0.14105237,0.15267384,0.16429543,0.17695951,0.19069672,0.20339143,0.21501291,0.22132957,0.22344542,0.22767699,0.23402429,0.24457264,0.2561941,0.26888883,0.28262603,0.29636335,0.30798483,0.3196063,0.33015466,0.34284925,0.35551333,0.3671348,0.37664056,0.38826203,0.40411508,0.4252423,0.44744265,0.4643383,0.47703302,0.4896971,0.5013186,0.5150559,0.5298357,0.546762,0.5678892,0.59113216,0.6133019,0.6302283,0.64500797,0.66190374,0.6798724,0.69995713,0.7168528,0.7316326,0.74644303,0.7612231,0.77391756,0.7813077,0.78658164,0.7897401,0.79397154,0.7982031,0.7971606,0.7908133,0.7802342,0.766497,0.74855876,0.72212696,0.68833566,0.6481664,0.5995647,0.54568875,0.48653877,0.42419982,0.3639766,0.3069116,0.25303566,0.2012757,0.15267384,0.10934627,0.071323514,0.037501574,0.00371027,-0.024837434,-0.047007203,-0.05970198,-0.06497604,-0.06920761,-0.07343924,-0.074481726,-0.07343924,-0.07025015,-0.07025015,-0.07025015,-0.06813437,-0.063902795,-0.055470347,-0.04912305,-0.044891477,-0.038574755,-0.03326994,-0.02695328,-0.024837434,-0.024837434,-0.02695328,-0.02695328,-0.025880039,-0.024837434,-0.024837434,-0.025880039,-0.024837434,-0.022721648,-0.021648407,-0.021648407,-0.021648407,-0.023764253,-0.027995765,-0.032227337,-0.03326994,-0.02903837,-0.020605922,-0.015331745,-0.014258504,-0.01637435,-0.017416835,-0.017416835,-0.017416835,-0.021648407,-0.02695328,-0.02903837,-0.027995765,-0.025880039,-0.027995765,-0.034343183,-0.038574755,-0.038574755,-0.034343183,-0.031154096,-0.03011161,-0.031154096,-0.03326994,-0.034343183,-0.03645891,-0.037501514,-0.03645891,-0.032227337,-0.024837434,-0.020605922,-0.017416835,-0.015331745,-0.01637435,-0.018490076,-0.022721648,-0.025880039,-0.022721648,-0.01637435,-0.0068686604,-0.0026370883,0.0005213022,0.0026370287,0.0047528744,0.006868601,0.0058261156,0.0026370287,0.0015944242,0.0026370287,0.0047528744,0.0047528744,0.0026370287,0.0005213022,-0.0015944839,-0.0026370883,-0.005795419,-0.007911146,-0.007911146,-0.0026370883,0.013216019,0.038574815,0.071323514,0.10195637,0.12204099,0.13258922,0.13258922,0.14316821,0.1632222,0.18753827,0.21182394,0.22663438,0.23614013,0.24457264,0.2561941,0.26361465,0.25830984,0.24353004,0.2160554,0.17591691,0.12308347,0.06286025,0.006868601,-0.03326994,-0.04912305,-0.04912305,-0.048080444,-0.05019617,-0.054397106,-0.060744464,-0.063902795,-0.07025015,-0.07659757,-0.08082914,-0.08294487,-0.08294487,-0.085060716,-0.08926159,-0.09033483,-0.08926159,-0.08610326,-0.08610326,-0.08926159,-0.074481726,-0.01637435,0.09668219,0.24668837,0.3988409,0.46645403,0.41573656,0.2815528,0.052312136,-0.26042557,-0.5763216,-0.7971299,-0.84045744,-0.67140937,-0.36501896,-0.07025015,0.10618794,0.16533792,0.15371644,0.120967746,0.09984052,0.094566345,0.1051147,0.11885202,0.13470507,0.15160072,0.16745377,0.18119109,0.18858087,0.19281244,0.19704401,0.20231819,0.21289718,0.22132957,0.23086596,0.24248755,0.2541089,0.266773,0.27839446,0.2868576,0.29636335,0.3069116,0.3196063,0.32911205,0.33650196,0.34812343,0.36186075,0.37875628,0.39460945,0.40938926,0.42312658,0.43793702,0.45483267,0.47068572,0.48546553,0.5034344,0.5235189,0.54464626,0.56365764,0.582669,0.60275364,0.62492335,0.6481664,0.6661352,0.6798724,0.6925672,0.7041887,0.71473694,0.72212696,0.7232002,0.7242427,0.7263584,0.72847426,0.7263584,0.72108436,0.71050537,0.6978414,0.6809151,0.65767205,0.6270392,0.5890163,0.54568875,0.497087,0.44428444,0.38826203,0.33438623,0.2805102,0.22767699,0.17380106,0.12204099,0.07767081,0.04069054,0.010027051,-0.01637435,-0.0396173,-0.056512892,-0.06709188,-0.07343924,-0.0787133,-0.08294487,-0.083987474,-0.083987474,-0.08187163,-0.08294487,-0.08294487,-0.0797559,-0.072366,-0.06286031,-0.058628738,-0.057586133,-0.057586133,-0.05335462,-0.0459646,-0.0396173,-0.03538567,-0.031154096,-0.02695328,-0.022721648,-0.01953268,-0.01637435,-0.012142777,-0.0068686604,-0.0026370883,-0.0015944839,-0.0026370883,-0.0037102103,-0.005795419,-0.005795419,-0.010026932,-0.015331745,-0.01637435,-0.015331745,-0.011100173,-0.007911146,-0.005795419,-0.004752815,-0.0037102103,-0.0026370883,-0.004752815,-0.0068686604,-0.008984387,-0.008984387,-0.0068686604,-0.005795419,-0.005795419,-0.004752815,-0.0037102103,-0.0005212426,0.0005213022,0.0005213022,-0.0005212426,-0.0015944839,-0.0026370883,-0.007911146,-0.015331745,-0.018490076,-0.01637435,-0.008984387,-0.0026370883,-0.0015944839,-0.0026370883,-0.004752815,-0.005795419,-0.0068686604,-0.007911146,-0.008984387,-0.010026932,-0.007911146,-0.007911146,-0.007911146,-0.008984387,-0.011100173,-0.011100173,-0.012142777,-0.011100173,-0.007911146,-0.004752815,-0.0015944839,-0.0015944839,-0.004752815,-0.0068686604,-0.008984387,-0.008984387,-0.011100173,-0.011100173,-0.007911146,-0.005795419,-0.0005212426,0.0026370287,0.011100292,0.03011167,0.05970204,0.08929241,0.111462116,0.12415671,0.13258922,0.15055811,0.17484367,0.19492829,0.21182394,0.22663438,0.24353004,0.2625414,0.27943707,0.28474188,0.27523613,0.2551515,0.22663438,0.18646514,0.13258922,0.07343924,0.01744759,-0.023764253,-0.047007203,-0.051238775,-0.044891477,-0.038574755,-0.03645891,-0.041733027,-0.051238775,-0.05970198,-0.063902795,-0.063902795,-0.063902795,-0.063902795,-0.061817706,-0.05970198,-0.057586133,-0.060744464,-0.063902795,-0.07025015,-0.072366,-0.04912305,0.01637435,0.13577831,0.29213178,0.44005275,0.49285543,0.42843127,0.27627873,0.021648526,-0.31537473,-0.6397339,-0.85207903,-0.8615847,-0.6428922,-0.3037532,-0.007911146,0.14844239,0.18542254,0.1632222,0.13366246,0.120967746,0.12204099,0.13154674,0.14421082,0.15690541,0.16641116,0.17064273,0.17272794,0.17907524,0.18965411,0.20550728,0.21817124,0.22875023,0.23614013,0.24248755,0.25091994,0.25830984,0.266773,0.27735186,0.29001594,0.3058691,0.31749058,0.3280388,0.33861768,0.352355,0.36925054,0.3861463,0.40307248,0.41892564,0.43686378,0.45483267,0.46961248,0.48123395,0.4960444,0.51294005,0.5319514,0.54887784,0.56365764,0.5805533,0.5995647,0.621765,0.64184976,0.65662956,0.6724826,0.68833566,0.7062738,0.72212696,0.73482156,0.7453698,0.75487566,0.7612231,0.7622961,0.76018035,0.7569914,0.7527597,0.7453698,0.72951686,0.7041887,0.6735252,0.63654494,0.59536374,0.5478046,0.49285543,0.43582118,0.37982953,0.32488048,0.26993144,0.2160554,0.16217959,0.11357784,0.07025027,0.03011167,-0.0037102103,-0.031154096,-0.05228138,-0.06601864,-0.077640176,-0.0871765,-0.094566405,-0.097724736,-0.097724736,-0.09984058,-0.10088307,-0.10088307,-0.09879798,-0.09137744,-0.085060716,-0.0787133,-0.07025015,-0.06286031,-0.057586133,-0.058628738,-0.060744464,-0.061817706,-0.05970198,-0.05335462,-0.051238775,-0.05019617,-0.048080444,-0.04277563,-0.03538567,-0.03011161,-0.024837434,-0.022721648,-0.020605922,-0.020605922,-0.024837434,-0.03011161,-0.034343183,-0.03645891,-0.038574755,-0.0396173,-0.041733027,-0.040659785,-0.037501514,-0.034343183,-0.034343183,-0.03645891,-0.037501514,-0.03645891,-0.034343183,-0.034343183,-0.03538567,-0.03538567,-0.03538567,-0.03538567,-0.03645891,-0.037501514,-0.037501514,-0.037501514,-0.038574755,-0.04277563,-0.047007203,-0.0459646,-0.041733027,-0.03538567,-0.032227337,-0.031154096,-0.032227337,-0.032227337,-0.03011161,-0.03011161,-0.032227337,-0.03538567,-0.0396173,-0.041733027,-0.044891477,-0.048080444,-0.04912305,-0.04912305,-0.04912305,-0.05019617,-0.05019617,-0.047007203,-0.041733027,-0.037501514,-0.03538567,-0.03645891,-0.037501514,-0.038574755,-0.038574755,-0.040659785,-0.0396173,-0.037501514,-0.032227337,-0.025880039,-0.021648407,-0.017416835,-0.014258504,-0.012142777,-0.011100173,-0.011100173,-0.008984387,-0.005795419,-0.0015944839,0.00371027,0.012142777,0.032227397,0.060744524,0.09033489,0.11569369,0.13154674,0.14209497,0.16217959,0.18542254,0.20654976,0.22132957,0.22979271,0.24141431,0.2604257,0.2805102,0.2879002,0.27735186,0.25199318,0.2160554,0.17064273,0.11569369,0.058628798,0.010027051,-0.020605922,-0.031154096,-0.03011161,-0.02903837,-0.03011161,-0.03326994,-0.037501514,-0.044891477,-0.054397106,-0.063902795,-0.06920761,-0.07025015,-0.06920761,-0.06920761,-0.06920761,-0.071323395,-0.07343924,-0.077640176,-0.08187163,-0.071323395,-0.023764253,0.07767081,0.22132957,0.3861463,0.49816024,0.49077034,0.38298798,0.16956949,-0.15371639,-0.5182141,-0.8034772,-0.91441804,-0.78762424,-0.4728014,-0.13154668,0.10195637,0.19704401,0.20020247,0.16956949,0.14421082,0.1378634,0.14632654,0.16006374,0.17380106,0.18646514,0.19915986,0.21289718,0.22344542,0.23295116,0.2403717,0.24668837,0.2551515,0.26149893,0.26888883,0.27627873,0.2868576,0.2984792,0.3090273,0.32172215,0.33545947,0.35023928,0.36290336,0.36925054,0.37559795,0.38298798,0.39145112,0.40411508,0.41469407,0.42631555,0.44109535,0.457991,0.4759599,0.4896971,0.5023918,0.51717174,0.5351405,0.5562676,0.57739496,0.6016805,0.6270392,0.6534711,0.67775667,0.69676816,0.71050537,0.7242427,0.73905313,0.75487566,0.766497,0.7749603,0.7802342,0.7813077,0.7781185,0.7696861,0.7569914,0.7443273,0.7316326,0.7168528,0.69572556,0.6661352,0.632344,0.59113216,0.5425304,0.48653877,0.42631555,0.3671348,0.3122164,0.2604257,0.20550728,0.15371644,0.1051147,0.061817765,0.02695334,-0.0068686604,-0.037501514,-0.061817706,-0.08082914,-0.09137744,-0.09879798,-0.09879798,-0.09245068,-0.083987474,-0.0787133,-0.08294487,-0.09033483,-0.097724736,-0.09879798,-0.09033483,-0.0797559,-0.07025015,-0.06286031,-0.05970198,-0.05970198,-0.06286031,-0.06286031,-0.058628738,-0.051238775,-0.047007203,-0.05019617,-0.056512892,-0.060744464,-0.058628738,-0.04912305,-0.041733027,-0.03645891,-0.03326994,-0.03011161,-0.02695328,-0.024837434,-0.025880039,-0.02695328,-0.02695328,-0.02695328,-0.02695328,-0.025880039,-0.020605922,-0.015331745,-0.011100173,-0.012142777,-0.017416835,-0.022721648,-0.025880039,-0.025880039,-0.025880039,-0.02695328,-0.02903837,-0.031154096,-0.03011161,-0.031154096,-0.03011161,-0.027995765,-0.023764253,-0.021648407,-0.023764253,-0.03011161,-0.037501514,-0.041733027,-0.040659785,-0.03645891,-0.034343183,-0.03011161,-0.025880039,-0.021648407,-0.017416835,-0.014258504,-0.013216019,-0.012142777,-0.011100173,-0.014258504,-0.01637435,-0.015331745,-0.011100173,-0.0026370883,0.00371027,0.006868601,0.0058261156,0.0005213022,-0.0068686604,-0.01637435,-0.020605922,-0.021648407,-0.017416835,-0.010026932,-0.007911146,-0.007911146,-0.005795419,-0.0026370883,0.00371027,0.006868601,0.0089844465,0.0089844465,0.013216019,0.018490195,0.018490195,0.01637435,0.011100292,0.007911205,0.012142777,0.029069066,0.057586193,0.09033489,0.11992526,0.14105237,0.14844239,0.15478969,0.16745377,0.18753827,0.207623,0.22344542,0.23718274,0.25199318,0.26993144,0.2868576,0.2879002,0.27204716,0.23825598,0.18753827,0.12835765,0.06604934,0.013216019,-0.015331745,-0.01953268,-0.011100173,-0.004752815,-0.010026932,-0.022721648,-0.03645891,-0.044891477,-0.051238775,-0.05335462,-0.055470347,-0.057586133,-0.057586133,-0.060744464,-0.063902795,-0.06601864,-0.06497604,-0.05970198,-0.055470347,-0.044891477,-0.015331745,0.052312136,0.17168534,0.31853306,0.4432112,0.46856987,0.38721943,0.19388568,-0.11569357,-0.48653865,-0.7960873,-0.9418926,-0.8584264,-0.5763216,-0.24037164,0.0089844465,0.1304735,0.16110635,0.15267384,0.14105237,0.13893664,0.14421082,0.15371644,0.1632222,0.17272794,0.18330681,0.19281244,0.2012757,0.20654976,0.21393967,0.22451866,0.23825598,0.24987733,0.2551515,0.2551515,0.25938308,0.26888883,0.28262603,0.29740596,0.30798483,0.31537473,0.32488048,0.33650196,0.35023928,0.36501908,0.37875628,0.39672518,0.41573656,0.43370533,0.4495585,0.46117997,0.4759599,0.49285543,0.51294005,0.5351405,0.5573102,0.57843745,0.5974796,0.6122594,0.6228076,0.6344292,0.6523979,0.67564094,0.6978414,0.71789527,0.73270583,0.74221134,0.74748576,0.74855876,0.74855876,0.7506747,0.7559489,0.7622961,0.76018035,0.75383294,0.7443273,0.7305901,0.7158102,0.6936097,0.6661352,0.63127077,0.59113216,0.546762,0.49497116,0.43582118,0.37243962,0.30798483,0.2477616,0.19281244,0.14528406,0.10299897,0.06393349,0.02695334,-0.010026932,-0.0396173,-0.06286031,-0.077640176,-0.083987474,-0.08821899,-0.08821899,-0.085060716,-0.08082914,-0.0787133,-0.0787133,-0.0787133,-0.077640176,-0.071323395,-0.06286031,-0.057586133,-0.057586133,-0.058628738,-0.056512892,-0.05019617,-0.04277563,-0.034343183,-0.027995765,-0.023764253,-0.01953268,-0.015331745,-0.013216019,-0.011100173,-0.011100173,-0.011100173,-0.013216019,-0.013216019,-0.010026932,-0.004752815,0.0026370287,0.00371027,-0.0005212426,-0.005795419,-0.007911146,-0.008984387,-0.010026932,-0.011100173,-0.012142777,-0.011100173,-0.011100173,-0.015331745,-0.021648407,-0.027995765,-0.027995765,-0.024837434,-0.021648407,-0.01953268,-0.01637435,-0.013216019,-0.008984387,-0.008984387,-0.010026932,-0.013216019,-0.013216019,-0.012142777,-0.011100173,-0.010026932,-0.008984387,-0.005795419,-0.004752815,-0.008984387,-0.014258504,-0.018490076,-0.018490076,-0.015331745,-0.012142777,-0.0068686604,-0.0026370883,0.0005213022,0.0005213022,-0.004752815,-0.008984387,-0.010026932,-0.0026370883,0.006868601,0.012142777,0.012142777,0.007911205,0.006868601,0.007911205,0.0089844465,0.0089844465,0.0058261156,0.0005213022,-0.0026370883,-0.005795419,-0.0068686604,-0.004752815,-0.0005212426,0.0058261156,0.007911205,0.013216019,0.02695334,0.051238894,0.08082914,0.10618794,0.12415671,0.13258922,0.14421082,0.1632222,0.18119109,0.19808662,0.21078146,0.22240281,0.23614013,0.25303566,0.26888883,0.2731204,0.26361465,0.23825598,0.19600153,0.14209497,0.08717656,0.04069054,0.0089844465,-0.007911146,-0.011100173,-0.011100173,-0.011100173,-0.014258504,-0.024837434,-0.038574755,-0.051238775,-0.05970198,-0.063902795,-0.06709188,-0.06813437,-0.06709188,-0.06497604,-0.06286031,-0.06286031,-0.061817706,-0.058628738,-0.043848872,-0.0015944839,0.08082914,0.20339143,0.34389186,0.44848526,0.4506011,0.35551333,0.17168534,-0.107230425,-0.43793696,-0.71685266,-0.8531523,-0.7781185,-0.5150558,-0.19492817,0.047007322,0.15902126,0.18014848,0.1632222,0.14739978,0.14421082,0.15055811,0.16217959,0.17484367,0.18858087,0.19915986,0.20550728,0.20970821,0.21501291,0.22344542,0.23402429,0.24353004,0.25091994,0.25830984,0.266773,0.27627873,0.28474188,0.2952901,0.3058691,0.3196063,0.33545947,0.34919667,0.36290336,0.37559795,0.38826203,0.40411508,0.4168098,0.4315896,0.44636953,0.46222246,0.47914886,0.49392855,0.507666,0.5224458,0.53829885,0.5573102,0.5752791,0.59536374,0.61649096,0.6397339,0.660861,0.6788299,0.69572556,0.71050537,0.72743165,0.7443273,0.7580646,0.7675704,0.7749603,0.7802342,0.7834234,0.7834234,0.7813077,0.77919173,0.777076,0.77391756,0.7622961,0.74221134,0.7126211,0.67459834,0.6302283,0.57843745,0.5245615,0.46856987,0.41469407,0.36290336,0.31010056,0.25938308,0.21182394,0.16641116,0.12415671,0.08294499,0.045964718,0.01637435,-0.005795419,-0.01953268,-0.032227337,-0.043848872,-0.05019617,-0.05335462,-0.051238775,-0.051238775,-0.051238775,-0.05335462,-0.05335462,-0.051238775,-0.047007203,-0.041733027,-0.034343183,-0.023764253,-0.015331745,-0.010026932,-0.0068686604,-0.004752815,0.0015944242,0.0089844465,0.015331864,0.01953268,0.023764372,0.029069066,0.034343123,0.035385728,0.035385728,0.03645897,0.04069054,0.047007322,0.05019629,0.04912305,0.045964718,0.041733146,0.037501574,0.031154156,0.023764372,0.01953268,0.021648526,0.02695334,0.03011167,0.029069066,0.02695334,0.025880098,0.027995944,0.03011167,0.031154156,0.03011167,0.029069066,0.029069066,0.027995944,0.02695334,0.025880098,0.027995944,0.03011167,0.03011167,0.027995944,0.025880098,0.024837613,0.023764372,0.01953268,0.01637435,0.013216019,0.013216019,0.014258623,0.014258623,0.014258623,0.014258623,0.015331864,0.01744759,0.015331864,0.011100292,0.007911205,0.007911205,0.010027051,0.010027051,0.0089844465,0.006868601,0.007911205,0.012142777,0.01744759,0.022721767,0.02695334,0.031154156,0.032227397,0.029069066,0.025880098,0.021648526,0.020605922,0.020605922,0.018490195,0.01637435,0.015331864,0.018490195,0.029069066,0.045964718,0.071323514,0.097724795,0.12204099,0.14421082,0.15902126,0.17695951,0.20020247,0.22240281,0.2403717,0.2541089,0.2678156,0.28474188,0.3069116,0.32276464,0.3206489,0.30375338,0.274163,0.23718274,0.18965411,0.1304735,0.07025027,0.022721767,-0.0026370883,-0.005795419,-0.0015944839,0.00371027,0.00371027,-0.0005212426,-0.005795419,-0.012142777,-0.018490076,-0.021648407,-0.022721648,-0.022721648,-0.023764253,-0.023764253,-0.022721648,-0.01953268,-0.01637435,-0.01953268,-0.013216019,0.024837613,0.11673629,0.2551515,0.4178524,0.5319514,0.5298357,0.42947388,0.23718274,-0.05970198,-0.4072734,-0.69676805,-0.8330676,-0.7453698,-0.46222252,-0.12943083,0.108303785,0.21182394,0.22028697,0.18965411,0.16110635,0.15055811,0.15690541,0.17272794,0.18753827,0.19704401,0.20550728,0.2160554,0.22875023,0.2403717,0.24987733,0.2561941,0.2625414,0.26993144,0.27735186,0.28578436,0.2942475,0.30375338,0.3132589,0.3206489,0.32911205,0.3407334,0.35870242,0.3777138,0.3924936,0.40307248,0.41150498,0.42101073,0.43474793,0.44744265,0.46117997,0.4749173,0.49181283,0.5108243,0.5287931,0.5478046,0.56577337,0.585858,0.6080278,0.62811244,0.6471237,0.66401947,0.68198824,0.7031156,0.7232002,0.74113834,0.7580646,0.7749603,0.7886976,0.7971606,0.80031884,0.80031884,0.7982031,0.7950449,0.78762436,0.77919173,0.7675704,0.75383294,0.73586416,0.7094629,0.6735252,0.6302283,0.582669,0.53090894,0.4717282,0.41150498,0.35128176,0.29636335,0.24668837,0.19915986,0.15267384,0.108303785,0.06813443,0.034343123,0.0026370287,-0.024837434,-0.0459646,-0.060744464,-0.06920761,-0.074481726,-0.07555497,-0.07343924,-0.06709188,-0.05970198,-0.057586133,-0.056512892,-0.057586133,-0.055470347,-0.051238775,-0.04912305,-0.047007203,-0.044891477,-0.0396173,-0.03538567,-0.03645891,-0.037501514,-0.037501514,-0.032227337,-0.022721648,-0.013216019,-0.0068686604,-0.0037102103,-0.0015944839,0.0026370287,0.0047528744,0.006868601,0.007911205,0.0089844465,0.010027051,0.007911205,0.0047528744,-0.0005212426,-0.005795419,-0.010026932,-0.014258504,-0.015331745,-0.013216019,-0.008984387,-0.004752815,-0.004752815,-0.008984387,-0.013216019,-0.015331745,-0.015331745,-0.01637435,-0.018490076,-0.01953268,-0.018490076,-0.01637435,-0.015331745,-0.014258504,-0.014258504,-0.012142777,-0.008984387,-0.0068686604,-0.005795419,-0.008984387,-0.014258504,-0.01953268,-0.02695328,-0.03011161,-0.031154096,-0.02695328,-0.021648407,-0.018490076,-0.01637435,-0.015331745,-0.011100173,-0.005795419,-0.0037102103,-0.004752815,-0.0068686604,-0.007911146,-0.0068686604,-0.007911146,-0.008984387,-0.012142777,-0.012142777,-0.012142777,-0.014258504,-0.01637435,-0.015331745,-0.011100173,-0.004752815,-0.0026370883,-0.0037102103,-0.0068686604,-0.007911146,-0.005795419,-0.004752815,-0.0015944839,0.0047528744,0.018490195,0.041733146,0.07025027,0.09879804,0.12204099,0.13893664,0.15055811,0.16641116,0.19069672,0.21393967,0.23825598,0.25726736,0.26888883,0.2805102,0.2931744,0.30268013,0.30059493,0.28578436,0.2561941,0.21393967,0.16006374,0.10091376,0.045964718,0.0058261156,-0.013216019,-0.011100173,-0.004752815,-0.0037102103,-0.008984387,-0.017416835,-0.025880039,-0.03326994,-0.041733027,-0.048080444,-0.051238775,-0.048080444,-0.04277563,-0.041733027,-0.0459646,-0.05228138,-0.054397106,-0.056512892,-0.044891477,0.00371027,0.108303785,0.2604257,0.4326322,0.53934145,0.5214032,0.40411508,0.18753827,-0.13258922,-0.49285537,-0.77919173,-0.8922176,-0.76438123,-0.44744265,-0.1051147,0.12308347,0.21078146,0.21078146,0.18119109,0.15478969,0.14528406,0.14844239,0.16641116,0.18965411,0.207623,0.21924448,0.22344542,0.22344542,0.22663438,0.22767699,0.23295116,0.23825598,0.2477616,0.2604257,0.2731204,0.28474188,0.2952901,0.30479586,0.3132589,0.3196063,0.3269962,0.33650196,0.34919667,0.36501908,0.37982953,0.39356685,0.4062308,0.42208397,0.4389795,0.45271683,0.46752727,0.4823072,0.5013186,0.5214032,0.5404146,0.55838346,0.5752791,0.5942905,0.6154177,0.63654494,0.65558696,0.6767142,0.69676816,0.7189685,0.73586416,0.74855876,0.7580646,0.7675704,0.777076,0.7834234,0.78762436,0.7897401,0.7897401,0.78762436,0.7781185,0.7643813,0.7453698,0.7242427,0.69676816,0.660861,0.61649096,0.5647001,0.5150559,0.4632957,0.40938926,0.35658658,0.30268013,0.25091994,0.19915986,0.14632654,0.09668219,0.052312136,0.01637435,-0.012142777,-0.034343183,-0.05019617,-0.058628738,-0.061817706,-0.06286031,-0.06286031,-0.06601864,-0.06920761,-0.06709188,-0.063902795,-0.058628738,-0.055470347,-0.05335462,-0.051238775,-0.048080444,-0.044891477,-0.04277563,-0.041733027,-0.03538567,-0.024837434,-0.015331745,-0.005795419,0.0005213022,0.00371027,0.006868601,0.007911205,0.006868601,0.00371027,0.0015944242,0.0005213022,-0.0015944839,-0.0005212426,-0.0005212426,0.0026370287,0.0058261156,0.0089844465,0.0089844465,0.007911205,0.007911205,0.006868601,0.00371027,0.0005213022,-0.005795419,-0.012142777,-0.017416835,-0.021648407,-0.021648407,-0.021648407,-0.021648407,-0.021648407,-0.023764253,-0.025880039,-0.024837434,-0.020605922,-0.017416835,-0.018490076,-0.023764253,-0.032227337,-0.03538567,-0.03326994,-0.02903837,-0.022721648,-0.01637435,-0.008984387,-0.0015944839,0.00371027,0.0047528744,0.00371027,0.0026370287,-0.0015944839,-0.005795419,-0.0068686604,-0.0068686604,-0.0026370883,0.0047528744,0.0058261156,0.00371027,-0.0005212426,-0.0037102103,-0.0037102103,-0.004752815,-0.0026370883,-0.0005212426,0.0026370287,0.0047528744,0.00371027,0.0005213022,-0.0005212426,0.0005213022,0.0058261156,0.010027051,0.015331864,0.031154156,0.057586193,0.08929241,0.11462045,0.12835765,0.13258922,0.1378634,0.15583217,0.17803276,0.2012757,0.21712863,0.23295116,0.24457264,0.25830984,0.27100468,0.27204716,0.2625414,0.23825598,0.19808662,0.14316821,0.08294499,0.031154156,-0.0015944839,-0.013216019,-0.012142777,-0.011100173,-0.013216019,-0.01953268,-0.027995765,-0.03538567,-0.04277563,-0.044891477,-0.044891477,-0.0459646,-0.04912305,-0.05228138,-0.055470347,-0.057586133,-0.060744464,-0.05970198,-0.055470347,-0.040659785,-0.007911146,0.055470467,0.16217959,0.29636335,0.41573656,0.4421686,0.36081815,0.17803276,-0.108303666,-0.45694834,-0.7612229,-0.9270821,-0.8837851,-0.63442904,-0.29952168,-0.02903837,0.11569369,0.16110635,0.15690541,0.14739978,0.14739978,0.15160072,0.16110635,0.17168534,0.18542254,0.19808662,0.20550728,0.21078146,0.21393967,0.22132957,0.23295116,0.24457264,0.2561941,0.2657305,0.27523613,0.28262603,0.2879002,0.2931744,0.29952168,0.3090273,0.32276464,0.33545947,0.34919667,0.36501908,0.3851037,0.40411508,0.42101073,0.43370533,0.4432112,0.45694852,0.4759599,0.49392855,0.51294005,0.5287931,0.53934145,0.54887784,0.55838346,0.57000494,0.5890163,0.6143751,0.64184976,0.66401947,0.68303084,0.6978414,0.71473694,0.73270583,0.74644303,0.76018035,0.7675704,0.777076,0.78553915,0.78762436,0.78762436,0.77919173,0.76861286,0.7569914,0.74221134,0.7263584,0.70734704,0.68198824,0.64923954,0.60275364,0.5499203,0.49077034,0.430547,0.36820805,0.30479586,0.24353004,0.18753827,0.14105237,0.09879804,0.05970204,0.025880098,-0.0026370883,-0.023764253,-0.03645891,-0.04912305,-0.05970198,-0.06920761,-0.07343924,-0.07343924,-0.074481726,-0.07343924,-0.072366,-0.06709188,-0.05970198,-0.05335462,-0.05019617,-0.047007203,-0.04277563,-0.038574755,-0.032227337,-0.02903837,-0.02903837,-0.02695328,-0.024837434,-0.022721648,-0.01953268,-0.015331745,-0.007911146,-0.0005212426,0.00371027,0.006868601,0.007911205,0.012142777,0.01744759,0.01953268,0.01953268,0.015331864,0.013216019,0.010027051,0.0058261156,0.0015944242,-0.0037102103,-0.004752815,-0.0037102103,-0.0037102103,-0.0037102103,-0.0037102103,-0.0005212426,0.0015944242,0.0015944242,-0.0005212426,-0.004752815,-0.007911146,-0.0068686604,-0.0068686604,-0.005795419,-0.005795419,-0.0037102103,-0.0005212426,-0.0005212426,-0.0005212426,-0.0015944839,0.0015944242,0.006868601,0.011100292,0.012142777,0.0089844465,0.006868601,0.0058261156,0.0047528744,0.00371027,0.0015944242,0.0026370287,0.0058261156,0.007911205,0.011100292,0.012142777,0.014258623,0.01637435,0.01637435,0.014258623,0.012142777,0.012142777,0.018490195,0.032227397,0.054397225,0.075555086,0.09560895,0.11041951,0.117809534,0.13258922,0.15371644,0.18014848,0.20443404,0.22240281,0.23506689,0.24668837,0.26361465,0.27627873,0.27523613,0.25726736,0.22451866,0.18014848,0.12731504,0.07025027,0.020605922,-0.013216019,-0.025880039,-0.022721648,-0.01953268,-0.01953268,-0.024837434,-0.031154096,-0.038574755,-0.047007203,-0.056512892,-0.06497604,-0.06709188,-0.06497604,-0.061817706,-0.05970198,-0.061817706,-0.06497604,-0.06920761,-0.07025015,-0.05970198,-0.022721648,0.05970204,0.18014848,0.31749058,0.42631555,0.44109535,0.3639766,0.2012757,-0.06286031,-0.3935668,-0.6862198,-0.8415307,-0.7908132,-0.54568875,-0.22767687,0.018490195,0.14209497,0.16956949,0.15160072,0.12835765,0.11673629,0.120967746,0.13258922,0.14632654,0.15794802,0.16429543,0.17272794,0.18119109,0.18858087,0.19808662,0.207623,0.22132957,0.23402429,0.24353004,0.24880409,0.25199318,0.2625414,0.27523613,0.29001594,0.29952168,0.3069116,0.31433213,0.32383788,0.33545947,0.34812343,0.36081815,0.37875628,0.3956827,0.4104625,0.4252423,0.4389795,0.4559059,0.4759599,0.4960444,0.51189756,0.52667725,0.54464626,0.56577337,0.585858,0.60591197,0.6270392,0.65028214,0.67459834,0.69572556,0.71050537,0.7200111,0.7316326,0.74325407,0.75383294,0.7612231,0.7633388,0.76018035,0.7559489,0.74644303,0.7369374,0.7242427,0.70838964,0.6862198,0.65767205,0.6207224,0.57739496,0.5319514,0.4823072,0.42843127,0.36925054,0.3069116,0.24668837,0.19281244,0.14739978,0.108303785,0.071323514,0.0396173,0.0089844465,-0.020605922,-0.04277563,-0.060744464,-0.071323395,-0.077640176,-0.085060716,-0.09033483,-0.09245068,-0.09033483,-0.085060716,-0.0787133,-0.07343924,-0.072366,-0.06920761,-0.063902795,-0.060744464,-0.056512892,-0.05228138,-0.0459646,-0.040659785,-0.037501514,-0.03326994,-0.027995765,-0.01953268,-0.008984387,-0.0005212426,0.0015944242,-0.0005212426,-0.0026370883,-0.0037102103,-0.005795419,-0.004752815,-0.0026370883,0.00371027,0.0089844465,0.007911205,0.00371027,-0.0026370883,-0.0068686604,-0.0068686604,-0.0068686604,-0.008984387,-0.0068686604,-0.0005212426,0.00371027,0.0058261156,0.00371027,-0.0026370883,-0.007911146,-0.011100173,-0.013216019,-0.014258504,-0.014258504,-0.010026932,-0.0068686604,-0.007911146,-0.007911146,-0.011100173,-0.010026932,-0.007911146,-0.0068686604,-0.0037102103,-0.0037102103,-0.0015944839,0.0005213022,-0.0037102103,-0.005795419,-0.0068686604,-0.0068686604,-0.004752815,-0.005795419,-0.007911146,-0.010026932,-0.005795419,0.0005213022,0.0058261156,0.0058261156,0.0026370287,0.0005213022,-0.0005212426,-0.0005212426,-0.0015944839,-0.0015944839,0.00371027,0.0089844465,0.015331864,0.021648526,0.02695334,0.041733146,0.06813443,0.09668219,0.12204099,0.13997924,0.14948499,0.1632222,0.18438005,0.20866561,0.23190856,0.24987733,0.26361465,0.274163,0.2868576,0.29952168,0.30268013,0.29213178,0.2625414,0.21924448,0.16217959,0.09984052,0.043848872,-0.0005212426,-0.024837434,-0.031154096,-0.025880039,-0.021648407,-0.023764253,-0.02903837,-0.037501514,-0.043848872,-0.04912305,-0.054397106,-0.05970198,-0.063902795,-0.063902795,-0.05970198,-0.058628738,-0.057586133,-0.057586133,-0.055470347,-0.05335462,-0.034343183,0.022721767,0.1304735,0.27839446,0.430547,0.49920273,0.44848526,0.31114316,0.074481845,-0.25199312,-0.5837422,-0.8172145,-0.86370045,-0.67987245,-0.35447073,-0.051238775,0.12731504,0.18119109,0.16745377,0.1378634,0.11885202,0.117809534,0.12731504,0.14421082,0.1632222,0.17591691,0.18646514,0.19492829,0.20339143,0.21182394,0.21817124,0.22663438,0.23506689,0.24564576,0.2561941,0.26361465,0.26888883,0.2731204,0.28366864,0.29636335,0.31010056,0.32383788,0.33438623,0.34708083,0.36081815,0.37243962,0.38721943,0.40095663,0.41573656,0.4315896,0.4421686,0.45271683,0.4643383,0.4833498,0.5044769,0.52667725,0.5478046,0.5678892,0.5879432,0.6069852,0.62388086,0.6407765,0.65662956,0.6767142,0.6988839,0.72108436,0.7400956,0.75383294,0.7633388,0.7707286,0.7728443,0.77391756,0.7718018,0.76861286,0.7612231,0.74748576,0.72847426,0.7062738,0.68198824,0.6534711,0.6154177,0.5689318,0.5150559,0.46010673,0.40518832,0.35023928,0.29636335,0.24353004,0.19388568,0.14844239,0.104072094,0.06286025,0.02695334,-0.0015944839,-0.023764253,-0.040659785,-0.05228138,-0.060744464,-0.06286031,-0.06497604,-0.06813437,-0.071323395,-0.074481726,-0.07343924,-0.071323395,-0.071323395,-0.071323395,-0.072366,-0.06920761,-0.06709188,-0.06601864,-0.06813437,-0.07025015,-0.06813437,-0.063902795,-0.057586133,-0.05019617,-0.04277563,-0.032227337,-0.023764253,-0.017416835,-0.015331745,-0.015331745,-0.013216019,-0.010026932,-0.008984387,-0.007911146,-0.0068686604,-0.0026370883,0.0015944242,0.0026370287,0.0005213022,-0.0026370883,-0.0037102103,-0.0015944839,-0.0005212426,0.0015944242,0.0015944242,0.0026370287,0.0047528744,0.0058261156,0.0058261156,0.0058261156,0.011100292,0.01637435,0.018490195,0.01637435,0.011100292,0.006868601,0.00371027,0.0005213022,-0.004752815,-0.010026932,-0.010026932,-0.007911146,-0.0068686604,-0.0068686604,-0.007911146,-0.008984387,-0.008984387,-0.008984387,-0.0068686604,-0.004752815,0.0005213022,0.0058261156,0.007911205,0.010027051,0.010027051,0.013216019,0.01744759,0.020605922,0.021648526,0.020605922,0.01744759,0.015331864,0.013216019,0.012142777,0.013216019,0.01744759,0.021648526,0.023764372,0.022721767,0.020605922,0.018490195,0.01744759,0.01953268,0.029069066,0.05019629,0.08187175,0.11357784,0.1378634,0.15371644,0.16429543,0.18646514,0.21501291,0.2403717,0.25830984,0.26888883,0.27839446,0.29105854,0.30375338,0.3069116,0.2952901,0.274163,0.2403717,0.19600153,0.13893664,0.07767081,0.023764372,-0.013216019,-0.031154096,-0.034343183,-0.032227337,-0.027995765,-0.027995765,-0.034343183,-0.044891477,-0.055470347,-0.061817706,-0.06286031,-0.06286031,-0.06286031,-0.06497604,-0.063902795,-0.063902795,-0.06601864,-0.06813437,-0.07343924,-0.061817706,-0.017416835,0.07975602,0.22240281,0.3861463,0.5044769,0.5044769,0.3998835,0.19808662,-0.111462,-0.47172815,-0.77180177,-0.9154606,-0.828836,-0.5414571,-0.19808656,0.04912305,0.15690541,0.16533792,0.13577831,0.11253536,0.108303785,0.117809534,0.13366246,0.14739978,0.16217959,0.17484367,0.18646514,0.19808662,0.20866561,0.22132957,0.23402429,0.24353004,0.25303566,0.2604257,0.26993144,0.27943707,0.28578436,0.29213178,0.30059493,0.31641734,0.33334363,0.34919667,0.36290336,0.37559795,0.39037788,0.4062308,0.41996813,0.430547,0.43793702,0.4495585,0.4632957,0.47703302,0.49181283,0.50555015,0.5235189,0.543573,0.5647001,0.585858,0.6080278,0.632344,0.65662956,0.67775667,0.6936097,0.7062738,0.7189685,0.73270583,0.7443273,0.75383294,0.76018035,0.76545453,0.76861286,0.7696861,0.766497,0.7612231,0.75383294,0.7443273,0.72743165,0.7041887,0.6735252,0.6397339,0.5995647,0.5541519,0.5013186,0.4432112,0.3861463,0.33015466,0.27627873,0.22556114,0.17695951,0.13258922,0.09349322,0.057586193,0.025880098,-0.0015944839,-0.022721648,-0.038574755,-0.051238775,-0.05970198,-0.06497604,-0.06497604,-0.063902795,-0.063902795,-0.063902795,-0.063902795,-0.05970198,-0.055470347,-0.05335462,-0.051238775,-0.05019617,-0.043848872,-0.03538567,-0.027995765,-0.023764253,-0.021648407,-0.018490076,-0.014258504,-0.012142777,-0.012142777,-0.01637435,-0.01637435,-0.014258504,-0.011100173,-0.005795419,-0.0015944839,0.00371027,0.0089844465,0.011100292,0.011100292,0.007911205,0.007911205,0.0089844465,0.010027051,0.0089844465,0.0047528744,0.0026370287,0.0015944242,0.0005213022,0.0005213022,0.0005213022,0.0026370287,0.0058261156,0.006868601,0.0058261156,0.00371027,0.00371027,0.0026370287,0.0005213022,-0.0037102103,-0.008984387,-0.010026932,-0.008984387,-0.008984387,-0.007911146,-0.008984387,-0.0068686604,-0.0015944839,0.0026370287,0.006868601,0.010027051,0.011100292,0.012142777,0.012142777,0.012142777,0.013216019,0.018490195,0.023764372,0.025880098,0.025880098,0.023764372,0.023764372,0.025880098,0.03011167,0.035385728,0.038574815,0.04277575,0.047007322,0.048080444,0.047007322,0.045964718,0.045964718,0.045964718,0.045964718,0.045964718,0.041733146,0.0396173,0.037501574,0.035385728,0.033269882,0.032227397,0.033269882,0.04069054,0.057586193,0.08398759,0.111462116,0.1368208,0.15690541,0.168527,0.18330681,0.20443404,0.23190856,0.25726736,0.2805102,0.30163753,0.31537473,0.33015466,0.3375752,0.33015466,0.31010056,0.2805102,0.24141431,0.19069672,0.1304735,0.07343924,0.02695334,0.0047528744,0.0015944242,0.00371027,0.0026370287,-0.0026370883,-0.010026932,-0.021648407,-0.03326994,-0.044891477,-0.05228138,-0.05335462,-0.051238775,-0.051238775,-0.05335462,-0.054397106,-0.05019617,-0.04277563,-0.040659785,-0.032227337,-0.0037102103,0.07767081,0.21289718,0.38194537,0.51717174,0.53829885,0.45167434,0.26361465,-0.04277563,-0.41785234,-0.7443272,-0.9154606,-0.84784746,-0.5625843,-0.20866549,0.055470467,0.18226421,0.20443404,0.18330681,0.15583217,0.13997924,0.14105237,0.15055811,0.16533792,0.18014848,0.18965411,0.19704401,0.20550728,0.21078146,0.21501291,0.22028697,0.22767699,0.23614013,0.24564576,0.2551515,0.26465726,0.27839446,0.2931744,0.3069116,0.32172215,0.33650196,0.35447085,0.37243962,0.3851037,0.3924936,0.39672518,0.40938926,0.42735815,0.44636953,0.4643383,0.47703302,0.49077034,0.50555015,0.52032995,0.53934145,0.55942595,0.58374226,0.61118615,0.63654494,0.65662956,0.6735252,0.691494,0.70838964,0.7242427,0.73905313,0.7517172,0.766497,0.77919173,0.78553915,0.7886976,0.7897401,0.79292905,0.7971606,0.7971606,0.7897401,0.77600276,0.7591071,0.7379799,0.7115786,0.6788299,0.6407765,0.5974796,0.546762,0.48546553,0.42101073,0.35551333,0.29740596,0.24564576,0.19915986,0.15267384,0.107230544,0.06920767,0.037501574,0.012142777,-0.004752815,-0.018490076,-0.027995765,-0.03538567,-0.041733027,-0.048080444,-0.05019617,-0.0459646,-0.0396173,-0.03538567,-0.031154096,-0.02695328,-0.022721648,-0.01637435,-0.013216019,-0.013216019,-0.017416835,-0.018490076,-0.017416835,-0.014258504,-0.010026932,-0.010026932,-0.007911146,-0.007911146,-0.0068686604,-0.0037102103,0.0015944242,0.012142777,0.021648526,0.027995944,0.032227397,0.032227397,0.033269882,0.035385728,0.037501574,0.0396173,0.0396173,0.041733146,0.04069054,0.04069054,0.041733146,0.04277575,0.044891477,0.044891477,0.038574815,0.031154156,0.022721767,0.01953268,0.023764372,0.03011167,0.034343123,0.03645897,0.038574815,0.037501574,0.03645897,0.033269882,0.02695334,0.023764372,0.020605922,0.018490195,0.018490195,0.018490195,0.021648526,0.021648526,0.020605922,0.01953268,0.01637435,0.018490195,0.021648526,0.021648526,0.020605922,0.018490195,0.020605922,0.022721767,0.024837613,0.02695334,0.02695334,0.029069066,0.03011167,0.029069066,0.029069066,0.027995944,0.031154156,0.035385728,0.0396173,0.043848872,0.043848872,0.043848872,0.04069054,0.03645897,0.037501574,0.043848872,0.064976096,0.09349322,0.12415671,0.14739978,0.1632222,0.17168534,0.18226421,0.19915986,0.21712863,0.23402429,0.24987733,0.2657305,0.2805102,0.2984792,0.31010056,0.30798483,0.29105854,0.25830984,0.21289718,0.15794802,0.10618794,0.061817765,0.031154156,0.018490195,0.01744759,0.021648526,0.023764372,0.01953268,0.012142777,0.0015944242,-0.005795419,-0.011100173,-0.015331745,-0.017416835,-0.018490076,-0.014258504,-0.010026932,-0.007911146,-0.007911146,-0.007911146,-0.0037102103,0.013216019,0.051238894,0.12731504,0.24248755,0.37559795,0.46645403,0.45379007,0.3460076,0.1378634,-0.16217953,-0.4992028,-0.76226544,-0.8658163,-0.75383294,-0.46541154,-0.14632648,0.075555086,0.17484367,0.19281244,0.18542254,0.17803276,0.17484367,0.17695951,0.18014848,0.18858087,0.19915986,0.20970821,0.21712863,0.22240281,0.22979271,0.23614013,0.24248755,0.25091994,0.26149893,0.27627873,0.29213178,0.30268013,0.3122164,0.3196063,0.3312279,0.34389186,0.35551333,0.36501908,0.37243962,0.3851037,0.40095663,0.41892564,0.43474793,0.44848526,0.46117997,0.47280145,0.48546553,0.49816024,0.51189756,0.5298357,0.5509629,0.57000494,0.5879432,0.60275364,0.6207224,0.6397339,0.660861,0.6798724,0.69676816,0.71473694,0.7316326,0.7453698,0.7580646,0.76545453,0.77391756,0.77919173,0.7823502,0.7823502,0.77919173,0.77600276,0.7728443,0.76545453,0.7506747,0.72847426,0.702073,0.6703669,0.6302283,0.582669,0.52667725,0.46856987,0.40938926,0.35128176,0.2942475,0.23929846,0.19069672,0.14528406,0.10299897,0.064976096,0.03011167,0.00371027,-0.015331745,-0.02903837,-0.038574755,-0.0459646,-0.04912305,-0.04912305,-0.05019617,-0.048080444,-0.0459646,-0.041733027,-0.038574755,-0.038574755,-0.037501514,-0.03538567,-0.02903837,-0.022721648,-0.018490076,-0.01637435,-0.013216019,-0.005795419,0.0058261156,0.01637435,0.023764372,0.029069066,0.035385728,0.041733146,0.044891477,0.047007322,0.045964718,0.048080444,0.05019629,0.05019629,0.04912305,0.045964718,0.045964718,0.04912305,0.052312136,0.05335462,0.052312136,0.052312136,0.051238894,0.04912305,0.047007322,0.04277575,0.041733146,0.0396173,0.03645897,0.032227397,0.03011167,0.033269882,0.04069054,0.047007322,0.052312136,0.05335462,0.057586193,0.05970204,0.05970204,0.057586193,0.054397225,0.05651307,0.06286025,0.07025027,0.075555086,0.07767081,0.08082914,0.08187175,0.08082914,0.075555086,0.06813443,0.064976096,0.06393349,0.06393349,0.06393349,0.06286025,0.06604934,0.06813443,0.06920767,0.06709182,0.06286025,0.06286025,0.064976096,0.06604934,0.06813443,0.06813443,0.07025027,0.07343924,0.074481845,0.07343924,0.071323514,0.07659757,0.09137738,0.11569369,0.14209497,0.1632222,0.18014848,0.18965411,0.19915986,0.21817124,0.23825598,0.2604257,0.27839446,0.29213178,0.30479586,0.31749058,0.33015466,0.33015466,0.31537473,0.28897345,0.24987733,0.20443404,0.15160072,0.09984052,0.055470467,0.02695334,0.01953268,0.021648526,0.024837613,0.024837613,0.01953268,0.015331864,0.012142777,0.010027051,0.0089844465,0.007911205,0.010027051,0.012142777,0.012142777,0.010027051,0.00371027,0.0015944242,-0.0026370883,-0.0005212426,0.025880098,0.09984052,0.22663438,0.3851037,0.5214032,0.55203617,0.46961248,0.30479586,0.04277575,-0.28685755,-0.5900589,-0.77180177,-0.74855876,-0.51294005,-0.18223351,0.088219166,0.22556114,0.2561941,0.23614013,0.21078146,0.19808662,0.20020247,0.21393967,0.23086596,0.24457264,0.2551515,0.2625414,0.27204716,0.28366864,0.2942475,0.30375338,0.31010056,0.3196063,0.32911205,0.3396603,0.34919667,0.35658658,0.3639766,0.37136638,0.3777138,0.3851037,0.39356685,0.4062308,0.4178524,0.42947388,0.44109535,0.45167434,0.46645403,0.4823072,0.4960444,0.5097817,0.5224458,0.53934145,0.55838346,0.5763217,0.5932479,0.61014366,0.62915504,0.65028214,0.6703669,0.6872624,0.70099974,0.7168528,0.73270583,0.74855876,0.7612231,0.7696861,0.77919173,0.78762436,0.7950449,0.79924583,0.79924583,0.79924583,0.7982031,0.7918558,0.7802342,0.76018035,0.7369374,0.71050537,0.6788299,0.6439655,0.6016805,0.5573102,0.50659275,0.4506011,0.3924936,0.33438623,0.28366864,0.23614013,0.19281244,0.15055811,0.11041951,0.07767081,0.05019629,0.025880098,0.0047528744,-0.013216019,-0.021648407,-0.024837434,-0.024837434,-0.024837434,-0.024837434,-0.023764253,-0.022721648,-0.021648407,-0.023764253,-0.024837434,-0.022721648,-0.017416835,-0.011100173,-0.005795419,-0.0026370883,0.0026370287,0.0089844465,0.014258623,0.01744759,0.018490195,0.022721767,0.029069066,0.035385728,0.0396173,0.041733146,0.045964718,0.047007322,0.047007322,0.045964718,0.041733146,0.04069054,0.04069054,0.04069054,0.0396173,0.037501574,0.037501574,0.037501574,0.035385728,0.032227397,0.025880098,0.021648526,0.018490195,0.015331864,0.011100292,0.007911205,0.0089844465,0.012142777,0.015331864,0.01744759,0.01637435,0.01744759,0.018490195,0.020605922,0.022721767,0.024837613,0.031154156,0.037501574,0.04069054,0.04069054,0.03645897,0.03645897,0.03645897,0.03645897,0.037501574,0.03645897,0.037501574,0.037501574,0.035385728,0.031154156,0.027995944,0.029069066,0.03011167,0.029069066,0.02695334,0.023764372,0.023764372,0.025880098,0.02695334,0.024837613,0.01953268,0.01637435,0.014258623,0.015331864,0.01637435,0.01637435,0.01953268,0.023764372,0.034343123,0.057586193,0.08717656,0.11992526,0.14739978,0.16533792,0.17484367,0.19176996,0.2160554,0.2403717,0.25938308,0.27204716,0.2815528,0.2952901,0.3122164,0.3196063,0.3132589,0.29105854,0.25726736,0.21182394,0.15478969,0.094566345,0.04069054,0.007911205,-0.0005212426,0.00371027,0.010027051,0.0089844465,0.0026370287,-0.005795419,-0.013216019,-0.018490076,-0.022721648,-0.023764253,-0.025880039,-0.027995765,-0.031154096,-0.03538567,-0.03538567,-0.03326994,-0.03326994,-0.034343183,-0.018490076,0.041733146,0.15794802,0.3132589,0.47068572,0.54568875,0.5013186,0.3671348,0.12835765,-0.20231819,-0.5478045,-0.7918558,-0.8457316,-0.6671777,-0.33754444,-0.024837434,0.16641116,0.23086596,0.22132957,0.19281244,0.17272794,0.17064273,0.18014848,0.19388568,0.20654976,0.21501291,0.22451866,0.23295116,0.24248755,0.25199318,0.25938308,0.2678156,0.27735186,0.28474188,0.29213178,0.30059493,0.3132589,0.32595372,0.3375752,0.3460076,0.35128176,0.36081815,0.37136638,0.3851037,0.3988409,0.41257823,0.42735815,0.4421686,0.45483267,0.46752727,0.48019135,0.497087,0.5150559,0.53302467,0.5509629,0.5678892,0.5869005,0.60591197,0.621765,0.63550234,0.6481664,0.6650927,0.68198824,0.6988839,0.7126211,0.7232002,0.73482156,0.74748576,0.7580646,0.76545453,0.7675704,0.7707286,0.7728443,0.7707286,0.7643813,0.7506747,0.73482156,0.71473694,0.68937826,0.6597879,0.62388086,0.58162653,0.5340673,0.48019135,0.42312658,0.3671348,0.31641734,0.26888883,0.22240281,0.17695951,0.13154674,0.09033489,0.052312136,0.018490195,-0.010026932,-0.032227337,-0.0459646,-0.054397106,-0.05970198,-0.063902795,-0.06709188,-0.06709188,-0.06497604,-0.06286031,-0.060744464,-0.060744464,-0.05970198,-0.058628738,-0.056512892,-0.056512892,-0.054397106,-0.04912305,-0.04277563,-0.03645891,-0.03011161,-0.02695328,-0.020605922,-0.015331745,-0.013216019,-0.013216019,-0.015331745,-0.014258504,-0.012142777,-0.010026932,-0.010026932,-0.012142777,-0.013216019,-0.014258504,-0.015331745,-0.01637435,-0.01953268,-0.01953268,-0.018490076,-0.018490076,-0.01953268,-0.022721648,-0.022721648,-0.021648407,-0.022721648,-0.024837434,-0.03011161,-0.03326994,-0.03538567,-0.03645891,-0.0396173,-0.043848872,-0.044891477,-0.047007203,-0.051238775,-0.057586133,-0.06286031,-0.06286031,-0.05970198,-0.054397106,-0.051238775,-0.054397106,-0.057586133,-0.058628738,-0.05970198,-0.054397106,-0.04912305,-0.0396173,-0.03326994,-0.032227337,-0.032227337,-0.03538567,-0.03645891,-0.03645891,-0.03326994,-0.031154096,-0.02903837,-0.027995765,-0.022721648,-0.01953268,-0.015331745,-0.012142777,-0.010026932,-0.014258504,-0.018490076,-0.020605922,-0.021648407,-0.018490076,-0.012142777,-0.010026932,-0.007911146,-0.012142777,-0.015331745,-0.01953268,-0.020605922,-0.013216019,0.00371027,0.033269882,0.064976096,0.09245062,0.111462116,0.11992526,0.1304735,0.14844239,0.16956949,0.19069672,0.20970821,0.22875023,0.24141431,0.2561941,0.2657305,0.2604257,0.24668837,0.2160554,0.17064273,0.107230544,0.04277575,-0.011100173,-0.047007203,-0.057586133,-0.055470347,-0.05019617,-0.044891477,-0.0459646,-0.051238775,-0.05970198,-0.071323395,-0.0787133,-0.0787133,-0.077640176,-0.074481726,-0.07659757,-0.0787133,-0.08187163,-0.083987474,-0.083987474,-0.08294487,-0.06497604,-0.01953268,0.07767081,0.21817124,0.3777138,0.4833498,0.47068572,0.36081815,0.14209497,-0.18965411,-0.5573102,-0.8457316,-0.9556299,-0.82460445,-0.5034343,-0.16110635,0.06920767,0.1632222,0.16745377,0.13997924,0.11992526,0.11569369,0.11992526,0.12731504,0.13997924,0.15478969,0.168527,0.18119109,0.18753827,0.19388568,0.20550728,0.21501291,0.22451866,0.22979271,0.23506689,0.24248755,0.25199318,0.2625414,0.26888883,0.27627873,0.28474188,0.29636335,0.31010056,0.32595372,0.341776,0.36081815,0.37875628,0.3956827,0.4104625,0.4168098,0.42631555,0.44005275,0.45906425,0.47807562,0.49497116,0.51294005,0.53090894,0.5509629,0.5721208,0.58478475,0.60379624,0.6207224,0.6407765,0.660861,0.67564094,0.6936097,0.7115786,0.72847426,0.7379799,0.7400956,0.7379799,0.73586416,0.73270583,0.7316326,0.7263584,0.72108436,0.70838964,0.6904515,0.662977,0.62915504,0.59217465,0.55203617,0.507666,0.4559059,0.3988409,0.341776,0.2879002,0.23614013,0.18753827,0.13893664,0.097724795,0.057586193,0.023764372,-0.007911146,-0.040659785,-0.071323395,-0.094566405,-0.11041939,-0.117809355,-0.117809355,-0.116736114,-0.1125046,-0.111462,-0.11041939,-0.111462,-0.108303666,-0.10299885,-0.09668213,-0.0871765,-0.085060716,-0.08294487,-0.0871765,-0.09349316,-0.09560889,-0.097724736,-0.09349316,-0.08294487,-0.074481726,-0.06813437,-0.06497604,-0.06286031,-0.05970198,-0.054397106,-0.048080444,-0.044891477,-0.040659785,-0.040659785,-0.043848872,-0.05019617,-0.05335462,-0.056512892,-0.05335462,-0.04912305,-0.04912305,-0.05019617,-0.05228138,-0.05335462,-0.058628738,-0.05970198,-0.061817706,-0.058628738,-0.054397106,-0.056512892,-0.05970198,-0.06709188,-0.07025015,-0.06813437,-0.06709188,-0.061817706,-0.058628738,-0.054397106,-0.05019617,-0.048080444,-0.044891477,-0.0459646,-0.043848872,-0.043848872,-0.04912305,-0.05228138,-0.04912305,-0.0396173,-0.03011161,-0.021648407,-0.021648407,-0.03011161,-0.032227337,-0.03011161,-0.02695328,-0.023764253,-0.022721648,-0.020605922,-0.018490076,-0.011100173,-0.0068686604,-0.007911146,-0.010026932,-0.011100173,-0.012142777,-0.013216019,-0.0068686604,0.0015944242,0.007911205,0.011100292,0.007911205,0.0015944242,0.0015944242,0.0058261156,0.018490195,0.037501574,0.06286025,0.08929241,0.11569369,0.1368208,0.14948499,0.1632222,0.18014848,0.19808662,0.21289718,0.22451866,0.23614013,0.25091994,0.266773,0.27943707,0.27735186,0.25726736,0.22767699,0.18014848,0.12415671,0.06813443,0.018490195,-0.011100173,-0.020605922,-0.021648407,-0.020605922,-0.021648407,-0.02695328,-0.034343183,-0.04277563,-0.054397106,-0.06709188,-0.072366,-0.07343924,-0.071323395,-0.072366,-0.072366,-0.071323395,-0.06813437,-0.061817706,-0.061817706,-0.05228138,-0.012142777,0.07659757,0.20970821,0.35658658,0.4432112,0.42208397,0.30163753,0.07343924,-0.24987733,-0.6006378,-0.8594689,-0.93870354,-0.78762424,-0.47172815,-0.14528394,0.072366,0.16745377,0.17907524,0.16110635,0.14105237,0.13258922,0.13470507,0.1378634,0.15055811,0.16429543,0.17907524,0.19388568,0.20339143,0.21078146,0.21712863,0.22344542,0.23190856,0.23506689,0.2403717,0.2477616,0.2625414,0.27839446,0.29213178,0.2984792,0.30059493,0.31433213,0.32911205,0.34708083,0.3639766,0.36925054,0.37982953,0.39460945,0.40834665,0.42419982,0.4389795,0.45167434,0.46752727,0.48546553,0.497087,0.5108243,0.5287931,0.54887784,0.5689318,0.5900589,0.6069852,0.6228076,0.6407765,0.6597879,0.67564094,0.6925672,0.71050537,0.7232002,0.7263584,0.72951686,0.72951686,0.73586416,0.74325407,0.74325407,0.74221134,0.73374844,0.72847426,0.7200111,0.6978414,0.66825104,0.632344,0.5942905,0.55838346,0.5150559,0.4643383,0.40730405,0.34708083,0.29001594,0.23718274,0.18858087,0.14316821,0.1051147,0.06920767,0.037501574,0.0058261156,-0.01953268,-0.037501514,-0.04912305,-0.055470347,-0.058628738,-0.061817706,-0.060744464,-0.058628738,-0.055470347,-0.054397106,-0.05228138,-0.04912305,-0.048080444,-0.04277563,-0.0396173,-0.034343183,-0.02695328,-0.023764253,-0.023764253,-0.020605922,-0.018490076,-0.010026932,-0.0015944839,0.00371027,0.0015944242,0.0026370287,0.00371027,0.0089844465,0.015331864,0.018490195,0.01744759,0.018490195,0.014258623,0.013216019,0.013216019,0.011100292,0.012142777,0.0089844465,0.0089844465,0.006868601,0.0058261156,0.007911205,0.0026370287,-0.0026370883,-0.005795419,-0.005795419,-0.0026370883,0.0047528744,0.006868601,0.0015944242,-0.0026370883,-0.0026370883,0.0005213022,0.0047528744,0.0047528744,0.0026370287,0.0015944242,-0.0005212426,0.00371027,0.007911205,0.0089844465,0.011100292,0.010027051,0.010027051,0.006868601,0.006868601,0.013216019,0.015331864,0.01637435,0.011100292,0.0015944242,0.0026370287,0.0058261156,0.015331864,0.023764372,0.02695334,0.02695334,0.03011167,0.033269882,0.034343123,0.033269882,0.034343123,0.033269882,0.034343123,0.032227397,0.03011167,0.029069066,0.029069066,0.033269882,0.035385728,0.03645897,0.03645897,0.033269882,0.033269882,0.033269882,0.035385728,0.047007322,0.06920767,0.09560895,0.120967746,0.14632654,0.16429543,0.17695951,0.2012757,0.22663438,0.24668837,0.26361465,0.27627873,0.2815528,0.2942475,0.31114316,0.32383788,0.32488048,0.31010056,0.27839446,0.22875023,0.17380106,0.117809534,0.06604934,0.025880098,0.0089844465,0.0089844465,0.018490195,0.025880098,0.021648526,0.010027051,-0.005795419,-0.017416835,-0.023764253,-0.03011161,-0.03538567,-0.032227337,-0.02903837,-0.025880039,-0.02695328,-0.031154096,-0.031154096,-0.027995765,-0.0037102103,0.055470467,0.16641116,0.31641734,0.4643383,0.5224458,0.46856987,0.3269962,0.09245062,-0.2319085,-0.5625843,-0.7960873,-0.8351834,-0.63761806,-0.30267996,0.0015944242,0.16956949,0.21182394,0.19492829,0.16641116,0.15160072,0.14948499,0.15794802,0.17272794,0.19176996,0.21078146,0.21817124,0.22240281,0.22875023,0.23506689,0.24668837,0.2561941,0.2625414,0.27100468,0.27627873,0.28474188,0.29213178,0.30059493,0.31433213,0.32595372,0.3396603,0.35128176,0.3639766,0.3777138,0.3861463,0.39672518,0.40411508,0.41362083,0.4315896,0.4506011,0.46645403,0.48442304,0.5013186,0.51717174,0.5340673,0.55307865,0.5689318,0.585858,0.6069852,0.6259966,0.6407765,0.65028214,0.660861,0.6788299,0.6988839,0.7200111,0.7369374,0.74221134,0.7506747,0.7527597,0.7580646,0.7622961,0.7591071,0.7559489,0.7517172,0.74113834,0.7242427,0.7041887,0.6788299,0.6523979,0.61753345,0.5731633,0.52563477,0.4759599,0.42419982,0.3777138,0.3280388,0.27523613,0.22556114,0.17695951,0.12519932,0.08294499,0.047007322,0.023764372,0.006868601,-0.008984387,-0.024837434,-0.043848872,-0.051238775,-0.055470347,-0.056512892,-0.054397106,-0.054397106,-0.054397106,-0.04912305,-0.048080444,-0.047007203,-0.04277563,-0.037501514,-0.03326994,-0.032227337,-0.038574755,-0.040659785,-0.03645891,-0.025880039,-0.01637435,-0.010026932,-0.007911146,-0.0037102103,0.0005213022,0.007911205,0.011100292,0.012142777,0.014258623,0.01637435,0.018490195,0.018490195,0.022721767,0.03011167,0.032227397,0.031154156,0.024837613,0.013216019,0.006868601,0.006868601,0.007911205,0.011100292,0.011100292,0.0089844465,0.011100292,0.010027051,0.014258623,0.01744759,0.018490195,0.01953268,0.01953268,0.01637435,0.01744759,0.01744759,0.018490195,0.020605922,0.01637435,0.015331864,0.01953268,0.022721767,0.024837613,0.021648526,0.011100292,0.006868601,0.0058261156,0.0047528744,0.007911205,0.0058261156,0.0058261156,0.011100292,0.01744759,0.020605922,0.022721767,0.024837613,0.025880098,0.02695334,0.02695334,0.021648526,0.023764372,0.02695334,0.032227397,0.032227397,0.034343123,0.034343123,0.038574815,0.048080444,0.052312136,0.052312136,0.05019629,0.045964718,0.0396173,0.0396173,0.04069054,0.048080444,0.055470467,0.06709182,0.075555086,0.09245062,0.12415671,0.15267384,0.17803276,0.19492829,0.19915986,0.20970821,0.23086596,0.25303566,0.27523613,0.29213178,0.3090273,0.3196063,0.33438623,0.33334363,0.32172215,0.30375338,0.27100468,0.23086596,0.17380106,0.10934627,0.058628798,0.022721767,0.007911205,0.007911205,0.011100292,0.010027051,0.0026370287,-0.0068686604,-0.01953268,-0.03326994,-0.04277563,-0.047007203,-0.048080444,-0.05228138,-0.05019617,-0.047007203,-0.044891477,-0.041733027,-0.047007203,-0.04912305,-0.02903837,0.04069054,0.17064273,0.3280388,0.48123395,0.543573,0.48019135,0.32383788,0.06393349,-0.29105848,-0.6397339,-0.8700478,-0.89856493,-0.6914939,-0.34496504,-0.031154096,0.14948499,0.20231819,0.18542254,0.15055811,0.13366246,0.13154674,0.13997924,0.15690541,0.16641116,0.17907524,0.19281244,0.20231819,0.21289718,0.21817124,0.22240281,0.23190856,0.24353004,0.25199318,0.26465726,0.27735186,0.29213178,0.30798483,0.3206489,0.3280388,0.33334363,0.34389186,0.35128176,0.36186075,0.37664056,0.3956827,0.41469407,0.42843127,0.44109535,0.44848526,0.45906425,0.47807562,0.4960444,0.5140133,0.53090894,0.543573,0.5562676,0.5689318,0.582669,0.60275364,0.6207224,0.6397339,0.6597879,0.6767142,0.6936097,0.7115786,0.72212696,0.7305901,0.73586416,0.74221134,0.7496015,0.7580646,0.7633388,0.7612231,0.75383294,0.7453698,0.72847426,0.7052313,0.6798724,0.64923954,0.6133019,0.5752791,0.5235189,0.46752727,0.40518832,0.35023928,0.2942475,0.24141431,0.19281244,0.14421082,0.09668219,0.055470467,0.018490195,-0.020605922,-0.04912305,-0.06601864,-0.07659757,-0.085060716,-0.09560889,-0.104072094,-0.111462,-0.11569357,-0.11357784,-0.11041939,-0.1051147,-0.09984058,-0.09245068,-0.08610326,-0.085060716,-0.0787133,-0.07025015,-0.06601864,-0.06813437,-0.071323395,-0.077640176,-0.072366,-0.06497604,-0.057586133,-0.051238775,-0.04912305,-0.044891477,-0.044891477,-0.043848872,-0.04912305,-0.05228138,-0.048080444,-0.044891477,-0.044891477,-0.044891477,-0.047007203,-0.048080444,-0.047007203,-0.048080444,-0.05335462,-0.05335462,-0.056512892,-0.056512892,-0.061817706,-0.07025015,-0.07659757,-0.0787133,-0.07659757,-0.074481726,-0.077640176,-0.0787133,-0.07659757,-0.07555497,-0.07343924,-0.07343924,-0.0787133,-0.08187163,-0.08082914,-0.085060716,-0.08187163,-0.077640176,-0.06920761,-0.06286031,-0.06497604,-0.07555497,-0.085060716,-0.09560889,-0.094566405,-0.08610326,-0.08082914,-0.0787133,-0.072366,-0.07659757,-0.0787133,-0.0797559,-0.08082914,-0.07659757,-0.07659757,-0.072366,-0.06920761,-0.06920761,-0.058628738,-0.04912305,-0.047007203,-0.051238775,-0.055470347,-0.05970198,-0.060744464,-0.058628738,-0.057586133,-0.05970198,-0.05228138,-0.041733027,-0.031154096,-0.025880039,-0.02695328,-0.03326994,-0.032227337,-0.015331745,0.007911205,0.04277575,0.071323514,0.094566345,0.10934627,0.12308347,0.14105237,0.16217959,0.17695951,0.19069672,0.2012757,0.20970821,0.21924448,0.21817124,0.20654976,0.17907524,0.14739978,0.107230544,0.055470467,0.006868601,-0.03645891,-0.063902795,-0.07343924,-0.07025015,-0.07659757,-0.083987474,-0.08926159,-0.09245068,-0.09668213,-0.094566405,-0.10195631,-0.10618794,-0.10088307,-0.097724736,-0.09560889,-0.09668213,-0.10195631,-0.09984058,-0.09560889,-0.08610326,-0.056512892,0.0058261156,0.12415671,0.2815528,0.4252423,0.46856987,0.39460945,0.21712863,-0.0787133,-0.45379,-0.78658164,-0.9725255,-0.93342936,-0.6692935,-0.31325895,-0.027995765,0.11357784,0.14528406,0.13258922,0.11041951,0.09984052,0.10934627,0.12624192,0.14421082,0.1632222,0.17591691,0.18646514,0.19069672,0.19915986,0.20970821,0.21393967,0.22132957,0.22767699,0.23402429,0.24141431,0.24668837,0.2541089,0.26149893,0.27100468,0.2879002,0.30375338,0.31433213,0.33227038,0.3449651,0.3533976,0.36501908,0.37664056,0.38933527,0.40518832,0.4252423,0.4389795,0.457991,0.47914886,0.5034344,0.52771986,0.543573,0.5573102,0.5731633,0.5869005,0.60379624,0.6186067,0.62915504,0.6407765,0.660861,0.68198824,0.69676816,0.7094629,0.71369433,0.71473694,0.7200111,0.7200111,0.7242427,0.7305901,0.72951686,0.7253159,0.7126211,0.69465244,0.6767142,0.6513554,0.6228076,0.5890163,0.54464626,0.5023918,0.45379007,0.39460945,0.3375752,0.2815528,0.22451866,0.17272794,0.12308347,0.072366,0.024837613,-0.008984387,-0.0396173,-0.05970198,-0.071323395,-0.08082914,-0.083987474,-0.08926159,-0.08821899,-0.09137744,-0.0871765,-0.07555497,-0.06813437,-0.06601864,-0.063902795,-0.06920761,-0.06709188,-0.060744464,-0.055470347,-0.047007203,-0.041733027,-0.03538567,-0.034343183,-0.032227337,-0.03326994,-0.03326994,-0.03011161,-0.034343183,-0.03645891,-0.0396173,-0.04277563,-0.03645891,-0.032227337,-0.02903837,-0.03011161,-0.038574755,-0.044891477,-0.0396173,-0.03326994,-0.024837434,-0.018490076,-0.022721648,-0.031154096,-0.031154096,-0.02903837,-0.027995765,-0.023764253,-0.01953268,-0.01953268,-0.023764253,-0.031154096,-0.032227337,-0.034343183,-0.03645891,-0.034343183,-0.03645891,-0.0396173,-0.03645891,-0.034343183,-0.038574755,-0.040659785,-0.0459646,-0.04912305,-0.0459646,-0.041733027,-0.040659785,-0.032227337,-0.025880039,-0.01953268,-0.011100173,-0.005795419,-0.0015944839,-0.0015944839,-0.008984387,-0.01637435,-0.020605922,-0.015331745,-0.008984387,-0.0005212426,-0.0005212426,-0.004752815,-0.012142777,-0.013216019,-0.015331745,-0.01637435,-0.007911146,0.00371027,0.012142777,0.01637435,0.011100292,0.0047528744,0.013216019,0.03645897,0.074481845,0.107230544,0.12835765,0.14316821,0.15160072,0.17380106,0.19915986,0.21501291,0.22979271,0.24248755,0.2551515,0.2678156,0.2805102,0.2815528,0.26888883,0.24457264,0.20443404,0.15478969,0.09668219,0.041733146,0.0015944242,-0.024837434,-0.038574755,-0.034343183,-0.031154096,-0.032227337,-0.038574755,-0.055470347,-0.071323395,-0.08294487,-0.08926159,-0.09033483,-0.08926159,-0.0871765,-0.083987474,-0.08610326,-0.083987474,-0.085060716,-0.083987474,-0.07025015,-0.037501514,0.037501574,0.15902126,0.30479586,0.42419982,0.43370533,0.3407334,0.16429543,-0.107230425,-0.43582118,-0.7337483,-0.90595484,-0.8658163,-0.6164909,-0.27732122,-0.0037102103,0.1304735,0.1632222,0.14632654,0.11885202,0.108303785,0.108303785,0.11357784,0.12731504,0.14316821,0.15690541,0.168527,0.17695951,0.18119109,0.18753827,0.19808662,0.20866561,0.21712863,0.22344542,0.23295116,0.24141431,0.24880409,0.2625414,0.274163,0.28262603,0.30059493,0.31853306,0.3312279,0.35128176,0.36609232,0.37664056,0.3861463,0.3988409,0.41150498,0.42947388,0.44744265,0.4559059,0.46541154,0.47807562,0.49392855,0.5140133,0.5361831,0.5551944,0.5763217,0.59640634,0.60910106,0.62388086,0.63866067,0.65662956,0.68198824,0.7041887,0.71789527,0.72951686,0.7369374,0.73905313,0.74325407,0.7400956,0.7369374,0.73374844,0.7305901,0.7200111,0.7062738,0.6851466,0.65662956,0.62915504,0.5932479,0.546762,0.497087,0.4389795,0.37982953,0.32488048,0.26993144,0.22028697,0.16956949,0.12519932,0.08294499,0.041733146,0.012142777,-0.013216019,-0.032227337,-0.044891477,-0.058628738,-0.06709188,-0.074481726,-0.08082914,-0.077640176,-0.07555497,-0.071323395,-0.06709188,-0.06497604,-0.063902795,-0.06813437,-0.06601864,-0.06286031,-0.056512892,-0.048080444,-0.04277563,-0.044891477,-0.04277563,-0.041733027,-0.038574755,-0.03538567,-0.032227337,-0.02695328,-0.021648407,-0.015331745,-0.01637435,-0.025880039,-0.03326994,-0.038574755,-0.040659785,-0.044891477,-0.047007203,-0.0459646,-0.041733027,-0.037501514,-0.03326994,-0.037501514,-0.03538567,-0.02903837,-0.02903837,-0.03011161,-0.034343183,-0.037501514,-0.0396173,-0.041733027,-0.048080444,-0.051238775,-0.055470347,-0.05228138,-0.047007203,-0.05019617,-0.05019617,-0.047007203,-0.04277563,-0.034343183,-0.03011161,-0.031154096,-0.034343183,-0.038574755,-0.03538567,-0.034343183,-0.03645891,-0.031154096,-0.02903837,-0.03011161,-0.027995765,-0.025880039,-0.022721648,-0.021648407,-0.017416835,-0.01953268,-0.02695328,-0.023764253,-0.01953268,-0.012142777,-0.004752815,-0.004752815,-0.0015944839,0.0015944242,0.0047528744,0.0026370287,0.0005213022,-0.0026370883,-0.0005212426,0.0089844465,0.012142777,0.025880098,0.047007322,0.075555086,0.10934627,0.13258922,0.14105237,0.15690541,0.17695951,0.19808662,0.21924448,0.23825598,0.25199318,0.27204716,0.2931744,0.30479586,0.29952168,0.2805102,0.24457264,0.20339143,0.14528406,0.08610332,0.035385728,-0.0037102103,-0.023764253,-0.023764253,-0.020605922,-0.020605922,-0.020605922,-0.023764253,-0.03538567,-0.0459646,-0.04912305,-0.056512892,-0.056512892,-0.054397106,-0.055470347,-0.05019617,-0.044891477,-0.043848872,-0.0396173,-0.041733027,-0.031154096,0.01637435,0.117809534,0.25938308,0.42947388,0.5499203,0.543573,0.43582118,0.22240281,-0.09879798,-0.45694834,-0.7453698,-0.87743783,-0.7802342,-0.48969704,-0.15794796,0.085060835,0.19492829,0.20020247,0.168527,0.14316821,0.1304735,0.13577831,0.15371644,0.17168534,0.18646514,0.20231819,0.2160554,0.22663438,0.23190856,0.24141431,0.25199318,0.26465726,0.27627873,0.28262603,0.29105854,0.2942475,0.30479586,0.31641734,0.32172215,0.33438623,0.35023928,0.3639766,0.37875628,0.39460945,0.4104625,0.42735815,0.44005275,0.4495585,0.457991,0.47280145,0.4886546,0.50555015,0.5214032,0.5298357,0.5499203,0.5752791,0.59536374,0.61649096,0.63550234,0.6545137,0.6724826,0.68937826,0.70099974,0.70734704,0.71789527,0.73482156,0.75487566,0.77391756,0.7823502,0.7844659,0.77919173,0.7707286,0.766497,0.76545453,0.7622961,0.75383294,0.7443273,0.7232002,0.6936097,0.66190374,0.6186067,0.5678892,0.51294005,0.457991,0.40095663,0.3460076,0.2942475,0.24141431,0.19069672,0.13997924,0.09349322,0.052312136,0.018490195,-0.008984387,-0.031154096,-0.04912305,-0.061817706,-0.06601864,-0.07025015,-0.072366,-0.071323395,-0.06813437,-0.06709188,-0.06709188,-0.061817706,-0.055470347,-0.048080444,-0.038574755,-0.03538567,-0.03645891,-0.031154096,-0.02695328,-0.02695328,-0.022721648,-0.020605922,-0.01953268,-0.012142777,-0.011100173,-0.011100173,-0.0037102103,0.0015944242,0.0026370287,0.00371027,-0.0026370883,-0.007911146,-0.005795419,-0.0026370883,-0.0005212426,-0.0005212426,-0.0015944839,-0.011100173,-0.014258504,-0.013216019,-0.007911146,-0.0026370883,0.0058261156,0.0089844465,0.0047528744,0.0015944242,0.0026370287,-0.0015944839,-0.005795419,-0.008984387,-0.014258504,-0.020605922,-0.024837434,-0.025880039,-0.03011161,-0.03538567,-0.031154096,-0.02903837,-0.02903837,-0.023764253,-0.022721648,-0.020605922,-0.012142777,-0.0037102103,0.0015944242,-0.0015944839,-0.004752815,-0.007911146,-0.010026932,-0.011100173,-0.007911146,-0.0068686604,-0.008984387,-0.0068686604,-0.007911146,-0.011100173,-0.014258504,-0.012142777,-0.011100173,-0.010026932,-0.012142777,-0.007911146,-0.0037102103,0.0005213022,0.011100292,0.018490195,0.023764372,0.024837613,0.021648526,0.011100292,0.00371027,0.0026370287,0.011100292,0.021648526,0.043848872,0.072366,0.10091376,0.13154674,0.15478969,0.16217959,0.16956949,0.19069672,0.21078146,0.22979271,0.24987733,0.26361465,0.2731204,0.28897345,0.2952901,0.28897345,0.274163,0.2477616,0.20339143,0.14528406,0.07871342,0.01637435,-0.024837434,-0.0396173,-0.041733027,-0.04277563,-0.04277563,-0.044891477,-0.05228138,-0.056512892,-0.063902795,-0.072366,-0.07555497,-0.0797559,-0.085060716,-0.0871765,-0.08926159,-0.08926159,-0.085060716,-0.08294487,-0.09033483,-0.08187163,-0.04277563,0.052312136,0.20231819,0.37136638,0.49077034,0.4896971,0.38194537,0.17907524,-0.13366246,-0.50447685,-0.80770886,-0.94716674,-0.85207903,-0.54568875,-0.19281244,0.05651307,0.16745377,0.17695951,0.14105237,0.11357784,0.108303785,0.120967746,0.13893664,0.15690541,0.16641116,0.168527,0.17484367,0.18753827,0.19915986,0.207623,0.22132957,0.23190856,0.24248755,0.2477616,0.2551515,0.25830984,0.2625414,0.274163,0.28366864,0.2952901,0.3069116,0.3196063,0.33545947,0.3449651,0.35762918,0.37243962,0.3861463,0.40411508,0.41573656,0.42419982,0.44109535,0.46117997,0.4823072,0.49816024,0.5087085,0.5224458,0.5425304,0.5721208,0.5932479,0.61014366,0.621765,0.63127077,0.65028214,0.66929364,0.6851466,0.6936097,0.7031156,0.7115786,0.7168528,0.7253159,0.73482156,0.73905313,0.7379799,0.7369374,0.7305901,0.7242427,0.71369433,0.69465244,0.66825104,0.6302283,0.5890163,0.54887784,0.49920273,0.4432112,0.38933527,0.33438623,0.27627873,0.22767699,0.17591691,0.12624192,0.07659757,0.031154156,-0.0037102103,-0.03538567,-0.057586133,-0.06813437,-0.0787133,-0.085060716,-0.09245068,-0.1051147,-0.10934627,-0.11357784,-0.1125046,-0.10618794,-0.108303666,-0.10618794,-0.10088307,-0.094566405,-0.08610326,-0.085060716,-0.085060716,-0.08187163,-0.07659757,-0.071323395,-0.06709188,-0.061817706,-0.061817706,-0.060744464,-0.058628738,-0.058628738,-0.056512892,-0.055470347,-0.048080444,-0.041733027,-0.03538567,-0.02695328,-0.022721648,-0.022721648,-0.031154096,-0.037501514,-0.037501514,-0.03645891,-0.03538567,-0.03326994,-0.0396173,-0.04277563,-0.038574755,-0.03538567,-0.038574755,-0.0396173,-0.044891477,-0.04912305,-0.047007203,-0.04912305,-0.05228138,-0.05019617,-0.0459646,-0.040659785,-0.047007203,-0.051238775,-0.054397106,-0.05228138,-0.048080444,-0.04277563,-0.040659785,-0.037501514,-0.03326994,-0.024837434,-0.023764253,-0.02903837,-0.02903837,-0.03011161,-0.031154096,-0.027995765,-0.03011161,-0.032227337,-0.02903837,-0.023764253,-0.024837434,-0.021648407,-0.020605922,-0.01953268,-0.020605922,-0.020605922,-0.023764253,-0.022721648,-0.022721648,-0.018490076,-0.015331745,-0.013216019,-0.007911146,-0.0026370883,0.010027051,0.025880098,0.05019629,0.07975602,0.10299897,0.11569369,0.12835765,0.14528406,0.16533792,0.19281244,0.21712863,0.23295116,0.25199318,0.26993144,0.2868576,0.2879002,0.2657305,0.22875023,0.17907524,0.12835765,0.07975602,0.034343123,-0.007911146,-0.03011161,-0.03645891,-0.03538567,-0.0396173,-0.044891477,-0.054397106,-0.06497604,-0.06709188,-0.06920761,-0.07025015,-0.06813437,-0.06709188,-0.071323395,-0.072366,-0.077640176,-0.08082914,-0.072366,-0.063902795,-0.05335462,-0.020605922,0.04069054,0.14739978,0.28474188,0.40307248,0.42843127,0.34812343,0.1632222,-0.120967686,-0.4728014,-0.7886975,-0.95986146,-0.91441804,-0.65978783,-0.3206488,-0.043848872,0.108303785,0.15055811,0.14844239,0.13577831,0.12624192,0.12943089,0.1378634,0.14528406,0.15583217,0.16641116,0.17484367,0.18646514,0.19808662,0.2012757,0.207623,0.21924448,0.23402429,0.25199318,0.2678156,0.2731204,0.27839446,0.28474188,0.29001594,0.30268013,0.31749058,0.33227038,0.34708083,0.3639766,0.38087213,0.39672518,0.41150498,0.42419982,0.43686378,0.44109535,0.45167434,0.47068572,0.4833498,0.5013186,0.51717174,0.5319514,0.54887784,0.5615418,0.5752791,0.585858,0.59852207,0.6196492,0.64500797,0.66825104,0.6851466,0.7031156,0.71473694,0.72743165,0.7400956,0.74325407,0.74644303,0.7496015,0.74748576,0.7453698,0.7379799,0.7242427,0.7062738,0.68937826,0.66720843,0.6344292,0.5890163,0.53829885,0.48546553,0.43370533,0.37982953,0.3269962,0.26993144,0.21289718,0.16533792,0.11569369,0.06920767,0.032227397,-0.0015944839,-0.03326994,-0.057586133,-0.07555497,-0.09033483,-0.09668213,-0.09668213,-0.09879798,-0.10299885,-0.104072094,-0.10088307,-0.097724736,-0.09349316,-0.08294487,-0.0797559,-0.077640176,-0.06920761,-0.06286031,-0.05970198,-0.051238775,-0.043848872,-0.0396173,-0.037501514,-0.03011161,-0.021648407,-0.010026932,-0.0026370883,0.0015944242,0.0026370287,0.0015944242,0.0058261156,0.012142777,0.012142777,0.011100292,0.0058261156,-0.0005212426,-0.0037102103,-0.011100173,-0.010026932,-0.0037102103,-0.0037102103,0.0005213022,0.0015944242,-0.005795419,-0.008984387,-0.008984387,-0.0068686604,-0.007911146,-0.0068686604,-0.007911146,-0.010026932,-0.008984387,-0.015331745,-0.017416835,-0.015331745,-0.011100173,-0.007911146,-0.007911146,-0.013216019,-0.01953268,-0.017416835,-0.012142777,-0.014258504,-0.014258504,-0.010026932,-0.005795419,-0.005795419,-0.004752815,-0.0068686604,-0.013216019,-0.011100173,-0.004752815,-0.0005212426,-0.0005212426,-0.0015944839,-0.0026370883,-0.0015944839,-0.0037102103,-0.0026370883,0.0005213022,-0.0026370883,0.0005213022,0.0058261156,0.0047528744,0.00371027,0.006868601,0.0026370287,-0.0026370883,-0.0037102103,-0.0037102103,-0.0037102103,0.00371027,0.018490195,0.043848872,0.07975602,0.111462116,0.12731504,0.13470507,0.13997924,0.15794802,0.18965411,0.21924448,0.23506689,0.24880409,0.25938308,0.2731204,0.29213178,0.2942475,0.28262603,0.2625414,0.22875023,0.18965411,0.14105237,0.08717656,0.038574815,-0.0005212426,-0.01637435,-0.01637435,-0.007911146,-0.0037102103,-0.004752815,-0.011100173,-0.023764253,-0.03326994,-0.03326994,-0.032227337,-0.032227337,-0.03011161,-0.02903837,-0.03011161,-0.03326994,-0.02903837,-0.02903837,-0.02695328,-0.0005212426,0.06709182,0.18119109,0.3196063,0.45694852,0.5044769,0.43793702,0.28366864,0.033269882,-0.29952168,-0.621765,-0.8277934,-0.8457316,-0.64500797,-0.3143015,-0.015331745,0.15371644,0.20339143,0.18438005,0.15055811,0.13470507,0.13366246,0.14844239,0.1632222,0.18119109,0.19704401,0.20550728,0.21393967,0.21501291,0.21924448,0.23190856,0.24248755,0.24987733,0.25726736,0.25830984,0.25830984,0.26888883,0.2815528,0.2952901,0.30798483,0.31433213,0.32595372,0.3396603,0.35658658,0.36925054,0.38087213,0.39145112,0.40199924,0.41573656,0.43474793,0.44848526,0.4643383,0.4833498,0.5013186,0.5140133,0.53302467,0.5551944,0.57739496,0.6006378,0.6259966,0.64923954,0.6724826,0.6936097,0.702073,0.7094629,0.7189685,0.7316326,0.74748576,0.7517172,0.7527597,0.7569914,0.7591071,0.7580646,0.7559489,0.7453698,0.73270583,0.7200111,0.70099974,0.66720843,0.6302283,0.5942905,0.5573102,0.5150559,0.46856987,0.41469407,0.35551333,0.30268013,0.25303566,0.19808662,0.15160072,0.108303785,0.064976096,0.033269882,0.0015944242,-0.024837434,-0.0396173,-0.04912305,-0.055470347,-0.056512892,-0.055470347,-0.057586133,-0.056512892,-0.051238775,-0.04912305,-0.044891477,-0.044891477,-0.043848872,-0.04277563,-0.041733027,-0.034343183,-0.032227337,-0.03011161,-0.027995765,-0.027995765,-0.02695328,-0.031154096,-0.032227337,-0.03011161,-0.024837434,-0.01953268,-0.011100173,-0.0068686604,-0.005795419,-0.004752815,-0.004752815,-0.0068686604,-0.007911146,-0.004752815,-0.005795419,-0.010026932,-0.015331745,-0.014258504,-0.012142777,-0.010026932,-0.007911146,-0.0037102103,-0.0026370883,-0.0026370883,-0.0068686604,-0.01953268,-0.02695328,-0.02695328,-0.018490076,-0.008984387,-0.010026932,-0.012142777,-0.01637435,-0.018490076,-0.021648407,-0.02695328,-0.03011161,-0.03011161,-0.025880039,-0.017416835,-0.014258504,-0.013216019,-0.0068686604,-0.0015944839,-0.0037102103,-0.005795419,-0.007911146,-0.008984387,-0.0068686604,-0.010026932,-0.010026932,-0.008984387,-0.0005212426,0.007911205,0.011100292,0.011100292,0.007911205,0.006868601,0.013216019,0.011100292,0.007911205,0.010027051,0.010027051,0.011100292,0.007911205,0.0015944242,0.0005213022,-0.0005212426,0.00371027,0.015331864,0.031154156,0.05970204,0.09033489,0.11992526,0.13893664,0.15160072,0.16006374,0.17591691,0.19704401,0.2160554,0.23295116,0.2561941,0.27735186,0.29213178,0.30798483,0.3122164,0.30059493,0.27627873,0.24457264,0.19492829,0.1368208,0.08082914,0.02695334,-0.007911146,-0.020605922,-0.021648407,-0.014258504,-0.0068686604,-0.005795419,-0.014258504,-0.025880039,-0.03645891,-0.044891477,-0.047007203,-0.047007203,-0.05228138,-0.060744464,-0.060744464,-0.061817706,-0.056512892,-0.055470347,-0.056512892,-0.034343183,0.025880098,0.14421082,0.30375338,0.457991,0.5287931,0.47914886,0.32911205,0.072366,-0.26993132,-0.6133019,-0.84468913,-0.88059616,-0.6883356,-0.36186063,-0.054397106,0.1304735,0.19388568,0.18646514,0.15690541,0.1368208,0.13470507,0.14209497,0.15583217,0.17272794,0.18330681,0.19600153,0.20970821,0.22028697,0.22767699,0.22875023,0.23086596,0.23295116,0.23506689,0.24880409,0.2678156,0.28262603,0.29740596,0.30798483,0.31641734,0.32172215,0.3280388,0.3396603,0.35128176,0.3671348,0.38933527,0.41257823,0.43370533,0.4506011,0.46752727,0.48653877,0.50659275,0.5287931,0.546762,0.5541519,0.56365764,0.57739496,0.5942905,0.60910106,0.62388086,0.6397339,0.6587453,0.6798724,0.70099974,0.71369433,0.72212696,0.73270583,0.74325407,0.7506747,0.7622961,0.7696861,0.7707286,0.7728443,0.7718018,0.7612231,0.7517172,0.73586416,0.7115786,0.6788299,0.64289224,0.60275364,0.5562676,0.50659275,0.45167434,0.39460945,0.33334363,0.2731204,0.21501291,0.15478969,0.10618794,0.06604934,0.02695334,-0.007911146,-0.03538567,-0.058628738,-0.072366,-0.08082914,-0.09137744,-0.10195631,-0.111462,-0.11462033,-0.111462,-0.10934627,-0.1051147,-0.107230425,-0.104072094,-0.097724736,-0.094566405,-0.085060716,-0.07555497,-0.06709188,-0.058628738,-0.05970198,-0.060744464,-0.06286031,-0.060744464,-0.047007203,-0.0396173,-0.037501514,-0.03326994,-0.03011161,-0.02903837,-0.022721648,-0.021648407,-0.022721648,-0.020605922,-0.022721648,-0.025880039,-0.02695328,-0.024837434,-0.023764253,-0.025880039,-0.03011161,-0.03538567,-0.034343183,-0.031154096,-0.032227337,-0.03538567,-0.0396173,-0.038574755,-0.03326994,-0.034343183,-0.034343183,-0.03538567,-0.03326994,-0.032227337,-0.03011161,-0.03538567,-0.040659785,-0.037501514,-0.034343183,-0.03645891,-0.03645891,-0.037501514,-0.03645891,-0.032227337,-0.023764253,-0.021648407,-0.022721648,-0.025880039,-0.025880039,-0.03011161,-0.031154096,-0.024837434,-0.021648407,-0.015331745,-0.005795419,-0.0015944839,0.0015944242,-0.0005212426,-0.004752815,-0.01637435,-0.022721648,-0.024837434,-0.022721648,-0.013216019,-0.011100173,-0.013216019,-0.013216019,-0.012142777,-0.004752815,-0.0037102103,-0.004752815,-0.005795419,-0.0026370883,0.0047528744,0.012142777,0.023764372,0.045964718,0.07343924,0.10299897,0.12731504,0.13258922,0.1378634,0.15902126,0.18014848,0.20654976,0.23086596,0.24353004,0.25830984,0.27627873,0.28578436,0.27943707,0.26361465,0.23506689,0.19600153,0.15055811,0.09349322,0.034343123,-0.012142777,-0.03326994,-0.0396173,-0.041733027,-0.041733027,-0.05228138,-0.063902795,-0.071323395,-0.083987474,-0.08926159,-0.08926159,-0.08926159,-0.08187163,-0.0787133,-0.077640176,-0.08294487,-0.09137744,-0.097724736,-0.10299885,-0.10088307,-0.08082914,-0.018490076,0.09560895,0.2477616,0.4168098,0.5044769,0.46752727,0.3375752,0.08610332,-0.27732122,-0.6428922,-0.8975224,-0.9429351,-0.74325395,-0.39672512,-0.08187163,0.107230544,0.17064273,0.16429543,0.14421082,0.12943089,0.120967746,0.12624192,0.14105237,0.16110635,0.18330681,0.19704401,0.20654976,0.20550728,0.20550728,0.21289718,0.22028697,0.22979271,0.23825598,0.24353004,0.24457264,0.2541089,0.2657305,0.2731204,0.2868576,0.30059493,0.31641734,0.33227038,0.34389186,0.35447085,0.36820805,0.38826203,0.4062308,0.41892564,0.430547,0.4389795,0.46010673,0.4896971,0.51717174,0.5414572,0.5573102,0.5689318,0.5742365,0.585858,0.6048695,0.632344,0.66190374,0.6851466,0.6978414,0.7052313,0.7115786,0.7242427,0.73374844,0.74325407,0.7506747,0.75383294,0.7612231,0.766497,0.7633388,0.7591071,0.7517172,0.73586416,0.7168528,0.6936097,0.65767205,0.61753345,0.5763217,0.5245615,0.46961248,0.41573656,0.35658658,0.30059493,0.24564576,0.18438005,0.1304735,0.08398759,0.048080444,0.018490195,-0.014258504,-0.04277563,-0.06601864,-0.07659757,-0.0787133,-0.083987474,-0.09245068,-0.10195631,-0.104072094,-0.107230425,-0.10299885,-0.09349316,-0.085060716,-0.07343924,-0.063902795,-0.063902795,-0.072366,-0.074481726,-0.071323395,-0.06286031,-0.054397106,-0.04277563,