-0.5464084,-0.5510821,-0.5538924,-0.5538924,-0.5548394,-0.5538924,-0.5510821,-0.5492188,-0.54451454,-0.5417042,-0.5388939,-0.5388939,-0.5407572,-0.5417042,-0.5407572,-0.5370305,-0.5323263,-0.5276526,-0.52578926,-0.52484226,-0.5238954,-0.521085,-0.51922166,-0.520138,-0.5229789,-0.522032,-0.51827466,-0.5098437,-0.50141275,-0.4967085,-0.4948452,-0.4967085,-0.5004658,-0.50235975,-0.5042231,-0.5032761,-0.50141275,-0.50141275,-0.50235975,-0.5070334,-0.51170707,-0.513601,-0.513601,-0.5107907,-0.5107907,-0.51265407,-0.5154644,-0.520138,-0.520138,-0.51922166,-0.5145174,-0.51265407,-0.51170707,-0.51265407,-0.5145174,-0.51170707,-0.50608647,-0.50141275,-0.4976555,-0.49860245,-0.50235975,-0.5070334,-0.51170707,-0.5154644,-0.5164113,-0.5145174,-0.5107907,-0.5070334,-0.5051701,-0.5042231,-0.5004658,-0.49579215,-0.49298185,-0.4910879,-0.49579215,-0.49860245,-0.49954945,-0.4967085,-0.49298185,-0.4910879,-0.49203485,-0.49579215,-0.5004658,-0.5042231,-0.5051701,-0.50141275,-0.49579215,-0.4901715,-0.4873612,-0.48827755,-0.4901715,-0.4910879,-0.49203485,-0.4901715,-0.4901715,-0.48827755,-0.4836039,-0.47327906,-0.45922744,-0.4414186,-0.42455667,-0.41331542,-0.40393746,-0.3861286,-0.35240477,-0.30365187,-0.25492948,-0.22398543,-0.22398543,-0.24649853,-0.27365476,-0.2877369,-0.28303266,-0.2708444,-0.26430738,-0.27460176,-0.30927247,-0.3626991,-0.42455667,-0.48174053,-0.5173277,-0.53140986,-0.5267056,-0.51827466,-0.51265407,-0.5098437,-0.5098437,-0.5088968,-0.5098437,-0.5107907,-0.5088968,-0.5098437,-0.51827466,-0.54356754,-0.5745116,-0.5782689,-0.5276526,-0.38518167,-0.1415087,0.16588521,0.47984672,0.6860386,0.7244667,0.5707545,0.22865915,-0.18183064,-0.55764973,-0.81632125,-0.92033356,-0.8959571,-0.8050494,-0.70760465,-0.6241809,-0.56137645,-0.520138,-0.49579215,-0.48641425,-0.48174053,-0.47798324,-0.47327906,-0.46393168,-0.45550072,-0.44893312,-0.44612277,-0.4442289,-0.44050217,-0.43298763,-0.42455667,-0.41331542,-0.40488446,-0.40018022,-0.39645344,-0.39364314,-0.3861286,-0.37769765,-0.36740333,-0.35988873,-0.35240477,-0.3467841,-0.34021652,-0.33083868,-0.32146072,-0.3111664,-0.29708427,-0.27930593,-0.25587648,-0.23055303,-0.20526016,-0.18274707,-0.16402179,-0.14340264,-0.12373036,-0.09654361,-0.06654644,-0.035632968,-0.0009316206,0.030928731,0.061842322,0.09183943,0.118079185,0.1424557,0.16212785,0.17807353,0.18931472,0.19960904,0.21085036,0.22303855,0.23055315,0.23146951,0.2202282,0.19869268,0.16869557,0.1312145,0.084355354,0.029981852,-0.02906537,-0.08902907,-0.14807624,-0.20526016,-0.26055014,-0.3139767,-0.3626991,-0.40674782,-0.44517583,-0.47798324,-0.5042231,-0.5238954,-0.5360836,-0.5426512,-0.5473249,-0.5492188,-0.5548394,-0.56137645,-0.56794405,-0.57356465,-0.5754586,-0.57356465,-0.5717013,-0.5717013,-0.57356465,-0.57356465,-0.5726483,-0.56702757,-0.56137645,-0.5585661,-0.5548394,-0.5529455,-0.5482718,-0.54451454,-0.5407572,-0.53794694,-0.5360836,-0.53140986,-0.5285996,-0.5276526,-0.52484226,-0.5229789,-0.51827466,-0.51170707,-0.5042231,-0.49860245,-0.49579215,-0.4976555,-0.50141275,-0.5070334,-0.5098437,-0.5098437,-0.5088968,-0.50798035,-0.5088968,-0.50798035,-0.50608647,-0.5032761,-0.50141275,-0.5032761,-0.50608647,-0.5098437,-0.5098437,-0.5107907,-0.5107907,-0.51265407,-0.5164113,-0.5164113,-0.5145174,-0.51170707,-0.50798035,-0.50608647,-0.5032761,-0.5004658,-0.49860245,-0.4948452,-0.4948452,-0.4948452,-0.49579215,-0.4967085,-0.49579215,-0.4948452,-0.49298185,-0.49203485,-0.4910879,-0.4910879,-0.4901715,-0.4836039,-0.4704687,-0.45079648,-0.4283139,-0.40955812,-0.40112716,-0.39645344,-0.38426524,-0.35521513,-0.31208283,-0.2689811,-0.24368823,-0.24649853,-0.26711774,-0.29335755,-0.31021947,-0.31489313,-0.31302977,-0.31208283,-0.31865042,-0.33832264,-0.3758343,-0.4255036,-0.4770363,-0.51922166,-0.5426512,-0.55013514,-0.5482718,-0.5426512,-0.53794694,-0.53140986,-0.5285996,-0.5276526,-0.5276526,-0.529516,-0.5285996,-0.5332732,-0.5538924,-0.58761626,-0.6138866,-0.59888804,-0.5070334,-0.3083561,-0.015930235,0.32146084,0.6194768,0.7656745,0.7300873,0.49484527,0.11151171,-0.2914636,-0.6185603,-0.8069433,-0.8472347,-0.7881875,-0.6972798,-0.623234,-0.5726483,-0.53794694,-0.5173277,-0.5051701,-0.5004658,-0.4976555,-0.4938982,-0.48922455,-0.48174053,-0.47517294,-0.4686054,-0.46298474,-0.45736408,-0.45079648,-0.44517583,-0.44050217,-0.43674493,-0.43393457,-0.42923033,-0.42455667,-0.41988295,-0.41331542,-0.40861118,-0.40112716,-0.39174926,-0.38145494,-0.36740333,-0.35521513,-0.34207994,-0.33083868,-0.32146072,-0.3111664,-0.29992515,-0.2849266,-0.26803416,-0.24836189,-0.22587931,-0.2024498,-0.17620999,-0.14807624,-0.11997312,-0.08997595,-0.06092584,-0.027171433,0.0065523386,0.03935969,0.07216716,0.10027039,0.1246469,0.14431906,0.16026461,0.17150581,0.17993677,0.18931472,0.19679868,0.19869268,0.19212508,0.1724528,0.1424557,0.10308063,0.055274725,0.0037419796,-0.052494824,-0.111542165,-0.17431611,-0.23617369,-0.2924106,-0.34583718,-0.39083284,-0.43112427,-0.46484804,-0.49203485,-0.5154644,-0.53140986,-0.54451454,-0.5557558,-0.5641867,-0.57356465,-0.5773219,-0.5782689,-0.57356465,-0.56794405,-0.5641867,-0.5623234,-0.56327033,-0.56137645,-0.5585661,-0.5538924,-0.5473249,-0.54356754,-0.5417042,-0.5407572,-0.5398408,-0.5360836,-0.53140986,-0.5267056,-0.5229789,-0.520138,-0.5154644,-0.5107907,-0.50798035,-0.50608647,-0.5088968,-0.5098437,-0.51170707,-0.513601,-0.51170707,-0.5098437,-0.5070334,-0.5042231,-0.5042231,-0.5051701,-0.5070334,-0.50608647,-0.5051701,-0.5051701,-0.5032761,-0.5032761,-0.50235975,-0.50141275,-0.50141275,-0.5004658,-0.5004658,-0.49954945,-0.5004658,-0.5032761,-0.50798035,-0.51265407,-0.513601,-0.5098437,-0.50608647,-0.5032761,-0.5042231,-0.5070334,-0.5098437,-0.50798035,-0.5051701,-0.50141275,-0.4976555,-0.4976555,-0.4976555,-0.49860245,-0.49954945,-0.49860245,-0.4967085,-0.4948452,-0.49298185,-0.4910879,-0.48922455,-0.48827755,-0.48546726,-0.48174053,-0.47798324,-0.47327906,-0.46955234,-0.4686054,-0.4686054,-0.4704687,-0.47236264,-0.474226,-0.47608936,-0.47517294,-0.47327906,-0.4704687,-0.4686054,-0.46674198,-0.4620378,-0.45922744,-0.45736408,-0.45831102,-0.46112138,-0.46393168,-0.46298474,-0.45922744,-0.45641714,-0.45736408,-0.45736408,-0.45922744,-0.46017438,-0.45736408,-0.45641714,-0.45455378,-0.45174342,-0.4442289,-0.43017733,-0.41145205,-0.39083284,-0.3767507,-0.37113005,-0.36831975,-0.3505109,-0.31302977,-0.26055014,-0.21369112,-0.19493526,-0.20617658,-0.23617369,-0.2652238,-0.27930593,-0.27930593,-0.27460176,-0.27365476,-0.2877369,-0.32051378,-0.37021363,-0.42923033,-0.48174053,-0.5173277,-0.53140986,-0.5267056,-0.5164113,-0.5070334,-0.5051701,-0.50608647,-0.50798035,-0.50798035,-0.5032761,-0.5004658,-0.50798035,-0.5323263,-0.5717013,-0.6007514,-0.58480597,-0.4910879,-0.2914636,0.0065523386,0.36269915,0.69538593,0.88285255,0.88190556,0.66352546,0.27741218,-0.14340264,-0.48922455,-0.69541645,-0.7553801,-0.71508867,-0.6485574,-0.59699416,-0.5651337,-0.5417042,-0.5238954,-0.51170707,-0.5042231,-0.5004658,-0.49860245,-0.49579215,-0.4910879,-0.48265696,-0.474226,-0.46298474,-0.45174342,-0.44236553,-0.43579793,-0.43112427,-0.4283139,-0.42455667,-0.41988295,-0.41331542,-0.40861118,-0.40393746,-0.40018022,-0.3955065,-0.38518167,-0.3739404,-0.36175215,-0.35145783,-0.3467841,-0.34021652,-0.33178562,-0.31959736,-0.3045988,-0.2877369,-0.2717914,-0.25398254,-0.23431027,-0.21182775,-0.1893146,-0.16493821,-0.14059228,-0.116215765,-0.08997595,-0.06187284,-0.029981792,0.0027951002,0.03468609,0.06559956,0.090892434,0.113405585,0.1312145,0.14526606,0.15837061,0.16680169,0.17431617,0.17526317,0.17055881,0.16307485,0.14807642,0.1255939,0.09183943,0.045927405,-0.0046889186,-0.058115482,-0.10964823,-0.16212791,-0.21650141,-0.2708444,-0.32427108,-0.372077,-0.41236842,-0.4470392,-0.4770363,-0.50141275,-0.522032,-0.53794694,-0.5492188,-0.5548394,-0.5585661,-0.5585661,-0.56137645,-0.5641867,-0.56702757,-0.568891,-0.5660807,-0.5651337,-0.5623234,-0.5595131,-0.5585661,-0.5557558,-0.5538924,-0.55013514,-0.5464084,-0.5426512,-0.5370305,-0.5351366,-0.5332732,-0.53140986,-0.5304629,-0.5276526,-0.52578926,-0.5229789,-0.520138,-0.51922166,-0.5173277,-0.5154644,-0.513601,-0.513601,-0.5145174,-0.5154644,-0.5145174,-0.513601,-0.51170707,-0.51170707,-0.51170707,-0.513601,-0.5107907,-0.50798035,-0.50608647,-0.50235975,-0.50141275,-0.50235975,-0.50235975,-0.5042231,-0.5051701,-0.50608647,-0.5070334,-0.50608647,-0.50608647,-0.5051701,-0.5042231,-0.5032761,-0.50235975,-0.50235975,-0.5051701,-0.5088968,-0.5107907,-0.5088968,-0.5042231,-0.5004658,-0.49954945,-0.5004658,-0.5042231,-0.5098437,-0.5145174,-0.51922166,-0.51922166,-0.5145174,-0.50798035,-0.49860245,-0.49203485,-0.48922455,-0.48922455,-0.48922455,-0.4873612,-0.48546726,-0.48455083,-0.48455083,-0.4873612,-0.4873612,-0.48455083,-0.4807936,-0.47517294,-0.474226,-0.474226,-0.47608936,-0.47893023,-0.47984666,-0.47984666,-0.47798324,-0.47798324,-0.47608936,-0.47517294,-0.47327906,-0.4676584,-0.46112138,-0.45455378,-0.45079648,-0.45174342,-0.45455378,-0.46017438,-0.46484804,-0.46484804,-0.4620378,-0.45736408,-0.45079648,-0.44893312,-0.44984955,-0.45174342,-0.44984955,-0.44517583,-0.4414186,-0.43955523,-0.43955523,-0.43579793,-0.42736697,-0.41145205,-0.3898859,-0.37021363,-0.35426813,-0.34770054,-0.34207994,-0.32240766,-0.2877369,-0.23898399,-0.19682914,-0.18274707,-0.1996395,-0.23431027,-0.26617074,-0.2811693,-0.27930593,-0.26803416,-0.26149708,-0.26992804,-0.30084157,-0.35240477,-0.41426235,-0.4704687,-0.5042231,-0.5154644,-0.5088968,-0.49860245,-0.4901715,-0.48546726,-0.48265696,-0.48174053,-0.4807936,-0.47984666,-0.48265696,-0.49954945,-0.5304629,-0.5641867,-0.5717013,-0.51827466,-0.372077,-0.117162764,0.20993388,0.5585662,0.80785966,0.88095856,0.7516228,0.41704214,-0.0074992776,-0.40112716,-0.67855453,-0.804133,-0.7975654,-0.72351956,-0.6438532,-0.57918525,-0.5304629,-0.5004658,-0.48546726,-0.4807936,-0.48174053,-0.48265696,-0.4836039,-0.4807936,-0.47517294,-0.46674198,-0.45455378,-0.4414186,-0.43298763,-0.42642003,-0.4217463,-0.41707265,-0.40955812,-0.40112716,-0.39364314,-0.3898859,-0.3870756,-0.38426524,-0.3767507,-0.36456245,-0.3533212,-0.34397382,-0.33832264,-0.33364892,-0.32616496,-0.3177035,-0.3055458,-0.2905472,-0.27460176,-0.25492948,-0.23431027,-0.21369112,-0.19493526,-0.17620999,-0.15464383,-0.13121432,-0.10402757,-0.07497746,-0.048737586,-0.019687474,0.012173057,0.04122317,0.06746304,0.09183943,0.10964823,0.12745714,0.14712942,0.16307485,0.17712653,0.18742085,0.19212508,0.19307208,0.19026172,0.18180013,0.16588521,0.14056182,0.10683787,0.06465268,0.016877174,-0.035632968,-0.08811265,-0.14526594,-0.20617658,-0.2624135,-0.3139767,-0.3570785,-0.39174926,-0.41988295,-0.44517583,-0.4676584,-0.4836039,-0.49579215,-0.5051701,-0.513601,-0.522032,-0.53140986,-0.5370305,-0.5407572,-0.54356754,-0.54356754,-0.5454615,-0.5464084,-0.5482718,-0.55013514,-0.5482718,-0.5473249,-0.5426512,-0.53794694,-0.5332732,-0.5285996,-0.5238954,-0.5164113,-0.51170707,-0.50798035,-0.5051701,-0.5042231,-0.50141275,-0.49860245,-0.4938982,-0.4901715,-0.48827755,-0.48546726,-0.48922455,-0.4938982,-0.4948452,-0.4967085,-0.4976555,-0.49954945,-0.5051701,-0.5088968,-0.5107907,-0.5088968,-0.5042231,-0.5004658,-0.49860245,-0.4976555,-0.49860245,-0.5004658,-0.49860245,-0.4976555,-0.4976555,-0.49579215,-0.4976555,-0.5004658,-0.50235975,-0.5032761,-0.50235975,-0.5004658,-0.4976555,-0.4948452,-0.49579215,-0.4976555,-0.49860245,-0.4976555,-0.49579215,-0.49203485,-0.4901715,-0.4948452,-0.5004658,-0.50235975,-0.5032761,-0.49860245,-0.4948452,-0.49203485,-0.49203485,-0.4938982,-0.49579215,-0.4976555,-0.4976555,-0.4948452,-0.4938982,-0.49203485,-0.49203485,-0.49203485,-0.4901715,-0.48641425,-0.4836039,-0.48174053,-0.47984666,-0.47984666,-0.47984666,-0.48174053,-0.48455083,-0.4836039,-0.4770363,-0.47236264,-0.4676584,-0.46579504,-0.4676584,-0.4686054,-0.46393168,-0.45360678,-0.43769187,-0.41707265,-0.3955065,-0.380508,-0.3739404,-0.36740333,-0.34864753,-0.3111664,-0.26149708,-0.21836478,-0.2024498,-0.21744841,-0.24836189,-0.2755487,-0.285843,-0.2877369,-0.2839796,-0.2886533,-0.3111664,-0.35426813,-0.41426235,-0.474226,-0.5154644,-0.5332732,-0.529516,-0.51922166,-0.5145174,-0.5154644,-0.51922166,-0.51922166,-0.5164113,-0.513601,-0.51170707,-0.520138,-0.5370305,-0.56702757,-0.59326744,-0.58761626,-0.53140986,-0.39083284,-0.15650725,0.14056182,0.44047165,0.6410428,0.678524,0.530463,0.20150304,-0.19774556,-0.5623234,-0.81913155,-0.9259542,-0.9025247,-0.80880666,-0.7038474,-0.6148031,-0.5520291,-0.51170707,-0.48827755,-0.47798324,-0.46955234,-0.4676584,-0.46674198,-0.45922744,-0.45174342,-0.44236553,-0.43393457,-0.42736697,-0.4217463,-0.4161257,-0.40861118,-0.4020741,-0.3926962,-0.379561,-0.37113005,-0.3636461,-0.3589418,-0.35426813,-0.3467841,-0.33832264,-0.33083868,-0.32802832,-0.32146072,-0.31302977,-0.30084157,-0.2849266,-0.27273834,-0.25773978,-0.23993093,-0.22025877,-0.19869256,-0.17993677,-0.16307479,-0.14621294,-0.12464678,-0.09935391,-0.0693568,-0.03654939,-0.0046889186,0.024361253,0.049654126,0.07497752,0.09840703,0.122752905,0.14712942,0.16680169,0.18180013,0.19493532,0.20522964,0.21274424,0.21741784,0.21274424,0.20336628,0.18650436,0.16212785,0.1312145,0.09278643,0.045927405,-0.0074992776,-0.06749344,-0.13121432,-0.19493526,-0.25211918,-0.30084157,-0.34397382,-0.380508,-0.4161257,-0.44984955,-0.4807936,-0.5088968,-0.5304629,-0.5464084,-0.5548394,-0.55764973,-0.56046,-0.5623234,-0.56702757,-0.56702757,-0.5660807,-0.5641867,-0.56046,-0.5585661,-0.55670273,-0.5538924,-0.5520291,-0.55013514,-0.55013514,-0.5482718,-0.54451454,-0.54356754,-0.5417042,-0.5417042,-0.5426512,-0.5417042,-0.5398408,-0.5388939,-0.5388939,-0.5388939,-0.5370305,-0.5332732,-0.5276526,-0.522032,-0.5145174,-0.5088968,-0.5070334,-0.5070334,-0.5088968,-0.5098437,-0.5070334,-0.5051701,-0.5032761,-0.5042231,-0.50608647,-0.50608647,-0.5051701,-0.5051701,-0.50608647,-0.50798035,-0.5107907,-0.513601,-0.5154644,-0.5154644,-0.5154644,-0.5145174,-0.5154644,-0.5164113,-0.5145174,-0.51265407,-0.51265407,-0.51265407,-0.5145174,-0.5154644,-0.513601,-0.5107907,-0.5098437,-0.5107907,-0.5145174,-0.51827466,-0.5154644,-0.49954945,-0.47608936,-0.45360678,-0.43769187,-0.43393457,-0.43769187,-0.4283139,-0.3992638,-0.35521513,-0.30646217,-0.2755487,-0.27365476,-0.29708427,-0.32989168,-0.3533212,-0.3589418,-0.3505109,-0.34021652,-0.33926958,-0.36175215,-0.40769476,-0.46674198,-0.5238954,-0.5623234,-0.576375,-0.57356465,-0.5641867,-0.55670273,-0.5538924,-0.5557558,-0.5585661,-0.5623234,-0.56702757,-0.56702757,-0.5660807,-0.5698379,-0.58669984,-0.61574996,-0.62885463,-0.6026148,-0.5032761,-0.3074091,-0.035632968,0.26427686,0.5098438,0.6213708,0.5707545,0.32613444,-0.042170048,-0.42455667,-0.73757124,-0.91095567,-0.93908936,-0.86971724,-0.76665187,-0.67198694,-0.59794116,-0.5492188,-0.5229789,-0.5107907,-0.50608647,-0.5032761,-0.5004658,-0.4948452,-0.48641425,-0.47893023,-0.47236264,-0.46955234,-0.4676584,-0.46579504,-0.46298474,-0.45736408,-0.45265985,-0.44612277,-0.43955523,-0.4348815,-0.4283139,-0.4226933,-0.4161257,-0.40674782,-0.39364314,-0.3833183,-0.3739404,-0.36175215,-0.34864753,-0.33459592,-0.31959736,-0.3083561,-0.2989782,-0.28678995,-0.2689811,-0.24649853,-0.22306901,-0.19774556,-0.17339969,-0.14902323,-0.12464678,-0.09654361,-0.06749344,-0.035632968,-0.00374192,0.028118491,0.059031963,0.08997607,0.115268946,0.13402474,0.14712942,0.15650725,0.16493821,0.1724528,0.17898989,0.17712653,0.16493821,0.14431906,0.11245859,0.06935692,0.020604014,-0.03373909,-0.08902907,-0.14340264,-0.20055592,-0.25679284,-0.3139767,-0.3664564,-0.41050506,-0.4479862,-0.47798324,-0.50608647,-0.5276526,-0.5426512,-0.5510821,-0.5548394,-0.55764973,-0.5585661,-0.55764973,-0.5538924,-0.5510821,-0.5510821,-0.5529455,-0.5557558,-0.55764973,-0.5585661,-0.56137645,-0.5660807,-0.56794405,-0.56702757,-0.56137645,-0.5529455,-0.5464084,-0.54356754,-0.5426512,-0.5388939,-0.5323263,-0.5229789,-0.51827466,-0.5173277,-0.51827466,-0.520138,-0.5173277,-0.51265407,-0.5098437,-0.5107907,-0.5154644,-0.5229789,-0.5267056,-0.52578926,-0.520138,-0.5173277,-0.5164113,-0.51827466,-0.522032,-0.5229789,-0.52484226,-0.52484226,-0.52484226,-0.52484226,-0.52484226,-0.52484226,-0.5238954,-0.5238954,-0.522032,-0.5229789,-0.5276526,-0.5323263,-0.5351366,-0.53794694,-0.53794694,-0.53794694,-0.5342202,-0.5267056,-0.513601,-0.49298185,-0.4714157,-0.45265985,-0.43955523,-0.43393457,-0.4283139,-0.41145205,-0.3786446,-0.33364892,-0.2924106,-0.2708444,-0.27460176,-0.29708427,-0.32427108,-0.34302688,-0.3505109,-0.34959447,-0.34397382,-0.34489024,-0.35988873,-0.3955065,-0.4470392,-0.50235975,-0.5482718,-0.57075435,-0.5726483,-0.5641867,-0.5548394,-0.55013514,-0.5510821,-0.5520291,-0.5529455,-0.5529455,-0.5510821,-0.5520291,-0.5557558,-0.5698379,-0.6016984,-0.63166493,-0.6326119,-0.57075435,-0.41236842,-0.15464383,0.16399133,0.4854673,0.6981963,0.7460022,0.60075164,0.26803422,-0.13683498,-0.5032761,-0.74975944,-0.8434774,-0.8135109,-0.7319505,-0.65509444,-0.6007514,-0.5641867,-0.5407572,-0.52578926,-0.520138,-0.51827466,-0.5173277,-0.5154644,-0.5088968,-0.49954945,-0.48922455,-0.4807936,-0.47517294,-0.4714157,-0.46674198,-0.46112138,-0.45360678,-0.44517583,-0.43674493,-0.43112427,-0.42642003,-0.41988295,-0.41236842,-0.4020741,-0.3889389,-0.3786446,-0.37021363,-0.3664564,-0.3626991,-0.35613155,-0.34397382,-0.32521802,-0.30646217,-0.2886533,-0.27273834,-0.25679284,-0.23806757,-0.21555442,-0.1912086,-0.16777909,-0.14340264,-0.116215765,-0.08902907,-0.059978902,-0.029981792,-0.0018786192,0.027171493,0.0581156,0.08716571,0.11245859,0.12651014,0.13775146,0.14526606,0.15464401,0.16399133,0.16588521,0.15745437,0.1358881,0.10308063,0.0637362,0.017793655,-0.03187567,-0.086218715,-0.14340264,-0.19869256,-0.25211918,-0.29992515,-0.34583718,-0.3898859,-0.4320407,-0.47236264,-0.5051701,-0.5267056,-0.5398408,-0.5482718,-0.5557558,-0.56327033,-0.5660807,-0.5641867,-0.56046,-0.55670273,-0.55670273,-0.55764973,-0.55670273,-0.5538924,-0.5492188,-0.54356754,-0.5407572,-0.5388939,-0.53794694,-0.5370305,-0.5342202,-0.5304629,-0.5267056,-0.5238954,-0.52484226,-0.5238954,-0.5238954,-0.5229789,-0.5229789,-0.52578926,-0.5285996,-0.5323263,-0.5332732,-0.5323263,-0.5332732,-0.5342202,-0.5370305,-0.5388939,-0.5388939,-0.5370305,-0.5332732,-0.529516,-0.5267056,-0.5238954,-0.521085,-0.5164113,-0.5107907,-0.5070334,-0.50608647,-0.50798035,-0.5098437,-0.5088968,-0.5051701,-0.50235975,-0.5051701,-0.5098437,-0.5164113,-0.520138,-0.521085,-0.522032,-0.520138,-0.51827466,-0.5164113,-0.5164113,-0.5164113,-0.5164113,-0.5154644,-0.513601,-0.513601,-0.5164113,-0.5164113,-0.51265407,-0.5051701,-0.49954945,-0.4967085,-0.4948452,-0.49298185,-0.48922455,-0.48546726,-0.4873612,-0.4901715,-0.49203485,-0.48827755,-0.474226,-0.45360678,-0.43017733,-0.40955812,-0.39831686,-0.3955065,-0.3889389,-0.36456245,-0.32616496,-0.2839796,-0.25587648,-0.25587648,-0.27930593,-0.3083561,-0.32897526,-0.33459592,-0.32802832,-0.31584007,-0.3111664,-0.32335466,-0.35613155,-0.40769476,-0.46393168,-0.5107907,-0.5370305,-0.5417042,-0.5351366,-0.52578926,-0.521085,-0.521085,-0.5267056,-0.5332732,-0.5360836,-0.53794694,-0.5342202,-0.5323263,-0.5407572,-0.5641867,-0.59888804,-0.6138866,-0.576375,-0.45360678,-0.21931177,0.09651315,0.45079648,0.73662424,0.8622333,0.80223906,0.530463,0.13307774,-0.2624135,-0.5623234,-0.7141417,-0.73103416,-0.67479724,-0.6129397,-0.57356465,-0.5473249,-0.5285996,-0.5145174,-0.50608647,-0.5042231,-0.50141275,-0.49860245,-0.4948452,-0.4901715,-0.48641425,-0.48265696,-0.47608936,-0.46674198,-0.45641714,-0.44893312,-0.44331253,-0.43955523,-0.43674493,-0.43298763,-0.42642003,-0.41798908,-0.40861118,-0.3992638,-0.3926962,-0.3861286,-0.3786446,-0.36831975,-0.3570785,-0.34489024,-0.33459592,-0.32051378,-0.3055458,-0.2914636,-0.27930593,-0.26992804,-0.25398254,-0.23336333,-0.20807046,-0.1808837,-0.15745413,-0.13402462,-0.10778481,-0.07592434,-0.042170048,-0.010309577,0.018740535,0.043117046,0.06559956,0.08716571,0.10964823,0.13213086,0.14993966,0.16307485,0.16869557,0.16869557,0.16588521,0.15556037,0.14337218,0.1236999,0.09559667,0.059031963,0.012173057,-0.03935975,-0.09278631,-0.14715981,-0.20055592,-0.25492948,-0.3074091,-0.3533212,-0.39364314,-0.42360973,-0.44984955,-0.47327906,-0.4948452,-0.51265407,-0.522032,-0.52578926,-0.52484226,-0.5238954,-0.529516,-0.5360836,-0.5398408,-0.5388939,-0.5332732,-0.5276526,-0.5238954,-0.521085,-0.5173277,-0.51265407,-0.5098437,-0.50798035,-0.50798035,-0.5070334,-0.50608647,-0.5051701,-0.5042231,-0.5032761,-0.5032761,-0.50235975,-0.5070334,-0.51170707,-0.5164113,-0.51827466,-0.5164113,-0.5154644,-0.51170707,-0.5098437,-0.50798035,-0.5070334,-0.50798035,-0.51170707,-0.5145174,-0.5154644,-0.51265407,-0.50798035,-0.5032761,-0.5004658,-0.49860245,-0.4976555,-0.4967085,-0.4938982,-0.49203485,-0.4910879,-0.49298185,-0.4967085,-0.49860245,-0.5004658,-0.5004658,-0.5004658,-0.50141275,-0.50235975,-0.5042231,-0.5032761,-0.50141275,-0.49860245,-0.4938982,-0.49203485,-0.49298185,-0.4948452,-0.4967085,-0.4967085,-0.49579215,-0.4938982,-0.49298185,-0.49203485,-0.4901715,-0.4901715,-0.4901715,-0.4938982,-0.4976555,-0.4976555,-0.4967085,-0.4938982,-0.4910879,-0.48922455,-0.48641425,-0.48546726,-0.48455083,-0.48265696,-0.48174053,-0.4807936,-0.47984666,-0.47798324,-0.4770363,-0.47608936,-0.474226,-0.47236264,-0.4676584,-0.46112138,-0.45736408,-0.45550072,-0.45550072,-0.45736408,-0.45831102,-0.45922744,-0.46017438,-0.4620378,-0.46112138,-0.45641714,-0.4479862,-0.42923033,-0.40674782,-0.38518167,-0.37488735,-0.373024,-0.3655094,-0.33926958,-0.2905472,-0.23712063,-0.20431322,-0.20336622,-0.22774273,-0.26055014,-0.28303266,-0.28960025,-0.28303266,-0.27460176,-0.27460176,-0.29335755,-0.33551234,-0.39364314,-0.45455378,-0.50235975,-0.5304629,-0.5417042,-0.5398408,-0.5370305,-0.5342202,-0.5360836,-0.5388939,-0.5388939,-0.5360836,-0.529516,-0.5285996,-0.54451454,-0.5782689,-0.6138866,-0.6185603,-0.56046,-0.40580088,-0.14059228,0.20055604,0.5651339,0.82942593,0.9184396,0.8012923,0.474226,0.050601006,-0.34489024,-0.6251279,-0.74975944,-0.7450857,-0.67855453,-0.6185603,-0.58013225,-0.5548394,-0.5388939,-0.5285996,-0.52578926,-0.5276526,-0.5285996,-0.52484226,-0.5173277,-0.5098437,-0.5032761,-0.4976555,-0.49298185,-0.48455083,-0.4770363,-0.4704687,-0.46484804,-0.45736408,-0.44893312,-0.43955523,-0.43298763,-0.42736697,-0.4217463,-0.41331542,-0.40393746,-0.3926962,-0.38237137,-0.3739404,-0.36175215,-0.3505109,-0.33740628,-0.32427108,-0.31302977,-0.29992515,-0.2821163,-0.2624135,-0.23993093,-0.21931177,-0.20055592,-0.18369395,-0.16402179,-0.13683498,-0.10683793,-0.0721671,-0.040306628,-0.012203515,0.014983296,0.03841281,0.061842322,0.081545115,0.09932351,0.117132306,0.13402474,0.14993966,0.16118097,0.16399133,0.16026461,0.15183365,0.13964534,0.119942665,0.09370279,0.0581156,0.014066935,-0.03373909,-0.084355295,-0.1386984,-0.19212496,-0.24555159,-0.2952209,-0.34113294,-0.3833183,-0.42079937,-0.45360678,-0.47984666,-0.5032761,-0.522032,-0.5370305,-0.5492188,-0.55670273,-0.56137645,-0.56327033,-0.56137645,-0.56046,-0.55764973,-0.55670273,-0.5557558,-0.5548394,-0.5529455,-0.5482718,-0.5417042,-0.5360836,-0.53140986,-0.529516,-0.5304629,-0.5342202,-0.5370305,-0.5407572,-0.54451454,-0.54356754,-0.5426512,-0.5417042,-0.5398408,-0.5370305,-0.5332732,-0.53140986,-0.53140986,-0.5323263,-0.5351366,-0.5342202,-0.5323263,-0.5285996,-0.5238954,-0.522032,-0.521085,-0.521085,-0.522032,-0.520138,-0.5173277,-0.513601,-0.51170707,-0.513601,-0.51827466,-0.5229789,-0.5238954,-0.5238954,-0.5238954,-0.5238954,-0.5238954,-0.522032,-0.520138,-0.5173277,-0.5154644,-0.5164113,-0.5164113,-0.51922166,-0.5229789,-0.5238954,-0.522032,-0.5173277,-0.51265407,-0.51170707,-0.513601,-0.51827466,-0.51922166,-0.5164113,-0.513601,-0.5088968,-0.50608647,-0.5042231,-0.50141275,-0.4967085,-0.49203485,-0.49298185,-0.49579215,-0.5004658,-0.50141275,-0.4976555,-0.49298185,-0.48641425,-0.4836039,-0.48265696,-0.4807936,-0.48174053,-0.4807936,-0.48174053,-0.48265696,-0.48174053,-0.4807936,-0.47798324,-0.47517294,-0.47327906,-0.4704687,-0.4686054,-0.46674198,-0.46484804,-0.46484804,-0.46017438,-0.4479862,-0.42642003,-0.40112716,-0.380508,-0.37021363,-0.3664564,-0.3533212,-0.32335466,-0.27741206,-0.22868961,-0.1996395,-0.20150292,-0.22679573,-0.25773978,-0.2755487,-0.2821163,-0.27741206,-0.27365476,-0.28303266,-0.30927247,-0.35521513,-0.41331542,-0.46955234,-0.5088968,-0.5267056,-0.5285996,-0.5238954,-0.51922166,-0.51827466,-0.520138,-0.521085,-0.51922166,-0.5164113,-0.5107907,-0.5088968,-0.5238954,-0.5557558,-0.5885632,-0.58951014,-0.5238954,-0.3570785,-0.079681635,0.26708722,0.6185603,0.85096145,0.89971447,0.73757136,0.3776977,-0.054358244,-0.43955523,-0.7000901,-0.804133,-0.78443027,-0.70852107,-0.63166493,-0.5726483,-0.529516,-0.50141275,-0.48827755,-0.48265696,-0.48265696,-0.4807936,-0.4770363,-0.47236264,-0.46484804,-0.45736408,-0.4470392,-0.43860823,-0.4320407,-0.42642003,-0.42360973,-0.418936,-0.41236842,-0.40488446,-0.39831686,-0.39174926,-0.38426524,-0.3767507,-0.3692667,-0.36175215,-0.35426813,-0.34770054,-0.34021652,-0.33459592,-0.32802832,-0.31865042,-0.3045988,-0.28678995,-0.2652238,-0.24368823,-0.22493243,-0.20431322,-0.18464094,-0.16212791,-0.13588804,-0.10778481,-0.07778776,-0.049684525,-0.021550894,0.004688978,0.029981852,0.054358244,0.07870424,0.10497463,0.1312145,0.1536969,0.1724528,0.18369412,0.19026172,0.19588232,0.19869268,0.20241928,0.20055604,0.18931472,0.16680169,0.13402474,0.09464967,0.051547885,0.0037419796,-0.047790706,-0.10311115,-0.15840113,-0.21088082,-0.25960314,-0.3055458,-0.3505109,-0.3889389,-0.4255036,-0.45550072,-0.47893023,-0.4967085,-0.5070334,-0.513601,-0.51827466,-0.5238954,-0.5304629,-0.5370305,-0.5417042,-0.5454615,-0.5454615,-0.54356754,-0.5388939,-0.5332732,-0.53140986,-0.53140986,-0.5304629,-0.52578926,-0.51922166,-0.51170707,-0.5042231,-0.50235975,-0.49954945,-0.4976555,-0.4976555,-0.4967085,-0.4967085,-0.4976555,-0.49860245,-0.50141275,-0.5042231,-0.5051701,-0.5042231,-0.50235975,-0.5032761,-0.50235975,-0.5032761,-0.50235975,-0.49954945,-0.4938982,-0.48827755,-0.4873612,-0.48546726,-0.4836039,-0.48546726,-0.48546726,-0.48827755,-0.4901715,-0.49203485,-0.4901715,-0.48922455,-0.48922455,-0.48827755,-0.4901715,-0.49203485,-0.49298185,-0.4948452,-0.4967085,-0.49860245,-0.50141275,-0.50141275,-0.49954945,-0.4938982,-0.48827755,-0.48455083,-0.4836039,-0.48546726,-0.48546726,-0.48455083,-0.48546726,-0.48455083,-0.4836039,-0.47984666,-0.47517294,-0.4704687,-0.4686054,-0.4714157,-0.47608936,-0.47798324,-0.47893023,-0.47608936,-0.46955234,-0.45831102,-0.44517583,-0.42923033,-0.41426235,-0.3992638,-0.38426524,-0.373024,-0.35802543,-0.33178562,-0.29427397,-0.25117224,-0.22493243,-0.22212207,-0.24368823,-0.2717914,-0.2914636,-0.2989782,-0.29992515,-0.30084157,-0.31208283,-0.34207994,-0.3926962,-0.45455378,-0.50798035,-0.5388939,-0.5426512,-0.5351366,-0.529516,-0.5304629,-0.5388939,-0.5426512,-0.5454615,-0.5464084,-0.54451454,-0.5407572,-0.5342202,-0.5332732,-0.5482718,-0.58013225,-0.60356176,-0.5885632,-0.5004658,-0.3074091,-0.02906537,0.29427397,0.57823837,0.72070944,0.6860386,0.443282,0.052464485,-0.3636461,-0.70760465,-0.905335,-0.94938374,-0.89033645,-0.79099786,-0.6991432,-0.6251279,-0.5698379,-0.5332732,-0.5107907,-0.5004658,-0.49203485,-0.48641425,-0.48265696,-0.4770363,-0.47236264,-0.46674198,-0.46112138,-0.45641714,-0.44984955,-0.4442289,-0.43860823,-0.42923033,-0.418936,-0.40955812,-0.4020741,-0.39736986,-0.39364314,-0.3889389,-0.379561,-0.3692667,-0.3589418,-0.3505109,-0.34583718,-0.33740628,-0.32708138,-0.31208283,-0.29708427,-0.2811693,-0.26803416,-0.25492948,-0.23617369,-0.21555442,-0.1912086,-0.16307479,-0.13588804,-0.11059517,-0.086218715,-0.06092584,-0.03187567,-0.0018786192,0.029034972,0.059031963,0.085271835,0.10964823,0.13213086,0.1536969,0.16964257,0.17807353,0.18369412,0.18180013,0.17617953,0.16588521,0.15464401,0.13964534,0.11432195,0.07870424,0.029034972,-0.03282267,-0.09840691,-0.16026449,-0.21650141,-0.26711774,-0.31678706,-0.36456245,-0.40674782,-0.4470392,-0.47984666,-0.50798035,-0.5304629,-0.5473249,-0.55764973,-0.5623234,-0.5660807,-0.57075435,-0.5754586,-0.58107924,-0.58575284,-0.58951014,-0.5885632,-0.5885632,-0.58669984,-0.58294255,-0.57918525,-0.57356465,-0.56702757,-0.5623234,-0.55764973,-0.5548394,-0.5557558,-0.55670273,-0.5585661,-0.5585661,-0.5557558,-0.55013514,-0.5492188,-0.5492188,-0.5510821,-0.5492188,-0.5417042,-0.5323263,-0.52484226,-0.52484226,-0.5285996,-0.5360836,-0.5407572,-0.54451454,-0.5464084,-0.5454615,-0.5426512,-0.5426512,-0.5426512,-0.5454615,-0.5510821,-0.5548394,-0.5585661,-0.55764973,-0.5538924,-0.5492188,-0.54451454,-0.5426512,-0.5398408,-0.5388939,-0.5407572,-0.5407572,-0.54356754,-0.54356754,-0.5426512,-0.54356754,-0.54451454,-0.5454615,-0.54356754,-0.5323263,-0.5154644,-0.4948452,-0.474226,-0.46298474,-0.4620378,-0.46579504,-0.45360678,-0.4217463,-0.36831975,-0.31302977,-0.27930593,-0.2811693,-0.31021947,-0.34489024,-0.3692667,-0.3739404,-0.37021363,-0.3664564,-0.3758343,-0.40393746,-0.4470392,-0.49954945,-0.5482718,-0.57918525,-0.59326744,-0.59232044,-0.58388954,-0.58107924,-0.58013225,-0.58013225,-0.58107924,-0.57918525,-0.5754586,-0.568891,-0.5660807,-0.5660807,-0.5745116,-0.6016984,-0.6307485,-0.63917947,-0.59699416,-0.4676584,-0.23617369,0.059978962,0.36737287,0.5838591,0.64480007,0.5238954,0.21650147,-0.17993677,-0.56046,-0.83880377,-0.9634353,-0.9503307,-0.85755956,-0.7507064,-0.6597987,-0.59418386,-0.5548394,-0.5332732,-0.5229789,-0.5173277,-0.5154644,-0.51265407,-0.5098437,-0.50235975,-0.4976555,-0.4967085,-0.4948452,-0.49298185,-0.48455083,-0.47327906,-0.46484804,-0.45831102,-0.45736408,-0.45641714,-0.45079648,-0.44331253,-0.43112427,-0.41707265,-0.40861118,-0.40112716,-0.3955065,-0.39083284,-0.3833183,-0.3739404,-0.36175215,-0.34864753,-0.33459592,-0.3177035,-0.29992515,-0.278359,-0.25587648,-0.23149997,-0.20807046,-0.18555737,-0.16307479,-0.13778198,-0.10964823,-0.080598116,-0.049684525,-0.017824113,0.012173057,0.03935969,0.0627892,0.07965124,0.09370279,0.10402763,0.11151171,0.118079185,0.12183654,0.120889544,0.115268946,0.10402763,0.081545115,0.047790766,0.007499218,-0.044063985,-0.09935391,-0.15650725,-0.21744841,-0.2755487,-0.33083868,-0.379561,-0.42455667,-0.46674198,-0.50235975,-0.5360836,-0.56137645,-0.58107924,-0.5951308,-0.6016984,-0.60731906,-0.61012936,-0.60918236,-0.61012936,-0.61012936,-0.6119927,-0.61669695,-0.6185603,-0.61574996,-0.60731906,-0.59794116,-0.5904571,-0.5885632,-0.58951014,-0.59137356,-0.59232044,-0.5904571,-0.58761626,-0.58575284,-0.58294255,-0.58294255,-0.58388954,-0.58480597,-0.58388954,-0.5773219,-0.56794405,-0.5595131,-0.55670273,-0.56046,-0.5660807,-0.56794405,-0.5641867,-0.5595131,-0.55764973,-0.55670273,-0.5557558,-0.5538924,-0.5510821,-0.5473249,-0.5417042,-0.5388939,-0.5360836,-0.5360836,-0.5370305,-0.5398408,-0.5407572,-0.5417042,-0.5417042,-0.54356754,-0.54451454,-0.5464084,-0.5473249,-0.54356754,-0.53140986,-0.513601,-0.4938982,-0.47608936,-0.46674198,-0.46393168,-0.45079648,-0.4226933,-0.3786446,-0.32989168,-0.30084157,-0.30084157,-0.32521802,-0.35613155,-0.37769765,-0.38518167,-0.38426524,-0.3833183,-0.39174926,-0.4161257,-0.45455378,-0.5042231,-0.5538924,-0.59137356,-0.6119927,-0.6129397,-0.6054251,-0.59607774,-0.5904571,-0.59137356,-0.59607774,-0.59888804,-0.60356176,-0.60356176,-0.60356176,-0.60356176,-0.60637206,-0.623234,-0.6532311,-0.67103994,-0.6494738,-0.55764973,-0.36740333,-0.09092295,0.22398555,0.50046587,0.6485269,0.62790775,0.40674782,0.03654945,-0.3626991,-0.6982267,-0.8950407,-0.9400058,-0.8819055,-0.78632414,-0.6991432,-0.6326119,-0.58575284,-0.5595131,-0.5482718,-0.5454615,-0.5492188,-0.5510821,-0.5492188,-0.5417042,-0.5304629,-0.520138,-0.5107907,-0.5032761,-0.4948452,-0.48641425,-0.47893023,-0.4714157,-0.4686054,-0.46484804,-0.4620378,-0.45831102,-0.45360678,-0.44893312,-0.44050217,-0.42923033,-0.418936,-0.40769476,-0.39736986,-0.3870756,-0.373024,-0.35988873,-0.34770054,-0.33270198,-0.31678706,-0.2980312,-0.27741206,-0.25773978,-0.23898399,-0.21369112,-0.18555737,-0.15559083,-0.121836424,-0.09183937,-0.06187284,-0.03187567,-0.006552279,0.018740535,0.042170048,0.06559956,0.08716571,0.10402763,0.116215825,0.1236999,0.1293205,0.13402474,0.13307774,0.122752905,0.09746003,0.059031963,0.013119936,-0.040306628,-0.09559661,-0.15278047,-0.21182775,-0.2689811,-0.32146072,-0.36831975,-0.41050506,-0.44893312,-0.48265696,-0.5107907,-0.5342202,-0.5529455,-0.56702757,-0.5773219,-0.58388954,-0.5885632,-0.5951308,-0.6026148,-0.60731906,-0.6082354,-0.60356176,-0.5998045,-0.59699416,-0.59418386,-0.59326744,-0.59232044,-0.59137356,-0.5904571,-0.58761626,-0.58480597,-0.58107924,-0.57918525,-0.576375,-0.5745116,-0.5717013,-0.56794405,-0.5660807,-0.56327033,-0.56137645,-0.56046,-0.5595131,-0.5585661,-0.5585661,-0.55764973,-0.55764973,-0.55670273,-0.5557558,-0.5529455,-0.5510821,-0.5510821,-0.5529455,-0.5548394,-0.5557558,-0.5557558,-0.55670273,-0.5557558,-0.55670273,-0.55764973,-0.5557558,-0.5538924,-0.5492188,-0.5473249,-0.5492188,-0.5520291,-0.55764973,-0.56327033,-0.5651337,-0.5651337,-0.5623234,-0.56046,-0.5595131,-0.55764973,-0.55764973,-0.5529455,-0.5473249,-0.5388939,-0.529516,-0.5154644,-0.49954945,-0.48546726,-0.474226,-0.46674198,-0.45360678,-0.42923033,-0.39736986,-0.36456245,-0.34302688,-0.33926958,-0.34770054,-0.36175215,-0.372077,-0.3767507,-0.37488735,-0.37488735,-0.380508,-0.4020741,-0.4414186,-0.4948452,-0.5473249,-0.58669984,-0.60637206,-0.60731906,-0.6007514,-0.59418386,-0.5904571,-0.58951014,-0.5904571,-0.59137356,-0.5904571,-0.5904571,-0.58761626,-0.58480597,-0.58669984,-0.5998045,-0.6298016,-0.663556,-0.6729033,-0.623234,-0.47984666,-0.22868961,0.09840703,0.44609225,0.7000903,0.7881876,0.68133426,0.37488735,-0.03187567,-0.41798908,-0.6935225,-0.8181846,-0.80975366,-0.73757124,-0.670093,-0.6269913,-0.6016984,-0.58480597,-0.57356465,-0.5651337,-0.5595131,-0.5538924,-0.5482718,-0.5454615,-0.5388939,-0.53140986,-0.5229789,-0.5145174,-0.5070334,-0.5004658,-0.4948452,-0.48922455,-0.48455083,-0.4807936,-0.47608936,-0.4704687,-0.46579504,-0.4620378,-0.45736408,-0.45265985,-0.4442289,-0.43579793,-0.42736697,-0.41798908,-0.40580088,-0.39364314,-0.379561,-0.3636461,-0.34864753,-0.32897526,-0.30927247,-0.2914636,-0.2717914,-0.25022525,-0.22774273,-0.20150292,-0.17431611,-0.14434963,-0.111542165,-0.07778776,-0.044980407,-0.016877115,0.007499218,0.029034972,0.050601006,0.07216716,0.090892434,0.10497463,0.115268946,0.122752905,0.12745714,0.12651014,0.115268946,0.09278643,0.0581156,0.014983296,-0.03373909,-0.083408415,-0.13683498,-0.1902616,-0.24179429,-0.29335755,-0.34207994,-0.3898859,-0.43393457,-0.4714157,-0.50141275,-0.52484226,-0.5426512,-0.5557558,-0.5651337,-0.5717013,-0.576375,-0.58107924,-0.58388954,-0.58480597,-0.58480597,-0.5819956,-0.576375,-0.5698379,-0.56327033,-0.56137645,-0.56137645,-0.56137645,-0.5585661,-0.5520291,-0.5464084,-0.5426512,-0.5417042,-0.5398408,-0.53794694,-0.5370305,-0.5370305,-0.5398408,-0.5426512,-0.5454615,-0.5473249,-0.5473249,-0.5464084,-0.54356754,-0.5398408,-0.53794694,-0.5370305,-0.53794694,-0.5388939,-0.5398408,-0.5398408,-0.5370305,-0.5332732,-0.5276526,-0.522032,-0.520138,-0.5229789,-0.5267056,-0.5276526,-0.52578926,-0.522032,-0.51827466,-0.5173277,-0.5173277,-0.5164113,-0.5145174,-0.51170707,-0.51170707,-0.51265407,-0.5154644,-0.51827466,-0.520138,-0.520138,-0.51922166,-0.5173277,-0.5164113,-0.5164113,-0.51827466,-0.51922166,-0.520138,-0.521085,-0.521085,-0.522032,-0.520138,-0.51922166,-0.5164113,-0.51265407,-0.51170707,-0.5098437,-0.5088968,-0.50798035,-0.50608647,-0.5042231,-0.50235975,-0.49954945,-0.4967085,-0.4948452,-0.4938982,-0.49203485,-0.4901715,-0.4873612,-0.48546726,-0.48546726,-0.48546726,-0.48546726,-0.4836039,-0.48265696,-0.48174053,-0.47798324,-0.47327906,-0.4686054,-0.46393168,-0.46298474,-0.46298474,-0.46112138,-0.45922744,-0.45455378,-0.45174342,-0.44984955,-0.44612277,-0.43769187,-0.42360973,-0.40393746,-0.38237137,-0.3664564,-0.35802543,-0.35145783,-0.33364892,-0.2989782,-0.25117224,-0.20993382,-0.19307196,-0.20807046,-0.24087787,-0.27365476,-0.28960025,-0.2886533,-0.2811693,-0.27741206,-0.28678995,-0.3139767,-0.3570785,-0.41236842,-0.46484804,-0.5042231,-0.5229789,-0.5238954,-0.51827466,-0.5107907,-0.5070334,-0.50798035,-0.51170707,-0.5164113,-0.520138,-0.5238954,-0.529516,-0.5482718,-0.58294255,-0.61012936,-0.5998045,-0.521085,-0.33740628,-0.049684525,0.30740917,0.66352546,0.88938963,0.9334382,0.75538003,0.38704515,-0.044980407,-0.4226933,-0.66541934,-0.74975944,-0.71695197,-0.64293677,-0.58575284,-0.5520291,-0.5342202,-0.521085,-0.513601,-0.5107907,-0.5088968,-0.5070334,-0.50141275,-0.4948452,-0.48827755,-0.4807936,-0.474226,-0.46484804,-0.45360678,-0.4442289,-0.43860823,-0.43674493,-0.4348815,-0.4320407,-0.42736697,-0.4217463,-0.4161257,-0.40955812,-0.40299052,-0.3955065,-0.3861286,-0.37769765,-0.36740333,-0.35613155,-0.34583718,-0.33551234,-0.32335466,-0.31021947,-0.29427397,-0.27646506,-0.25773978,-0.23993093,-0.21931177,-0.19493526,-0.16869545,-0.14059228,-0.113405466,-0.086218715,-0.05906248,-0.03187567,-0.0028254986,0.022497892,0.044980407,0.06559956,0.084355354,0.10121727,0.115268946,0.12745714,0.1368351,0.14431906,0.1490233,0.1490233,0.14431906,0.13213086,0.113405585,0.08716571,0.049654126,0.009362698,-0.03654939,-0.08530229,-0.13497162,-0.1865043,-0.23712063,-0.28678995,-0.33364892,-0.3767507,-0.41707265,-0.44893312,-0.47798324,-0.5032761,-0.522032,-0.5342202,-0.5370305,-0.5360836,-0.5342202,-0.5351366,-0.53794694,-0.53794694,-0.5351366,-0.5304629,-0.5229789,-0.5164113,-0.51265407,-0.5107907,-0.5107907,-0.51265407,-0.5154644,-0.5145174,-0.51265407,-0.5088968,-0.5051701,-0.5032761,-0.50235975,-0.5032761,-0.5032761,-0.50235975,-0.50141275,-0.49860245,-0.4948452,-0.4901715,-0.48546726,-0.48455083,-0.48641425,-0.49203485,-0.4948452,-0.4948452,-0.4938982,-0.4910879,-0.48922455,-0.48827755,-0.4836039,-0.4770363,-0.4704687,-0.4686054,-0.4676584,-0.4704687,-0.474226,-0.47327906,-0.47327906,-0.47327906,-0.47327906,-0.47517294,-0.47327906,-0.4686054,-0.46393168,-0.4620378,-0.46484804,-0.4686054,-0.4714157,-0.46955234,-0.4676584,-0.4676584,-0.46484804,-0.46393168,-0.46017438,-0.45641714,-0.45455378,-0.45174342,-0.45174342,-0.45174342,-0.45265985,-0.45550072,-0.45736408,-0.45831102,-0.45641714,-0.45265985,-0.45079648,-0.4470392,-0.44517583,-0.44331253,-0.4414186,-0.43860823,-0.43674493,-0.43579793,-0.43579793,-0.43860823,-0.44236553,-0.44517583,-0.4479862,-0.44893312,-0.44984955,-0.44984955,-0.44893312,-0.4479862,-0.44612277,-0.44517583,-0.4470392,-0.4479862,-0.45079648,-0.45079648,-0.44893312,-0.44517583,-0.44050217,-0.43955523,-0.43955523,-0.43579793,-0.42736697,-0.40674782,-0.38237137,-0.36083573,-0.34489024,-0.34113294,-0.33459592,-0.31489313,-0.27930593,-0.23055303,-0.19212496,-0.17712641,-0.1902616,-0.21836478,-0.24179429,-0.25117224,-0.24460459,-0.23712063,-0.23431027,-0.24836189,-0.28678995,-0.34207994,-0.40580088,-0.45736408,-0.48641425,-0.49203485,-0.4807936,-0.4704687,-0.4676584,-0.46955234,-0.47608936,-0.48174053,-0.4836039,-0.48174053,-0.48174053,-0.4901715,-0.513601,-0.5538924,-0.5773219,-0.5529455,-0.44517583,-0.22117507,0.09559667,0.46017444,0.7759992,0.92781746,0.88657916,0.6241809,0.21085036,-0.21836478,-0.5623234,-0.7544637,-0.7938081,-0.73103416,-0.64293677,-0.5717013,-0.521085,-0.48827755,-0.4686054,-0.4620378,-0.46017438,-0.45922744,-0.45736408,-0.45079648,-0.4442289,-0.43860823,-0.4320407,-0.42360973,-0.41426235,-0.40674782,-0.40112716,-0.3992638,-0.3992638,-0.3955065,-0.3870756,-0.3767507,-0.36456245,-0.35426813,-0.34397382,-0.33364892,-0.32521802,-0.31678706,-0.3083561,-0.29708427,-0.28678995,-0.27930593,-0.2689811,-0.25868678,-0.24460459,-0.22679573,-0.20807046,-0.1883983,-0.17058945,-0.1508866,-0.13121432,-0.11245859,-0.09183937,-0.06840986,-0.041253626,-0.011256516,0.020604014,0.052464485,0.07870424,0.10121727,0.120889544,0.13869834,0.15556037,0.16964257,0.17898989,0.18369412,0.18650436,0.18742085,0.18650436,0.17993677,0.16307485,0.1358881,0.10216439,0.0637362,0.019687533,-0.03092879,-0.08530229,-0.1415087,-0.19682914,-0.24555159,-0.285843,-0.32335466,-0.35988873,-0.3955065,-0.4283139,-0.45831102,-0.47984666,-0.49298185,-0.49954945,-0.50235975,-0.5032761,-0.5051701,-0.50798035,-0.51170707,-0.51265407,-0.5107907,-0.5070334,-0.50235975,-0.5004658,-0.49860245,-0.4976555,-0.4967085,-0.49298185,-0.4910879,-0.4873612,-0.4836039,-0.48174053,-0.47984666,-0.4807936,-0.4836039,-0.48455083,-0.48265696,-0.4807936,-0.47798324,-0.47893023,-0.48174053,-0.48641425,-0.48827755,-0.48455083,-0.47798324,-0.474226,-0.4770363,-0.47984666,-0.4836039,-0.48546726,-0.48546726,-0.48827755,-0.48827755,-0.4873612,-0.48455083,-0.48455083,-0.48546726,-0.48641425,-0.4836039,-0.47798324,-0.47236264,-0.4704687,-0.4704687,-0.47327906,-0.47798324,-0.48265696,-0.4873612,-0.48827755,-0.48827755,-0.4873612,-0.48641425,-0.48546726,-0.4836039,-0.48174053,-0.47798324,-0.47798324,-0.47798324,-0.47798324,-0.47893023,-0.47984666,-0.48174053,-0.48265696,-0.47984666,-0.4770363,-0.47327906,-0.47236264,-0.47327906,-0.47236264,-0.474226,-0.47608936,-0.4807936,-0.48546726,-0.4873612,-0.4836039,-0.47798324,-0.474226,-0.47236264,-0.46955234,-0.46017438,-0.44236553,-0.41988295,-0.3992638,-0.3861286,-0.379561,-0.3664564,-0.33926958,-0.29708427,-0.25022525,-0.22212207,-0.22212207,-0.24741489,-0.2811693,-0.3045988,-0.3083561,-0.30084157,-0.29427397,-0.29708427,-0.3177035,-0.35988873,-0.41426235,-0.4714157,-0.51265407,-0.53140986,-0.5332732,-0.52578926,-0.521085,-0.521085,-0.5229789,-0.5229789,-0.5229789,-0.5229789,-0.522032,-0.52484226,-0.5351366,-0.5595131,-0.58388954,-0.58480597,-0.529516,-0.3767507,-0.121836424,0.19588232,0.50608647,0.6981963,0.7169522,0.5407573,0.18650436,-0.22960609,-0.60356176,-0.8566126,-0.9512776,-0.9193866,-0.8247522,-0.7197623,-0.6307485,-0.56046,-0.51922166,-0.5032761,-0.50235975,-0.5051701,-0.50141275,-0.4901715,-0.47517294,-0.4620378,-0.45360678,-0.44612277,-0.4414186,-0.43860823,-0.4320407,-0.42455667,-0.41331542,-0.4020741,-0.39645344,-0.39364314,-0.39174926,-0.38518167,-0.3758343,-0.3655094,-0.3589418,-0.35426813,-0.34959447,-0.34397382,-0.33459592,-0.32146072,-0.3083561,-0.29335755,-0.278359,-0.26430738,-0.24649853,-0.22587931,-0.20336622,-0.1780734,-0.1518336,-0.12935096,-0.10964823,-0.08716565,-0.06092584,-0.03282267,-0.0018786192,0.025308132,0.047790766,0.06746304,0.08902907,0.11245859,0.13402474,0.15650725,0.17336917,0.18461049,0.18931472,0.18461049,0.17617953,0.16026461,0.13964534,0.116215825,0.086218715,0.049654126,0.0027951002,-0.054358244,-0.119026124,-0.18464094,-0.24555159,-0.3017885,-0.35240477,-0.39645344,-0.4348815,-0.46393168,-0.48641425,-0.50798035,-0.52484226,-0.5388939,-0.5464084,-0.55013514,-0.5557558,-0.56327033,-0.5717013,-0.5745116,-0.5717013,-0.568891,-0.56702757,-0.5726483,-0.5782689,-0.5819956,-0.58013225,-0.5717013,-0.5623234,-0.5520291,-0.5464084,-0.5464084,-0.5482718,-0.55013514,-0.5482718,-0.54356754,-0.5370305,-0.5323263,-0.5323263,-0.5323263,-0.53140986,-0.529516,-0.52484226,-0.51827466,-0.51265407,-0.5070334,-0.5070334,-0.5098437,-0.5145174,-0.5154644,-0.5145174,-0.51265407,-0.51265407,-0.513601,-0.51170707,-0.51170707,-0.5107907,-0.5098437,-0.51265407,-0.51265407,-0.51265407,-0.5145174,-0.5173277,-0.520138,-0.521085,-0.522032,-0.5238954,-0.5229789,-0.5229789,-0.51922166,-0.51827466,-0.51827466,-0.5173277,-0.51827466,-0.5173277,-0.5154644,-0.5107907,-0.50235975,-0.48546726,-0.46579504,-0.44612277,-0.43017733,-0.42455667,-0.4226933,-0.40769476,-0.3758343,-0.32897526,-0.2839796,-0.26430738,-0.27273834,-0.29992515,-0.32802832,-0.34207994,-0.34397382,-0.33740628,-0.33364892,-0.34397382,-0.37488735,-0.4283139,-0.48641425,-0.53794694,-0.57075435,-0.57918525,-0.5754586,-0.5726483,-0.57075435,-0.57356465,-0.5773219,-0.576375,-0.5717013,-0.5651337,-0.5595131,-0.5585661,-0.5717013,-0.59888804,-0.63166493,-0.6438532,-0.6054251,-0.48827755,-0.2717914,0.014983296,0.32146084,0.55670273,0.64480007,0.5576192,0.27179146,-0.12373036,-0.5145174,-0.81632125,-0.9634353,-0.9625189,-0.87628484,-0.76665187,-0.67198694,-0.5998045,-0.5557558,-0.5370305,-0.5342202,-0.5360836,-0.5332732,-0.5267056,-0.5154644,-0.5042231,-0.49579215,-0.4873612,-0.48265696,-0.48174053,-0.47984666,-0.47798324,-0.4704687,-0.46393168,-0.45641714,-0.4470392,-0.43674493,-0.4255036,-0.41426235,-0.40861118,-0.40299052,-0.3955065,-0.3870756,-0.3786446,-0.3664564,-0.3533212,-0.34021652,-0.32708138,-0.31489313,-0.3045988,-0.2924106,-0.27460176,-0.25398254,-0.23241639,-0.20898688,-0.18369395,-0.15840113,-0.12935096,-0.10030085,-0.0721671,-0.041253626,-0.009362578,0.021550894,0.048737764,0.07216716,0.09464967,0.11151171,0.12840414,0.14056182,0.14526606,0.14712942,0.14621305,0.14431906,0.1349411,0.115268946,0.081545115,0.03373909,-0.024361134,-0.086218715,-0.14715981,-0.20617658,-0.26336044,-0.31678706,-0.3664564,-0.41145205,-0.45079648,-0.48641425,-0.5154644,-0.5417042,-0.56046,-0.5754586,-0.58294255,-0.58761626,-0.59232044,-0.59699416,-0.6026148,-0.60637206,-0.60731906,-0.60918236,-0.60918236,-0.6082354,-0.60731906,-0.60450876,-0.6026148,-0.60356176,-0.6026148,-0.59888804,-0.59326744,-0.5885632,-0.58761626,-0.58669984,-0.58480597,-0.57918525,-0.5717013,-0.5641867,-0.5585661,-0.5557558,-0.55670273,-0.56046,-0.56327033,-0.56327033,-0.5595131,-0.5548394,-0.5520291,-0.55013514,-0.5482718,-0.5473249,-0.5464084,-0.5473249,-0.5482718,-0.5492188,-0.55013514,-0.5492188,-0.5510821,-0.5538924,-0.5557558,-0.55764973,-0.5585661,-0.5595131,-0.56137645,-0.5623234,-0.5585661,-0.5529455,-0.5473249,-0.5454615,-0.5464084,-0.5454615,-0.53794694,-0.5238954,-0.50141275,-0.47893023,-0.46484804,-0.45831102,-0.45360678,-0.43579793,-0.40018022,-0.35145783,-0.31021947,-0.29335755,-0.3045988,-0.33178562,-0.35613155,-0.3655094,-0.3626991,-0.35613155,-0.3570785,-0.373024,-0.40488446,-0.45079648,-0.5051701,-0.5529455,-0.58480597,-0.59607774,-0.5951308,-0.5904571,-0.5885632,-0.5885632,-0.5885632,-0.5885632,-0.58575284,-0.58294255,-0.58013225,-0.5773219,-0.58294255,-0.6007514,-0.6326119,-0.6560414,-0.6410428,-0.5595131,-0.379561,-0.10964823,0.20898688,0.498572,0.65790486,0.64480007,0.4254731,0.047790766,-0.36175215,-0.7066577,-0.90722895,-0.9512776,-0.88752615,-0.7835138,-0.69165915,-0.6260443,-0.58388954,-0.56137645,-0.55013514,-0.54451454,-0.5370305,-0.529516,-0.5238954,-0.5154644,-0.5098437,-0.5070334,-0.49954945,-0.4910879,-0.47893023,-0.4686054,-0.46298474,-0.46112138,-0.45922744,-0.45550072,-0.44984955,-0.44050217,-0.43112427,-0.42079937,-0.40955812,-0.40018022,-0.39174926,-0.38426524,-0.3767507,-0.36740333,-0.3570785,-0.3467841,-0.33832264,-0.32708138,-0.3111664,-0.2914636,-0.26711774,-0.24368823,-0.22025877,-0.19212496,-0.16212791,-0.13026744,-0.09935391,-0.0693568,-0.041253626,-0.014066815,0.014066935,0.042170048,0.07122016,0.09746003,0.119026184,0.13402474,0.1424557,0.14712942,0.14993966,0.14807642,0.14337218,0.13307774,0.11432195,0.08716571,0.047790766,-0.0028254986,-0.06092584,-0.120889544,-0.1780734,-0.23241639,-0.285843,-0.33645928,-0.3870756,-0.43298763,-0.4714157,-0.50235975,-0.52484226,-0.5417042,-0.5538924,-0.5641867,-0.5717013,-0.5754586,-0.5773219,-0.576375,-0.57356465,-0.5717013,-0.5698379,-0.5717013,-0.5717013,-0.57356465,-0.57356465,-0.5717013,-0.5698379,-0.56327033,-0.55764973,-0.55013514,-0.54451454,-0.5426512,-0.54356754,-0.54451454,-0.54356754,-0.5398408,-0.5351366,-0.5304629,-0.529516,-0.529516,-0.5285996,-0.5276526,-0.52578926,-0.5276526,-0.5276526,-0.52484226,-0.521085,-0.5164113,-0.5145174,-0.513601,-0.513601,-0.513601,-0.5145174,-0.5145174,-0.5173277,-0.5173277,-0.51827466,-0.5173277,-0.51922166,-0.51922166,-0.5164113,-0.513601,-0.5098437,-0.5070334,-0.50608647,-0.5070334,-0.5088968,-0.5098437,-0.51265407,-0.5154644,-0.520138,-0.5238954,-0.52484226,-0.52484226,-0.5229789,-0.520138,-0.5145174,-0.50235975,-0.48546726,-0.46579504,-0.44517583,-0.4283139,-0.418936,-0.41145205,-0.39364314,-0.3636461,-0.32240766,-0.285843,-0.26992804,-0.27741206,-0.2989782,-0.31959736,-0.33083868,-0.33364892,-0.33178562,-0.33270198,-0.34207994,-0.36740333,-0.41145205,-0.46484804,-0.51827466,-0.5557558,-0.5726483,-0.5745116,-0.56702757,-0.5585661,-0.5548394,-0.5520291,-0.5510821,-0.5510821,-0.5529455,-0.5529455,-0.5510821,-0.5520291,-0.56046,-0.58575284,-0.6204237,-0.6307485,-0.58669984,-0.45265985,-0.20993382,0.10778487,0.45265996,0.7113315,0.80504954,0.7038475,0.39923334,-0.008446157,-0.39736986,-0.6729033,-0.79570204,-0.78443027,-0.70760465,-0.63636917,-0.59137356,-0.56702757,-0.5538924,-0.54451454,-0.5407572,-0.5370305,-0.53140986,-0.52578926,-0.51922166,-0.5154644,-0.51170707,-0.50798035,-0.5004658,-0.49203485,-0.48455083,-0.47798324,-0.4714157,-0.46484804,-0.45641714,-0.4470392,-0.43860823,-0.4320407,-0.42642003,-0.41798908,-0.41050506,-0.40299052,-0.39736986,-0.39083284,-0.38237137,-0.3739404,-0.36083573,-0.34770054,-0.33270198,-0.31489313,-0.29427397,-0.27273834,-0.25303555,-0.23431027,-0.21463811,-0.19401896,-0.16964245,-0.14059228,-0.10964823,-0.07684076,-0.045927286,-0.015930235,0.010309577,0.03560245,0.059031963,0.080598116,0.09932351,0.11432195,0.12651014,0.1368351,0.14337218,0.14621305,0.1424557,0.13402474,0.117132306,0.08902907,0.051547885,0.0009317398,-0.055305183,-0.113405466,-0.16964245,-0.22306901,-0.27365476,-0.32146072,-0.36740333,-0.41145205,-0.44893312,-0.47893023,-0.5042231,-0.5229789,-0.53794694,-0.5520291,-0.56137645,-0.56702757,-0.5660807,-0.5623234,-0.55764973,-0.5557558,-0.5557558,-0.5548394,-0.5548394,-0.5548394,-0.5548394,-0.5538924,-0.5529455,-0.5510821,-0.5473249,-0.54451454,-0.5417042,-0.53794694,-0.5360836,-0.5370305,-0.5398408,-0.5407572,-0.5407572,-0.5388939,-0.5360836,-0.5332732,-0.53140986,-0.5304629,-0.5304629,-0.53140986,-0.5332732,-0.5332732,-0.5323263,-0.53140986,-0.529516,-0.5304629,-0.5285996,-0.5276526,-0.52578926,-0.5229789,-0.5229789,-0.520138,-0.5173277,-0.5164113,-0.5173277,-0.51922166,-0.51922166,-0.5164113,-0.5107907,-0.50608647,-0.50608647,-0.5107907,-0.513601,-0.5154644,-0.5164113,-0.5154644,-0.5145174,-0.513601,-0.513601,-0.513601,-0.51265407,-0.5107907,-0.5070334,-0.5042231,-0.5042231,-0.50608647,-0.5098437,-0.51265407,-0.513601,-0.51265407,-0.5107907,-0.5051701,-0.4967085,-0.4910879,-0.4873612,-0.48827755,-0.48922455,-0.4873612,-0.48455083,-0.48174053,-0.48174053,-0.48174053,-0.48174053,-0.48265696,-0.48265696,-0.48174053,-0.47893023,-0.47517294,-0.4714157,-0.46955234,-0.4714157,-0.474226,-0.47327906,-0.4714157,-0.46579504,-0.4620378,-0.45831102,-0.45641714,-0.45641714,-0.45736408,-0.45550072,-0.4470392,-0.43112427,-0.40955812,-0.3870756,-0.3692667,-0.35988873,-0.34959447,-0.32989168,-0.2952209,-0.25211918,-0.21463811,-0.1996395,-0.21182775,-0.23993093,-0.26711774,-0.2811693,-0.27930593,-0.27273834,-0.2717914,-0.2886533,-0.32616496,-0.380508,-0.43769187,-0.48455083,-0.51265407,-0.51922166,-0.51265407,-0.5032761,-0.4967085,-0.4948452,-0.49579215,-0.4976555,-0.5004658,-0.50235975,-0.5051701,-0.513601,-0.5332732,-0.56794405,-0.5904571,-0.5726483,-0.47798324,-0.27365476,0.030928731,0.39455962,0.73289764,0.9212501,0.91938674,0.6916591,0.29241073,-0.1415087,-0.49860245,-0.70760465,-0.763811,-0.71789896,-0.6466635,-0.59137356,-0.5538924,-0.5285996,-0.50798035,-0.4976555,-0.49298185,-0.49298185,-0.4938982,-0.4938982,-0.4910879,-0.48546726,-0.4770363,-0.46674198,-0.45922744,-0.45360678,-0.45079648,-0.44893312,-0.44612277,-0.4414186,-0.4348815,-0.42455667,-0.41331542,-0.4020741,-0.39174926,-0.38518167,-0.379561,-0.3739404,-0.36456245,-0.35240477,-0.34021652,-0.32427108,-0.3055458,-0.2905472,-0.27741206,-0.2689811,-0.25960314,-0.24555159,-0.22493243,-0.2024498,-0.17712641,-0.14997017,-0.12373036,-0.09746003,-0.0721671,-0.048737586,-0.022497773,0.00560534,0.03468609,0.06092596,0.083408356,0.10308063,0.119026184,0.13307774,0.14431906,0.15464401,0.16026461,0.16307485,0.16118097,0.15650725,0.14431906,0.1255939,0.09840703,0.059978962,0.013119936,-0.040306628,-0.09278631,-0.14340264,-0.19212496,-0.23993093,-0.28960025,-0.33740628,-0.38145494,-0.41707265,-0.4470392,-0.47327906,-0.4948452,-0.5098437,-0.520138,-0.52484226,-0.5304629,-0.5398408,-0.5473249,-0.55013514,-0.5464084,-0.5398408,-0.5342202,-0.5332732,-0.5370305,-0.53794694,-0.5370305,-0.5342202,-0.5285996,-0.5238954,-0.51827466,-0.513601,-0.5088968,-0.5042231,-0.50141275,-0.4967085,-0.49579215,-0.4948452,-0.4948452,-0.4938982,-0.4910879,-0.48922455,-0.48922455,-0.4910879,-0.4938982,-0.4976555,-0.49954945,-0.5004658,-0.50141275,-0.50235975,-0.5032761,-0.50235975,-0.49954945,-0.49579215,-0.4910879,-0.48922455,-0.48922455,-0.4910879,-0.4938982,-0.4948452,-0.4938982,-0.49203485,-0.4910879,-0.49203485,-0.4938982,-0.4948452,-0.49579215,-0.49579215,-0.49579215,-0.4967085,-0.4976555,-0.49954945,-0.49860245,-0.4948452,-0.4901715,-0.48641425,-0.48922455,-0.4938982,-0.4976555,-0.4976555,-0.4948452,-0.49203485,-0.4901715,-0.4901715,-0.49203485,-0.4901715,-0.48827755,-0.48641425,-0.48455083,-0.48265696,-0.48174053,-0.48265696,-0.48265696,-0.48455083,-0.48455083,-0.48265696,-0.48174053,-0.47608936,-0.46955234,-0.4686054,-0.4686054,-0.47236264,-0.47608936,-0.47608936,-0.47327906,-0.46955234,-0.46955234,-0.47327906,-0.47798324,-0.47893023,-0.474226,-0.4686054,-0.46112138,-0.45455378,-0.4470392,-0.43112427,-0.41050506,-0.38799196,-0.37113005,-0.36740333,-0.3636461,-0.34489024,-0.30646217,-0.25211918,-0.20431322,-0.18555737,-0.20055592,-0.23617369,-0.2689811,-0.2839796,-0.2811693,-0.2708444,-0.26803416,-0.2849266,-0.32335466,-0.380508,-0.43955523,-0.48265696,-0.5042231,-0.50608647,-0.49954945,-0.4976555,-0.50235975,-0.50608647,-0.5098437,-0.5107907,-0.5107907,-0.5088968,-0.5051701,-0.5051701,-0.51827466,-0.55013514,-0.57918525,-0.57356465,-0.49860245,-0.31678706,-0.029981792,0.32051384,0.66352546,0.8725277,0.8912835,0.6916591,0.30270493,-0.1386984,-0.520138,-0.76289463,-0.84537137,-0.8050494,-0.7160356,-0.6354222,-0.576375,-0.53794694,-0.5154644,-0.5032761,-0.49579215,-0.48922455,-0.48265696,-0.47608936,-0.46955234,-0.46298474,-0.45360678,-0.44331253,-0.4320407,-0.42642003,-0.4226933,-0.42360973,-0.42455667,-0.418936,-0.40861118,-0.39645344,-0.3870756,-0.38426524,-0.3833183,-0.380508,-0.37488735,-0.3626991,-0.34864753,-0.33459592,-0.32146072,-0.30927247,-0.2989782,-0.29335755,-0.2877369,-0.278359,-0.2652238,-0.24368823,-0.21650141,-0.1883983,-0.16402179,-0.1415087,-0.12278342,-0.10216415,-0.07403052,-0.044063985,-0.010309577,0.021550894,0.047790766,0.07216716,0.09278643,0.11432195,0.13213086,0.14431906,0.15183365,0.15464401,0.15745437,0.16118097,0.16212785,0.15931761,0.14993966,0.13026738,0.10216439,0.06092596,0.011226058,-0.044063985,-0.09840691,-0.15278047,-0.20807046,-0.26149708,-0.3111664,-0.35521513,-0.39364314,-0.42736697,-0.45736408,-0.48455083,-0.5070334,-0.52578926,-0.5398408,-0.5510821,-0.56137645,-0.5641867,-0.5660807,-0.5651337,-0.5623234,-0.56137645,-0.56137645,-0.5623234,-0.56046,-0.5529455,-0.5464084,-0.5417042,-0.5407572,-0.54356754,-0.54451454,-0.5426512,-0.5398408,-0.5370305,-0.5360836,-0.53140986,-0.5276526,-0.5229789,-0.51827466,-0.5173277,-0.5164113,-0.51827466,-0.51827466,-0.51827466,-0.5164113,-0.513601,-0.5145174,-0.5145174,-0.5154644,-0.5164113,-0.513601,-0.5098437,-0.5042231,-0.5004658,-0.49954945,-0.5004658,-0.5032761,-0.50798035,-0.5098437,-0.5107907,-0.50608647,-0.49954945,-0.4938982,-0.4948452,-0.5032761,-0.513601,-0.521085,-0.522032,-0.51922166,-0.5164113,-0.5164113,-0.520138,-0.522032,-0.521085,-0.51922166,-0.5145174,-0.51265407,-0.5107907,-0.5088968,-0.5070334,-0.50235975,-0.49954945,-0.4976555,-0.49860245,-0.49954945,-0.5032761,-0.50798035,-0.51170707,-0.5154644,-0.513601,-0.50608647,-0.49954945,-0.4948452,-0.4901715,-0.48455083,-0.4704687,-0.44984955,-0.4255036,-0.40488446,-0.39174926,-0.3861286,-0.373024,-0.3467841,-0.3083561,-0.26803416,-0.24649853,-0.25303555,-0.27646506,-0.29992515,-0.3111664,-0.30927247,-0.30273545,-0.30273545,-0.31959736,-0.35613155,-0.41145205,-0.4714157,-0.51922166,-0.5426512,-0.5454615,-0.5370305,-0.53140986,-0.53140986,-0.5304629,-0.529516,-0.5285996,-0.5267056,-0.52578926,-0.5229789,-0.521085,-0.5229789,-0.5407572,-0.57075435,-0.5904571,-0.5726483,-0.48546726,-0.2989782,-0.018740535,0.30740917,0.5951309,0.7469492,0.7141417,0.47327912,0.08246148,-0.33551234,-0.67855453,-0.87723184,-0.91752326,-0.8528553,-0.74975944,-0.654178,-0.58294255,-0.53140986,-0.5004658,-0.48641425,-0.47608936,-0.46579504,-0.45265985,-0.43860823,-0.42455667,-0.4161257,-0.4161257,-0.418936,-0.4217463,-0.42079937,-0.41517872,-0.40861118,-0.40112716,-0.39645344,-0.39364314,-0.3889389,-0.38237137,-0.372077,-0.3626991,-0.3533212,-0.3467841,-0.34113294,-0.33364892,-0.31959736,-0.29992515,-0.2811693,-0.26336044,-0.25117224,-0.24368823,-0.23525727,-0.22306901,-0.20807046,-0.18274707,-0.1536969,-0.12278342,-0.09278631,-0.06840986,-0.049684525,-0.029981792,-0.0056358576,0.024361253,0.059031963,0.09278643,0.119026184,0.1368351,0.14993966,0.16118097,0.17712653,0.19117808,0.20336628,0.20993388,0.20431328,0.19493532,0.18461049,0.16774857,0.14712942,0.11245859,0.061842322,-0.0018786192,-0.0703038,-0.13497162,-0.1893146,-0.23712063,-0.285843,-0.33364892,-0.379561,-0.41988295,-0.4479862,-0.46674198,-0.4836039,-0.49860245,-0.513601,-0.5332732,-0.5482718,-0.5585661,-0.56046,-0.55764973,-0.5548394,-0.5585661,-0.5623234,-0.5623234,-0.5557558,-0.54451454,-0.5360836,-0.5342202,-0.5351366,-0.5351366,-0.5351366,-0.5332732,-0.5342202,-0.5360836,-0.53794694,-0.5351366,-0.5304629,-0.5229789,-0.5173277,-0.5145174,-0.513601,-0.5164113,-0.51827466,-0.5173277,-0.5154644,-0.513601,-0.51265407,-0.5145174,-0.5154644,-0.5145174,-0.513601,-0.513601,-0.5164113,-0.5173277,-0.51827466,-0.5145174,-0.5098437,-0.50798035,-0.5098437,-0.5173277,-0.520138,-0.521085,-0.520138,-0.520138,-0.520138,-0.520138,-0.5173277,-0.5145174,-0.513601,-0.513601,-0.513601,-0.5145174,-0.5164113,-0.5173277,-0.5173277,-0.50798035,-0.48922455,-0.46579504,-0.4470392,-0.4348815,-0.43112427,-0.42923033,-0.41707265,-0.38518167,-0.33832264,-0.2886533,-0.25679284,-0.25679284,-0.28022236,-0.31208283,-0.33551234,-0.34583718,-0.3467841,-0.34489024,-0.3589418,-0.39455956,-0.45079648,-0.5145174,-0.5623234,-0.58480597,-0.58575284,-0.57918525,-0.576375,-0.576375,-0.5754586,-0.56794405,-0.56046,-0.55670273,-0.5538924,-0.55670273,-0.5585661,-0.5595131,-0.56794405,-0.59137356,-0.6241809,-0.6354222,-0.6026148,-0.4836039,-0.26149708,0.03279221,0.35145783,0.5960473,0.6944696,0.61199284,0.32521808,-0.0731141,-0.4714157,-0.77880955,-0.9278481,-0.9278481,-0.8406671,-0.7319505,-0.6373161,-0.5660807,-0.522032,-0.50141275,-0.4967085,-0.50235975,-0.50798035,-0.5088968,-0.5032761,-0.49298185,-0.48174053,-0.4704687,-0.4620378,-0.45265985,-0.44236553,-0.43298763,-0.4255036,-0.42079937,-0.41798908,-0.41517872,-0.40861118,-0.39736986,-0.3889389,-0.379561,-0.37113005,-0.36456245,-0.3589418,-0.35145783,-0.34207994,-0.33178562,-0.31959736,-0.30646217,-0.2914636,-0.27273834,-0.25398254,-0.23712063,-0.21836478,-0.19774556,-0.17245275,-0.1415087,-0.11059517,-0.080598116,-0.051547945,-0.020634472,0.00560534,0.029034972,0.050601006,0.07216716,0.09651315,0.118079185,0.1349411,0.14712942,0.15183365,0.15745437,0.16307485,0.16680169,0.16774857,0.15745437,0.13307774,0.09464967,0.043117046,-0.013119936,-0.0721671,-0.12654066,-0.18183064,-0.23617369,-0.28960025,-0.34302688,-0.39083284,-0.4348815,-0.46955234,-0.49579215,-0.513601,-0.522032,-0.5267056,-0.5323263,-0.5398408,-0.5510821,-0.5595131,-0.5641867,-0.56702757,-0.56794405,-0.5698379,-0.5651337,-0.56137645,-0.55764973,-0.5548394,-0.5548394,-0.5538924,-0.5520291,-0.5482718,-0.5454615,-0.5454615,-0.5464084,-0.5473249,-0.5473249,-0.54356754,-0.53794694,-0.5323263,-0.5304629,-0.529516,-0.5285996,-0.5267056,-0.52484226,-0.5276526,-0.5276526,-0.5276526,-0.5267056,-0.521085,-0.51827466,-0.5154644,-0.5154644,-0.5164113,-0.5164113,-0.51922166,-0.522032,-0.520138,-0.5173277,-0.51265407,-0.5107907,-0.5145174,-0.51922166,-0.5229789,-0.522032,-0.5164113,-0.51170707,-0.50608647,-0.49860245,-0.48455083,-0.46674198,-0.4479862,-0.4348815,-0.42736697,-0.41236842,-0.38518167,-0.34583718,-0.30365187,-0.278359,-0.28022236,-0.30365187,-0.33178562,-0.34959447,-0.3533212,-0.34583718,-0.34021652,-0.34489024,-0.36831975,-0.41050506,-0.46393168,-0.5173277,-0.55670273,-0.5773219,-0.5819956,-0.57918525,-0.5754586,-0.5745116,-0.5773219,-0.58013225,-0.58107924,-0.58013225,-0.5754586,-0.5717013,-0.56702757,-0.5641867,-0.5754586,-0.60356176,-0.63166493,-0.6326119,-0.5726483,-0.41517872,-0.16026449,0.15745437,0.47046876,0.67666054,0.7150887,0.5482719,0.19774568,-0.22025877,-0.5951308,-0.8397507,-0.92033356,-0.8753379,-0.7750828,-0.67479724,-0.5998045,-0.5529455,-0.529516,-0.520138,-0.513601,-0.5051701,-0.49579215,-0.48827755,-0.48265696,-0.47798324,-0.47327906,-0.46579504,-0.45736408,-0.45079648,-0.44331253,-0.43674493,-0.4320407,-0.43112427,-0.43112427,-0.42736697,-0.42079937,-0.41050506,-0.40112716,-0.39174926,-0.38518167,-0.3786446,-0.372077,-0.3626991,-0.3505109,-0.33740628,-0.32521802,-0.31208283,-0.29616785,-0.278359,-0.25303555,-0.22868961,-0.20526016,-0.18274707,-0.16026449,-0.13683498,-0.113405466,-0.08997595,-0.06559956,-0.038443327,-0.006552279,0.024361253,0.051547885,0.07308364,0.090892434,0.10683787,0.119026184,0.12745714,0.1312145,0.1349411,0.1415087,0.14337218,0.1368351,0.11245859,0.07403052,0.027171493,-0.024361134,-0.07684076,-0.12935096,-0.1874513,-0.24460459,-0.30084157,-0.3533212,-0.39831686,-0.43579793,-0.46955234,-0.49860245,-0.5229789,-0.5426512,-0.55764973,-0.5660807,-0.5717013,-0.57356465,-0.5773219,-0.58107924,-0.5819956,-0.58107924,-0.5773219,-0.5726483,-0.5698379,-0.5698379,-0.5698379,-0.568891,-0.5660807,-0.56046,-0.5538924,-0.5492188,-0.5464084,-0.54451454,-0.5454615,-0.5426512,-0.5398408,-0.5360836,-0.5342202,-0.5332732,-0.529516,-0.5276526,-0.52578926,-0.52484226,-0.5276526,-0.5276526,-0.5285996,-0.5267056,-0.52484226,-0.521085,-0.5173277,-0.5164113,-0.520138,-0.5267056,-0.53140986,-0.5332732,-0.5323263,-0.5304629,-0.5285996,-0.529516,-0.5276526,-0.5276526,-0.52578926,-0.5229789,-0.521085,-0.520138,-0.522032,-0.5229789,-0.522032,-0.520138,-0.5173277,-0.5164113,-0.5154644,-0.5107907,-0.50141275,-0.4836039,-0.46484804,-0.4470392,-0.43769187,-0.43393457,-0.4217463,-0.39364314,-0.35426813,-0.3139767,-0.2924106,-0.2952209,-0.31489313,-0.33551234,-0.34864753,-0.35240477,-0.34864753,-0.34489024,-0.34770054,-0.3626991,-0.39736986,-0.4479862,-0.5032761,-0.5492188,-0.5745116,-0.58013225,-0.57356465,-0.5641867,-0.56046,-0.56327033,-0.5660807,-0.5651337,-0.56046,-0.5538924,-0.5492188,-0.5510821,-0.5585661,-0.58013225,-0.6148031,-0.6466635,-0.6419898,-0.568891,-0.39455956,-0.119026124,0.21650147,0.5482719,0.7591374,0.7938082,0.6185603,0.25489902,-0.16777909,-0.5332732,-0.75913733,-0.8247522,-0.7741359,-0.6869855,-0.61950725,-0.5782689,-0.5529455,-0.53794694,-0.52578926,-0.5173277,-0.51265407,-0.5098437,-0.5088968,-0.50798035,-0.5042231,-0.50141275,-0.4967085,-0.49298185,-0.48827755,-0.47893023,-0.4676584,-0.45455378,-0.4442289,-0.4348815,-0.42736697,-0.41988295,-0.41426235,-0.40955812,-0.40580088,-0.40112716,-0.39364314,-0.38426524,-0.37488735,-0.3636461,-0.3505109,-0.33926958,-0.32427108,-0.3074091,-0.28960025,-0.2708444,-0.25211918,-0.23241639,-0.21088082,-0.1865043,-0.15931755,-0.13307774,-0.10592151,-0.079681635,-0.051547945,-0.023444712,0.0037419796,0.030928731,0.057168603,0.083408356,0.10778487,0.1255939,0.13775146,0.14431906,0.15088665,0.15650725,0.15745437,0.1490233,0.12840414,0.09559667,0.054358244,0.0027951002,-0.051547945,-0.10964823,-0.16683209,-0.22025877,-0.2717914,-0.31959736,-0.3664564,-0.40769476,-0.44236553,-0.47327906,-0.4976555,-0.5173277,-0.53140986,-0.5407572,-0.5464084,-0.55013514,-0.5548394,-0.5548394,-0.5510821,-0.5473249,-0.54356754,-0.5426512,-0.54356754,-0.5426512,-0.53794694,-0.5332732,-0.5323263,-0.5304629,-0.5285996,-0.5276526,-0.5238954,-0.522032,-0.521085,-0.51922166,-0.51827466,-0.5173277,-0.51827466,-0.520138,-0.51922166,-0.51827466,-0.5164113,-0.5173277,-0.51827466,-0.5173277,-0.5173277,-0.513601,-0.51170707,-0.5107907,-0.50798035,-0.5098437,-0.5145174,-0.521085,-0.52484226,-0.5229789,-0.5173277,-0.5098437,-0.5070334,-0.5088968,-0.51170707,-0.513601,-0.5154644,-0.5154644,-0.513601,-0.51170707,-0.5107907,-0.513601,-0.51827466,-0.522032,-0.520138,-0.5164113,-0.5107907,-0.50798035,-0.5070334,-0.5070334,-0.5088968,-0.5098437,-0.51265407,-0.5154644,-0.5154644,-0.5145174,-0.51170707,-0.5098437,-0.50608647,-0.50235975,-0.50141275,-0.49954945,-0.49860245,-0.4976555,-0.4938982,-0.49203485,-0.4901715,-0.4901715,-0.4910879,-0.4910879,-0.4910879,-0.4910879,-0.49298185,-0.49298185,-0.4910879,-0.48827755,-0.48455083,-0.47798324,-0.46484804,-0.44517583,-0.4226933,-0.40299052,-0.39364314,-0.39083284,-0.380508,-0.35426813,-0.31302977,-0.26992804,-0.24460459,-0.24555159,-0.26803416,-0.2952209,-0.3139767,-0.32146072,-0.32051378,-0.3177035,-0.32521802,-0.3505109,-0.39364314,-0.44893312,-0.50235975,-0.53794694,-0.55013514,-0.54356754,-0.529516,-0.521085,-0.51922166,-0.522032,-0.52578926,-0.5276526,-0.52578926,-0.52484226,-0.521085,-0.51827466,-0.52484226,-0.5464084,-0.58575284,-0.6176133,-0.60637206,-0.51922166,-0.32240766,-0.025308132,0.33083868,0.6700932,0.86971724,0.88657916,0.68322825,0.30270493,-0.118079185,-0.46579504,-0.6729033,-0.7291402,-0.6860385,-0.6213707,-0.5782689,-0.5520291,-0.5332732,-0.51922166,-0.5107907,-0.50608647,-0.5051701,-0.50235975,-0.4948452,-0.48455083,-0.47517294,-0.4676584,-0.46112138,-0.45641714,-0.45265985,-0.44612277,-0.43955523,-0.43298763,-0.4283139,-0.4226933,-0.418936,-0.41798908,-0.41707265,-0.4161257,-0.41236842,-0.40393746,-0.3926962,-0.380508,-0.3692667,-0.3570785,-0.34489024,-0.33083868,-0.31489313,-0.3017885,-0.2886533,-0.27273834,-0.25492948,-0.23149997,-0.20807046,-0.18464094,-0.16121149,-0.13683498,-0.10778481,-0.07778776,-0.047790706,-0.021550894,0.0027951002,0.026224613,0.047790766,0.07027328,0.09370279,0.115268946,0.13402474,0.14712942,0.1536969,0.15556037,0.15464401,0.15183365,0.1424557,0.1246469,0.09559667,0.059978962,0.018740535,-0.026255012,-0.0721671,-0.11997312,-0.17058945,-0.22306901,-0.2755487,-0.32616496,-0.373024,-0.41426235,-0.4479862,-0.47517294,-0.49579215,-0.5098437,-0.521085,-0.5276526,-0.5323263,-0.5342202,-0.5323263,-0.5323263,-0.5323263,-0.5342202,-0.5370305,-0.5370305,-0.5360836,-0.529516,-0.5229789,-0.5145174,-0.5088968,-0.50798035,-0.5088968,-0.5107907,-0.5088968,-0.5051701,-0.50141275,-0.49954945,-0.49954945,-0.50235975,-0.5051701,-0.5070334,-0.5051701,-0.50235975,-0.4967085,-0.4910879,-0.48827755,-0.4873612,-0.48827755,-0.48922455,-0.4901715,-0.4910879,-0.4910879,-0.49298185,-0.4938982,-0.49579215,-0.4967085,-0.4967085,-0.49954945,-0.5032761,-0.50608647,-0.5088968,-0.5088968,-0.5098437,-0.5088968,-0.50798035,-0.5070334,-0.5051701,-0.5042231,-0.5051701,-0.5051701,-0.5051701,-0.5042231,-0.5042231,-0.5032761,-0.50141275,-0.49860245,-0.4948452,-0.4910879,-0.4901715,-0.48922455,-0.4910879,-0.49203485,-0.49298185,-0.49298185,-0.4938982,-0.4948452,-0.4948452,-0.49579215,-0.4967085,-0.49579215,-0.49579215,-0.4948452,-0.49298185,-0.49298185,-0.4938982,-0.49579215,-0.4967085,-0.4967085,-0.49298185,-0.48922455,-0.48641425,-0.4836039,-0.48455083,-0.48455083,-0.48546726,-0.48641425,-0.48546726,-0.48641425,-0.48546726,-0.4873612,-0.4901715,-0.4901715,-0.48922455,-0.4836039,-0.47798324,-0.474226,-0.47517294,-0.47893023,-0.48174053,-0.4836039,-0.4836039,-0.48174053,-0.4807936,-0.47984666,-0.47798324,-0.474226,-0.46579504,-0.44984955,-0.42736697,-0.40488446,-0.3898859,-0.38237137,-0.37488735,-0.3533212,-0.31208283,-0.2624135,-0.22212207,-0.20898688,-0.22679573,-0.26055014,-0.29335755,-0.3083561,-0.3083561,-0.3017885,-0.30365187,-0.32335466,-0.36740333,-0.42923033,-0.48922455,-0.5342202,-0.5557558,-0.5538924,-0.54356754,-0.53140986,-0.52578926,-0.522032,-0.522032,-0.5238954,-0.5238954,-0.52578926,-0.5285996,-0.5323263,-0.5473249,-0.5726483,-0.6082354,-0.6241809,-0.5904571,-0.47608936,-0.24741489,0.07497752,0.44798625,0.76756847,0.91752326,0.86504364,0.58666945,0.16588521,-0.25773978,-0.58388954,-0.75256974,-0.7769462,-0.71508867,-0.6410428,-0.58951014,-0.5548394,-0.53140986,-0.5145174,-0.5051701,-0.50235975,-0.50141275,-0.5004658,-0.4967085,-0.4910879,-0.48546726,-0.47893023,-0.47327906,-0.46484804,-0.45736408,-0.44893312,-0.4414186,-0.43579793,-0.43112427,-0.42642003,-0.41988295,-0.41331542,-0.40769476,-0.4020741,-0.39645344,-0.39083284,-0.380508,-0.37021363,-0.3570785,-0.34207994,-0.32802832,-0.31584007,-0.3045988,-0.2914636,-0.27741206,-0.2624135,-0.24460459,-0.22679573,-0.20807046,-0.1865043,-0.16493821,-0.13778198,-0.10873181,-0.07778776,-0.046874285,-0.018740535,0.008415699,0.03468609,0.0581156,0.07684088,0.09278643,0.10683787,0.119026184,0.1312145,0.14056182,0.14526606,0.14526606,0.1415087,0.1349411,0.12183654,0.10216439,0.07497752,0.03841281,-0.0046889186,-0.054358244,-0.10778481,-0.16121149,-0.21274412,-0.2624135,-0.30927247,-0.35521513,-0.39645344,-0.4320407,-0.46017438,-0.47893023,-0.4948452,-0.5070334,-0.51827466,-0.5285996,-0.53794694,-0.54451454,-0.5473249,-0.5473249,-0.54356754,-0.5398408,-0.5388939,-0.5388939,-0.5398408,-0.5398408,-0.5360836,-0.5323263,-0.52578926,-0.5229789,-0.522032,-0.522032,-0.52578926,-0.5276526,-0.529516,-0.529516,-0.5285996,-0.5276526,-0.5276526,-0.5267056,-0.52484226,-0.5238954,-0.52484226,-0.52578926,-0.5276526,-0.5285996,-0.5285996,-0.5276526,-0.52578926,-0.52484226,-0.521085,-0.51922166,-0.51922166,-0.51922166,-0.51922166,-0.520138,-0.5229789,-0.52578926,-0.5285996,-0.5323263,-0.5342202,-0.5351366,-0.5360836,-0.5370305,-0.5370305,-0.53794694,-0.5370305,-0.53794694,-0.5360836,-0.5332732,-0.5304629,-0.5285996,-0.5276526,-0.5267056,-0.52578926,-0.5238954,-0.521085,-0.51922166,-0.51922166,-0.51827466,-0.5173277,-0.5164113,-0.5145174,-0.51170707,-0.51170707,-0.5145174,-0.51827466,-0.5229789,-0.522032,-0.5164113,-0.5098437,-0.5042231,-0.5032761,-0.5032761,-0.5032761,-0.50235975,-0.50141275,-0.5004658,-0.49954945,-0.49860245,-0.49860245,-0.49954945,-0.50141275,-0.50141275,-0.49954945,-0.49579215,-0.4910879,-0.48922455,-0.48922455,-0.4910879,-0.4910879,-0.49203485,-0.4938982,-0.48922455,-0.48265696,-0.4686054,-0.44893312,-0.43017733,-0.4161257,-0.40674782,-0.3992638,-0.38426524,-0.35802543,-0.31584007,-0.2689811,-0.23431027,-0.22774273,-0.24930888,-0.2839796,-0.31208283,-0.32335466,-0.31865042,-0.31208283,-0.31489313,-0.33832264,-0.38426524,-0.4442289,-0.5032761,-0.5417042,-0.55670273,-0.5520291,-0.5407572,-0.5351366,-0.5360836,-0.5417042,-0.5464084,-0.55013514,-0.5520291,-0.5510821,-0.55013514,-0.5510821,-0.5623234,-0.5904571,-0.6251279,-0.63355887,-0.58480597,-0.44236553,-0.1865043,0.15088665,0.5135704,0.78537726,0.87628496,0.75538003,0.4207995,-0.017824113,-0.42923033,-0.7197623,-0.850045,-0.8406671,-0.7610007,-0.67479724,-0.6119927,-0.568891,-0.5407572,-0.52578926,-0.51922166,-0.51827466,-0.5173277,-0.513601,-0.5051701,-0.4948452,-0.48641425,-0.47984666,-0.47517294,-0.46955234,-0.46298474,-0.45360678,-0.4479862,-0.4414186,-0.43674493,-0.4320407,-0.4255036,-0.418936,-0.41145205,-0.40299052,-0.3926962,-0.380508,-0.37021363,-0.36175215,-0.35613155,-0.34959447,-0.34021652,-0.32802832,-0.3111664,-0.2952209,-0.27741206,-0.26149708,-0.24368823,-0.22025877,-0.19401896,-0.16588509,-0.13778198,-0.111542165,-0.08530229,-0.06187284,-0.03654939,-0.009362578,0.017793655,0.044033527,0.06746304,0.086218715,0.10121727,0.11245859,0.1246469,0.1349411,0.14337218,0.14807642,0.14621305,0.1415087,0.1293205,0.11245859,0.08716571,0.051547885,0.007499218,-0.045927286,-0.10216415,-0.15931755,-0.21463811,-0.26711774,-0.31865042,-0.36456245,-0.40580088,-0.44331253,-0.474226,-0.5032761,-0.5267056,-0.54356754,-0.5548394,-0.56046,-0.5641867,-0.56702757,-0.568891,-0.5717013,-0.57356465,-0.5754586,-0.5754586,-0.5754586,-0.5726483,-0.56702757,-0.5623234,-0.55764973,-0.5557558,-0.5557558,-0.5557558,-0.5557558,-0.5538924,-0.5510821,-0.5492188,-0.5464084,-0.54451454,-0.5426512,-0.5398408,-0.5388939,-0.53794694,-0.5360836,-0.5323263,-0.5285996,-0.52484226,-0.520138,-0.520138,-0.51922166,-0.520138,-0.521085,-0.521085,-0.521085,-0.522032,-0.5229789,-0.52484226,-0.5238954,-0.522032,-0.521085,-0.521085,-0.5229789,-0.52484226,-0.5267056,-0.5285996,-0.53140986,-0.5351366,-0.5370305,-0.53794694,-0.5323263,-0.5285996,-0.52484226,-0.522032,-0.521085,-0.51922166,-0.5173277,-0.5145174,-0.51265407,-0.51170707,-0.5088968,-0.5070334,-0.5070334,-0.5107907,-0.5145174,-0.5145174,-0.5154644,-0.5145174,-0.5154644,-0.51827466,-0.520138,-0.522032,-0.5229789,-0.521085,-0.520138,-0.51827466,-0.5154644,-0.51265407,-0.5098437,-0.5098437,-0.5107907,-0.51170707,-0.5098437,-0.5070334,-0.5032761,-0.50141275,-0.50235975,-0.5051701,-0.5070334,-0.50608647,-0.5004658,-0.49298185,-0.47984666,-0.46112138,-0.4414186,-0.42079937,-0.40769476,-0.39736986,-0.379561,-0.3467841,-0.30084157,-0.25587648,-0.23241639,-0.23898399,-0.2652238,-0.2952209,-0.3139767,-0.31678706,-0.30927247,-0.3045988,-0.3139767,-0.34489024,-0.3992638,-0.46298474,-0.51827466,-0.5529455,-0.5651337,-0.5623234,-0.5548394,-0.5492188,-0.5454615,-0.54451454,-0.5454615,-0.5454615,-0.5454615,-0.5407572,-0.5370305,-0.54356754,-0.5641867,-0.6016984,-0.6269913,-0.6119927,-0.521085,-0.32146072,-0.024361134,0.33175516,0.6654192,0.85096145,0.8416141,0.6026149,0.19026172,-0.25679284,-0.623234,-0.8350465,-0.88660973,-0.8266155,-0.73103416,-0.6494738,-0.5904571,-0.55013514,-0.5285996,-0.520138,-0.5154644,-0.5088968,-0.49954945,-0.48922455,-0.47984666,-0.4704687,-0.46298474,-0.45455378,-0.4470392,-0.44331253,-0.4414186,-0.43769187,-0.43393457,-0.4255036,-0.41517872,-0.40580088,-0.39736986,-0.39364314,-0.39174926,-0.39083284,-0.3861286,-0.37488735,-0.36175215,-0.3467841,-0.33459592,-0.32521802,-0.31489313,-0.30365187,-0.285843,-0.26803416,-0.24836189,-0.22679573,-0.20712358,-0.18555737,-0.16588509,-0.14621294,-0.12559378,-0.10402757,-0.07684076,-0.044980407,-0.011256516,0.022497892,0.052464485,0.07778776,0.09559667,0.11059523,0.12745714,0.1424557,0.15650725,0.16680169,0.17526317,0.17712653,0.17431617,0.16588521,0.14526606,0.115268946,0.07965124,0.03654945,-0.0074992776,-0.057168603,-0.10964823,-0.16307479,-0.21555442,-0.26711774,-0.3177035,-0.36831975,-0.4161257,-0.45641714,-0.48641425,-0.5032761,-0.5145174,-0.5229789,-0.5323263,-0.5407572,-0.5492188,-0.55670273,-0.56137645,-0.5651337,-0.5641867,-0.5623234,-0.5585661,-0.5557558,-0.5548394,-0.5520291,-0.5510821,-0.55013514,-0.5473249,-0.5473249,-0.5426512,-0.5388939,-0.5398408,-0.5398408,-0.5398408,-0.5388939,-0.5360836,-0.5332732,-0.5285996,-0.52484226,-0.520138,-0.5164113,-0.51265407,-0.51265407,-0.513601,-0.51265407,-0.51265407,-0.51265407,-0.51265407,-0.5145174,-0.51827466,-0.5229789,-0.5276526,-0.5323263,-0.5332732,-0.5285996,-0.52484226,-0.521085,-0.5173277,-0.521085,-0.52578926,-0.53140986,-0.5360836,-0.5407572,-0.5426512,-0.5426512,-0.54451454,-0.54451454,-0.5407572,-0.5323263,-0.522032,-0.513601,-0.5088968,-0.5098437,-0.51170707,-0.5098437,-0.5088968,-0.50608647,-0.5051701,-0.50608647,-0.50608647,-0.50608647,-0.5032761,-0.50235975,-0.50141275,-0.5004658,-0.5032761,-0.5051701,-0.50608647,-0.50235975,-0.48922455,-0.4686054,-0.44612277,-0.42642003,-0.4161257,-0.40769476,-0.39083284,-0.35802543,-0.31208283,-0.26803416,-0.24460459,-0.25022525,-0.27460176,-0.30084157,-0.31865042,-0.32335466,-0.32146072,-0.32521802,-0.34489024,-0.3861286,-0.4414186,-0.49954945,-0.5454615,-0.56794405,-0.5698379,-0.56137645,-0.55764973,-0.55670273,-0.56046,-0.56327033,-0.56046,-0.5510821,-0.54451454,-0.5388939,-0.5388939,-0.5407572,-0.5492188,-0.576375,-0.6054251,-0.61012936,-0.55670273,-0.40955812,-0.16026449,0.15275002,0.4610908,0.661662,0.6991432,0.53700006,0.18931472,-0.22493243,-0.59607774,-0.8472347,-0.9400058,-0.90628195,-0.81537426,-0.71884596,-0.6373161,-0.5745116,-0.5360836,-0.5173277,-0.5032761,-0.49579215,-0.48922455,-0.4807936,-0.47327906,-0.46484804,-0.45736408,-0.45265985,-0.44893312,-0.44236553,-0.43298763,-0.42455667,-0.41517872,-0.41145205,-0.41236842,-0.41145205,-0.40674782,-0.39645344,-0.38145494,-0.3664564,-0.35426813,-0.34770054,-0.34021652,-0.33083868,-0.32335466,-0.3111664,-0.29708427,-0.2811693,-0.26336044,-0.24649853,-0.23055303,-0.21836478,-0.2024498,-0.18464094,-0.16212791,-0.13402462,-0.10311115,-0.07122022,-0.040306628,-0.012203515,0.014066935,0.040306687,0.06559956,0.08997607,0.11151171,0.1293205,0.14526606,0.16118097,0.1724528,0.17993677,0.18555737,0.18555737,0.17807353,0.16680169,0.14431906,0.11245859,0.07216716,0.025308132,-0.025308132,-0.07778776,-0.13402462,-0.1902616,-0.24741489,-0.30273545,-0.35426813,-0.39831686,-0.43955523,-0.474226,-0.5004658,-0.520138,-0.5360836,-0.55013514,-0.5660807,-0.57918525,-0.5885632,-0.59232044,-0.59232044,-0.58951014,-0.58480597,-0.5782689,-0.5745116,-0.5773219,-0.58107924,-0.58388954,-0.5819956,-0.5717013,-0.5623234,-0.5595131,-0.5585661,-0.55764973,-0.55764973,-0.5538924,-0.55013514,-0.5473249,-0.5464084,-0.5464084,-0.5454615,-0.54356754,-0.5370305,-0.5304629,-0.5238954,-0.52484226,-0.5276526,-0.5276526,-0.5276526,-0.522032,-0.51922166,-0.521085,-0.52484226,-0.5304629,-0.5332732,-0.5332732,-0.5285996,-0.5276526,-0.529516,-0.53140986,-0.5342202,-0.5342202,-0.5285996,-0.52484226,-0.51827466,-0.5164113,-0.5154644,-0.5164113,-0.51827466,-0.5173277,-0.5173277,-0.5154644,-0.5098437,-0.50235975,-0.4948452,-0.48455083,-0.474226,-0.45831102,-0.43860823,-0.42079937,-0.40769476,-0.39831686,-0.38145494,-0.35145783,-0.3055458,-0.25960314,-0.23336333,-0.23806757,-0.2624135,-0.28960025,-0.30365187,-0.30273545,-0.2952209,-0.29427397,-0.31021947,-0.3505109,-0.40393746,-0.46298474,-0.5098437,-0.5323263,-0.53794694,-0.5342202,-0.529516,-0.5304629,-0.5304629,-0.5304629,-0.5332732,-0.5351366,-0.53794694,-0.5388939,-0.5351366,-0.5323263,-0.53794694,-0.5623234,-0.59699416,-0.6204237,-0.6016984,-0.50798035,-0.31489313,-0.03935975,0.27832854,0.55575585,0.6981963,0.6663358,0.42455673,0.03935969,-0.36740333,-0.6982267,-0.88098913,-0.91095567,-0.84537137,-0.75256974,-0.6672827,-0.5998045,-0.55013514,-0.51922166,-0.5042231,-0.5042231,-0.50798035,-0.50798035,-0.50141275,-0.4873612,-0.47517294,-0.4686054,-0.4676584,-0.4714157,-0.4714157,-0.46579504,-0.45736408,-0.4470392,-0.43955523,-0.43393457,-0.4283139,-0.42079937,-0.41145205,-0.40393746,-0.3955065,-0.3870756,-0.380508,-0.37113005,-0.36083573,-0.34770054,-0.33270198,-0.31678706,-0.30365187,-0.29427397,-0.2811693,-0.2652238,-0.24368823,-0.21836478,-0.1912086,-0.16212791,-0.13216132,-0.10402757,-0.07778776,-0.053411245,-0.025308132,0.0065523386,0.040306687,0.07122016,0.09278643,0.10870135,0.12183654,0.13402474,0.14431906,0.15088665,0.15183365,0.14621305,0.13869834,0.12745714,0.10589099,0.07497752,0.03468609,-0.013119936,-0.0693568,-0.13121432,-0.19774556,-0.2624135,-0.32051378,-0.3655094,-0.40580088,-0.44612277,-0.48546726,-0.51827466,-0.54451454,-0.56327033,-0.5745116,-0.58107924,-0.58575284,-0.58575284,-0.58575284,-0.5885632,-0.5904571,-0.59137356,-0.5885632,-0.58575284,-0.58388954,-0.58480597,-0.58480597,-0.58480597,-0.5819956,-0.5773219,-0.57356465,-0.5698379,-0.56702757,-0.56794405,-0.568891,-0.56794405,-0.5651337,-0.5585661,-0.5529455,-0.5492188,-0.5510821,-0.5529455,-0.5510821,-0.5473249,-0.5417042,-0.53794694,-0.5388939,-0.5407572,-0.5426512,-0.5417042,-0.53794694,-0.5351366,-0.5332732,-0.5360836,-0.5407572,-0.54451454,-0.54451454,-0.5417042,-0.5388939,-0.53794694,-0.53794694,-0.5398408,-0.5398408,-0.53794694,-0.5360836,-0.5323263,-0.52484226,-0.5098437,-0.49298185,-0.47608936,-0.46298474,-0.45360678,-0.44517583,-0.4320407,-0.40674782,-0.3692667,-0.32521802,-0.2924106,-0.2821163,-0.29616785,-0.32240766,-0.34302688,-0.35145783,-0.35145783,-0.35240477,-0.3664564,-0.39645344,-0.44331253,-0.49954945,-0.5520291,-0.59137356,-0.6082354,-0.6054251,-0.59232044,-0.58107924,-0.576375,-0.5782689,-0.5819956,-0.58388954,-0.5819956,-0.5782689,-0.5726483,-0.56702757,-0.56702757,-0.58013225,-0.6119927,-0.6485574,-0.6560414,-0.6082354,-0.46955234,-0.22587931,0.085271835,0.41704214,0.65885186,0.73851824,0.6194768,0.29708433,-0.117162764,-0.50798035,-0.7807035,-0.8959571,-0.87628484,-0.78913444,-0.6972798,-0.6241809,-0.5754586,-0.54451454,-0.5276526,-0.51827466,-0.51265407,-0.51265407,-0.51170707,-0.50798035,-0.49954945,-0.48827755,-0.47893023,-0.474226,-0.47236264,-0.46955234,-0.46393168,-0.45831102,-0.45174342,-0.44612277,-0.4414186,-0.43579793,-0.42923033,-0.4226933,-0.41426235,-0.40580088,-0.39831686,-0.39083284,-0.380508,-0.36456245,-0.34770054,-0.33178562,-0.3177035,-0.3045988,-0.2905472,-0.27273834,-0.25117224,-0.23055303,-0.21088082,-0.1912086,-0.17058945,-0.14526594,-0.116215765,-0.08530229,-0.052494824,-0.024361134,0.0018787384,0.028118491,0.054358244,0.07965124,0.09932351,0.113405585,0.120889544,0.12651014,0.13213086,0.1349411,0.13402474,0.1236999,0.10497463,0.07684088,0.03468609,-0.015013814,-0.0693568,-0.12559378,-0.17993677,-0.23055303,-0.2811693,-0.33459592,-0.38426524,-0.42642003,-0.4620378,-0.48827755,-0.5088968,-0.52578926,-0.5388939,-0.5492188,-0.55670273,-0.5641867,-0.5698379,-0.57356465,-0.57356465,-0.57075435,-0.56794405,-0.5660807,-0.5651337,-0.5660807,-0.56794405,-0.5698379,-0.568891,-0.5660807,-0.56137645,-0.5585661,-0.55764973,-0.5585661,-0.5595131,-0.5595131,-0.55764973,-0.5538924,-0.5482718,-0.5426512,-0.54356754,-0.5473249,-0.5520291,-0.5538924,-0.5492188,-0.5417042,-0.5351366,-0.5332732,-0.5332732,-0.5351366,-0.5351366,-0.5342202,-0.5323263,-0.5304629,-0.5285996,-0.5276526,-0.52578926,-0.5238954,-0.522032,-0.521085,-0.5238954,-0.5267056,-0.529516,-0.5285996,-0.52484226,-0.521085,-0.51827466,-0.51827466,-0.520138,-0.520138,-0.521085,-0.520138,-0.5154644,-0.50608647,-0.48922455,-0.4686054,-0.4470392,-0.43017733,-0.42079937,-0.41798908,-0.41145205,-0.39083284,-0.35521513,-0.31021947,-0.27273834,-0.25679284,-0.26711774,-0.2914636,-0.31489313,-0.32802832,-0.33270198,-0.33178562,-0.33926958,-0.3589418,-0.39364314,-0.44331253,-0.4967085,-0.5407572,-0.5660807,-0.5726483,-0.56702757,-0.5585661,-0.5548394,-0.5548394,-0.5557558,-0.5548394,-0.5510821,-0.5482718,-0.5464084,-0.5464084,-0.55013514,-0.5585661,-0.58107924,-0.6176133,-0.64012647,-0.62231755,-0.5285996,-0.32897526,-0.03654939,0.30832565,0.62323415,0.7947551,0.78348327,0.5576192,0.17431617,-0.23525727,-0.5660807,-0.75256974,-0.79194474,-0.73757124,-0.66447234,-0.6129397,-0.57918525,-0.5548394,-0.5360836,-0.5229789,-0.5154644,-0.5154644,-0.5145174,-0.5098437,-0.50235975,-0.4910879,-0.48174053,-0.4714157,-0.46393168,-0.45736408,-0.45174342,-0.44612277,-0.4414186,-0.43674493,-0.43393457,-0.4320407,-0.43017733,-0.4255036,-0.41988295,-0.41331542,-0.40299052,-0.39364314,-0.3833183,-0.373024,-0.3636461,-0.35426813,-0.34397382,-0.32989168,-0.3139767,-0.2980312,-0.2821163,-0.2652238,-0.24649853,-0.22212207,-0.19588226,-0.16777909,-0.1415087,-0.114352465,-0.08811265,-0.05906248,-0.028118432,0.0037419796,0.03468609,0.061842322,0.083408356,0.10027039,0.11151171,0.122752905,0.13307774,0.1424557,0.1490233,0.14526606,0.1312145,0.10402763,0.06654656,0.023414254,-0.022497773,-0.0721671,-0.12373036,-0.17902029,-0.23525727,-0.2924106,-0.34397382,-0.3889389,-0.42736697,-0.45831102,-0.4836039,-0.50235975,-0.5173277,-0.5304629,-0.5426512,-0.5510821,-0.5557558,-0.55670273,-0.55764973,-0.5595131,-0.56327033,-0.5651337,-0.5623234,-0.55670273,-0.5510821,-0.5482718,-0.55013514,-0.5520291,-0.55013514,-0.5454615,-0.5388939,-0.5332732,-0.529516,-0.5285996,-0.5285996,-0.5304629,-0.5304629,-0.53140986,-0.5323263,-0.5323263,-0.5332732,-0.5323263,-0.53140986,-0.5304629,-0.529516,-0.53140986,-0.5323263,-0.53140986,-0.529516,-0.5276526,-0.5285996,-0.529516,-0.53140986,-0.5332732,-0.5323263,-0.53140986,-0.5285996,-0.5276526,-0.5276526,-0.5285996,-0.529516,-0.5304629,-0.529516,-0.5285996,-0.5285996,-0.5276526,-0.5267056,-0.5238954,-0.522032,-0.520138,-0.520138,-0.520138,-0.51922166,-0.51827466,-0.5173277,-0.51827466,-0.520138,-0.522032,-0.522032,-0.5229789,-0.522032,-0.51827466,-0.5145174,-0.50798035,-0.50141275,-0.49860245,-0.49954945,-0.5032761,-0.50798035,-0.5098437,-0.5088968,-0.5032761,-0.4976555,-0.49298185,-0.49298185,-0.49579215,-0.49860245,-0.49954945,-0.4976555,-0.49298185,-0.4910879,-0.4901715,-0.48922455,-0.48922455,-0.4873612,-0.48641425,-0.48455083,-0.48265696,-0.48174053,-0.4807936,-0.47984666,-0.47984666,-0.47798324,-0.47608936,-0.47517294,-0.47327906,-0.4704687,-0.46674198,-0.46298474,-0.46017438,-0.45831102,-0.45736408,-0.45736408,-0.45736408,-0.45736408,-0.45550072,-0.45360678,-0.45360678,-0.45265985,-0.45174342,-0.44893312,-0.43860823,-0.42079937,-0.3992638,-0.3758343,-0.36083573,-0.35521513,-0.3505109,-0.33551234,-0.29992515,-0.25211918,-0.20807046,-0.1912086,-0.20526016,-0.23806757,-0.2717914,-0.2886533,-0.28960025,-0.2821163,-0.278359,-0.29335755,-0.33083868,-0.38799196,-0.4479862,-0.4976555,-0.522032,-0.522032,-0.5088968,-0.4976555,-0.49298185,-0.49860245,-0.50608647,-0.5088968,-0.5070334,-0.50235975,-0.4976555,-0.49954945,-0.513601,-0.54451454,-0.58480597,-0.5998045,-0.55670273,-0.4226933,-0.17245275,0.16026461,0.53137946,0.8266156,0.9512472,0.87066424,0.56889117,0.14712942,-0.26149708,-0.5595131,-0.7066577,-0.71789896,-0.66166204,-0.60450876,-0.56702757,-0.5426512,-0.5238954,-0.51265407,-0.5042231,-0.5004658,-0.49860245,-0.4948452,-0.4901715,-0.4836039,-0.47517294,-0.4676584,-0.46017438,-0.45550072,-0.44984955,-0.44331253,-0.43769187,-0.43579793,-0.43769187,-0.43674493,-0.4348815,-0.4283139,-0.41798908,-0.40955812,-0.40112716,-0.39364314,-0.38426524,-0.373024,-0.3626991,-0.3505109,-0.33926958,-0.32897526,-0.31678706,-0.30273545,-0.2877369,-0.27365476,-0.25773978,-0.23806757,-0.21555442,-0.1874513,-0.15840113,-0.13026744,-0.10311115,-0.07778776,-0.051547945,-0.023444712,0.0037419796,0.029034972,0.050601006,0.06935692,0.084355354,0.09746003,0.10964823,0.118079185,0.1255939,0.13213086,0.1349411,0.13402474,0.122752905,0.10589099,0.081545115,0.051547885,0.017793655,-0.020634472,-0.06373614,-0.10778481,-0.1518336,-0.19869256,-0.24741489,-0.29616785,-0.34302688,-0.38518167,-0.41798908,-0.44517583,-0.4676584,-0.48827755,-0.5070334,-0.5238954,-0.5370305,-0.5454615,-0.5464084,-0.5454615,-0.5407572,-0.5370305,-0.5351366,-0.5360836,-0.53794694,-0.53794694,-0.5351366,-0.5285996,-0.522032,-0.51922166,-0.51922166,-0.51922166,-0.5173277,-0.5154644,-0.513601,-0.513601,-0.5173277,-0.520138,-0.5229789,-0.52578926,-0.52578926,-0.52578926,-0.521085,-0.5173277,-0.5145174,-0.513601,-0.5154644,-0.5173277,-0.51827466,-0.5173277,-0.5173277,-0.51922166,-0.51827466,-0.5164113,-0.51265407,-0.5098437,-0.50798035,-0.5051701,-0.5051701,-0.5051701,-0.50608647,-0.51170707,-0.5164113,-0.5173277,-0.513601,-0.5107907,-0.5088968,-0.5070334,-0.50798035,-0.5098437,-0.51170707,-0.51265407,-0.5145174,-0.5154644,-0.513601,-0.51265407,-0.5145174,-0.5164113,-0.5164113,-0.5145174,-0.5098437,-0.5070334,-0.50608647,-0.5088968,-0.5107907,-0.5107907,-0.5088968,-0.50608647,-0.5042231,-0.5051701,-0.5088968,-0.5107907,-0.50798035,-0.5032761,-0.49860245,-0.49579215,-0.4967085,-0.4967085,-0.49579215,-0.4948452,-0.4948452,-0.4967085,-0.4967085,-0.49203485,-0.48546726,-0.4807936,-0.48174053,-0.48641425,-0.4948452,-0.4976555,-0.4976555,-0.4967085,-0.4976555,-0.5004658,-0.5004658,-0.49860245,-0.49579215,-0.49298185,-0.4938982,-0.49298185,-0.4910879,-0.4873612,-0.48455083,-0.48455083,-0.48641425,-0.48546726,-0.47893023,-0.46393168,-0.44517583,-0.42642003,-0.41426235,-0.40769476,-0.39831686,-0.373024,-0.33083868,-0.27646506,-0.23525727,-0.22025877,-0.23617369,-0.2708444,-0.30365187,-0.32146072,-0.32146072,-0.31678706,-0.32146072,-0.34397382,-0.3889389,-0.44612277,-0.49860245,-0.5332732,-0.5464084,-0.5454615,-0.5407572,-0.5417042,-0.5417042,-0.5417042,-0.5388939,-0.5360836,-0.5360836,-0.5370305,-0.5370305,-0.5360836,-0.5417042,-0.5641867,-0.59607774,-0.61012936,-0.5726483,-0.44236553,-0.19682914,0.1358881,0.50232923,0.78348327,0.88938963,0.78537726,0.4629848,0.026224613,-0.39364314,-0.7000901,-0.8444244,-0.84537137,-0.76665187,-0.67855453,-0.61012936,-0.5641867,-0.5342202,-0.5173277,-0.5088968,-0.50608647,-0.5051701,-0.5032761,-0.4976555,-0.4901715,-0.47893023,-0.4704687,-0.46393168,-0.45736408,-0.45360678,-0.4479862,-0.4442289,-0.43955523,-0.43393457,-0.42642003,-0.41798908,-0.41426235,-0.41331542,-0.41331542,-0.41145205,-0.40393746,-0.39364314,-0.380508,-0.36740333,-0.3570785,-0.34397382,-0.33083868,-0.31489313,-0.29616785,-0.278359,-0.25960314,-0.24274129,-0.22117507,-0.1996395,-0.17712641,-0.15278047,-0.12840402,-0.10311115,-0.079681635,-0.05625218,-0.03187567,-0.006552279,0.021550894,0.049654126,0.07497752,0.09370279,0.10497463,0.113405585,0.119942665,0.12840414,0.1358881,0.13869834,0.1368351,0.12840414,0.113405585,0.090892434,0.055274725,0.012173057,-0.03935975,-0.09464973,-0.14997017,-0.20526016,-0.25773978,-0.3074091,-0.35521513,-0.39831686,-0.43769187,-0.4704687,-0.49579215,-0.51922166,-0.5370305,-0.5520291,-0.56046,-0.5651337,-0.56702757,-0.56794405,-0.5698379,-0.5698379,-0.568891,-0.57075435,-0.5717013,-0.5745116,-0.57356465,-0.5698379,-0.5651337,-0.5585661,-0.5557558,-0.5548394,-0.5548394,-0.5538924,-0.5529455,-0.55013514,-0.54451454,-0.53794694,-0.5332732,-0.5276526,-0.522032,-0.51922166,-0.520138,-0.5238954,-0.5267056,-0.5285996,-0.52484226,-0.5154644,-0.5088968,-0.50798035,-0.51265407,-0.520138,-0.52484226,-0.522032,-0.5145174,-0.50798035,-0.50608647,-0.5088968,-0.5098437,-0.5070334,-0.50235975,-0.49954945,-0.50235975,-0.50798035,-0.513601,-0.51827466,-0.51827466,-0.5164113,-0.5164113,-0.5145174,-0.5107907,-0.5051701,-0.49954945,-0.49579215,-0.4976555,-0.50608647,-0.51265407,-0.5154644,-0.51170707,-0.5032761,-0.4948452,-0.4901715,-0.4901715,-0.49298185,-0.49579215,-0.4976555,-0.4976555,-0.4948452,-0.4901715,-0.48641425,-0.4873612,-0.48827755,-0.4901715,-0.4910879,-0.4901715,-0.4910879,-0.49298185,-0.49579215,-0.4976555,-0.4938982,-0.4836039,-0.4676584,-0.45079648,-0.43860823,-0.42736697,-0.42079937,-0.40674782,-0.380508,-0.34207994,-0.2924106,-0.25022525,-0.22868961,-0.23806757,-0.26803416,-0.2980312,-0.3139767,-0.31302977,-0.30646217,-0.31021947,-0.33270198,-0.3767507,-0.4348815,-0.49298185,-0.5351366,-0.5538924,-0.5548394,-0.54356754,-0.53794694,-0.5388939,-0.5454615,-0.5557558,-0.56137645,-0.56327033,-0.5623234,-0.55764973,-0.5520291,-0.5482718,-0.5585661,-0.58951014,-0.61669695,-0.61574996,-0.5473249,-0.3786446,-0.117162764,0.19960904,0.49389827,0.6644726,0.6654192,0.46484816,0.09932351,-0.3083561,-0.65885174,-0.8781788,-0.94471,-0.8997144,-0.8069433,-0.70852107,-0.6260443,-0.56702757,-0.5351366,-0.52484226,-0.5238954,-0.52578926,-0.520138,-0.5098437,-0.49860245,-0.48827755,-0.47984666,-0.4770363,-0.46955234,-0.45736408,-0.44331253,-0.43017733,-0.41798908,-0.41050506,-0.40769476,-0.40580088,-0.40769476,-0.40955812,-0.40580088,-0.39645344,-0.3833183,-0.37021363,-0.35802543,-0.34864753,-0.34302688,-0.33459592,-0.32240766,-0.3074091,-0.28960025,-0.27365476,-0.25679284,-0.24087787,-0.21931177,-0.19588226,-0.16964245,-0.13964528,-0.10873181,-0.079681635,-0.052494824,-0.028118432,-0.006552279,0.012173057,0.03468609,0.06092596,0.08902907,0.11245859,0.12840414,0.1368351,0.1424557,0.1490233,0.15745437,0.16307485,0.16026461,0.14712942,0.119942665,0.080598116,0.030928731,-0.023444712,-0.07684076,-0.13026744,-0.18274707,-0.23806757,-0.2952209,-0.35145783,-0.40393746,-0.4479862,-0.48265696,-0.5107907,-0.5351366,-0.55764973,-0.5773219,-0.59326744,-0.6007514,-0.6016984,-0.59794116,-0.59326744,-0.59326744,-0.59607774,-0.59607774,-0.59232044,-0.58388954,-0.5773219,-0.5745116,-0.5745116,-0.5754586,-0.576375,-0.57356465,-0.5726483,-0.5717013,-0.568891,-0.5641867,-0.5623234,-0.5623234,-0.5623234,-0.56046,-0.55764973,-0.5510821,-0.5464084,-0.54356754,-0.5417042,-0.5388939,-0.5342202,-0.5323263,-0.5323263,-0.5323263,-0.5342202,-0.5370305,-0.5388939,-0.5398408,-0.5398408,-0.53794694,-0.5351366,-0.5351366,-0.5370305,-0.5398408,-0.5417042,-0.5407572,-0.5388939,-0.53794694,-0.5398408,-0.5426512,-0.54356754,-0.5388939,-0.529516,-0.522032,-0.5164113,-0.522032,-0.529516,-0.5351366,-0.5370305,-0.5304629,-0.521085,-0.513601,-0.5051701,-0.49298185,-0.47608936,-0.45922744,-0.44984955,-0.44612277,-0.43955523,-0.41331542,-0.36831975,-0.31865042,-0.2839796,-0.28303266,-0.3074091,-0.33832264,-0.3589418,-0.3636461,-0.3589418,-0.35426813,-0.3655094,-0.39736986,-0.44893312,-0.5088968,-0.56046,-0.59137356,-0.59888804,-0.5904571,-0.58107924,-0.5745116,-0.57356465,-0.5745116,-0.5773219,-0.58013225,-0.57918525,-0.576375,-0.5717013,-0.5660807,-0.57075435,-0.58575284,-0.61574996,-0.6419898,-0.6345058,-0.5717013,-0.41707265,-0.17058945,0.13402474,0.43579805,0.6307181,0.6672827,0.50703347,0.16869557,-0.23431027,-0.6026148,-0.84537137,-0.9343852,-0.8997144,-0.804133,-0.70198405,-0.61950725,-0.5595131,-0.529516,-0.51827466,-0.5154644,-0.51265407,-0.5070334,-0.49860245,-0.48922455,-0.47798324,-0.46579504,-0.45736408,-0.45079648,-0.4479862,-0.44517583,-0.43860823,-0.4320407,-0.42360973,-0.41707265,-0.40955812,-0.40299052,-0.39736986,-0.3898859,-0.38237137,-0.3758343,-0.3636461,-0.35240477,-0.34113294,-0.33083868,-0.32240766,-0.31302977,-0.30084157,-0.2886533,-0.27273834,-0.25587648,-0.23431027,-0.21088082,-0.1893146,-0.16869545,-0.14715981,-0.12278342,-0.09559661,-0.06654644,-0.03654939,-0.010309577,0.016877174,0.044980407,0.07216716,0.09559667,0.115268946,0.13213086,0.14526606,0.15464401,0.16118097,0.16026461,0.15650725,0.14431906,0.1255939,0.09932351,0.061842322,0.016877174,-0.03654939,-0.09559661,-0.15745413,-0.21931177,-0.2755487,-0.32616496,-0.37021363,-0.40861118,-0.44517583,-0.47517294,-0.49860245,-0.51922166,-0.5351366,-0.5492188,-0.56327033,-0.5726483,-0.58107924,-0.58480597,-0.58761626,-0.58761626,-0.58669984,-0.58388954,-0.5819956,-0.57918525,-0.5754586,-0.57075435,-0.5660807,-0.56327033,-0.5623234,-0.56327033,-0.5623234,-0.5595131,-0.5520291,-0.54451454,-0.5370305,-0.53140986,-0.529516,-0.529516,-0.529516,-0.5238954,-0.51827466,-0.5145174,-0.51170707,-0.51170707,-0.5107907,-0.5098437,-0.5098437,-0.51265407,-0.51922166,-0.5238954,-0.5238954,-0.522032,-0.51922166,-0.51922166,-0.522032,-0.52484226,-0.521085,-0.5145174,-0.5088968,-0.5051701,-0.50608647,-0.5098437,-0.513601,-0.5173277,-0.5173277,-0.51827466,-0.51827466,-0.51827466,-0.522032,-0.5238954,-0.5229789,-0.5164113,-0.49954945,-0.47608936,-0.45174342,-0.43298763,-0.42360973,-0.418936,-0.40488446,-0.3739404,-0.33178562,-0.2914636,-0.2708444,-0.27741206,-0.29992515,-0.32616496,-0.34302688,-0.34583718,-0.34397382,-0.34489024,-0.3589418,-0.39083284,-0.43860823,-0.4938982,-0.5417042,-0.5726483,-0.58575284,-0.58480597,-0.58107924,-0.5773219,-0.5782689,-0.57918525,-0.57918525,-0.58107924,-0.5782689,-0.5773219,-0.5745116,-0.57075435,-0.57356465,-0.5885632,-0.61950725,-0.6504208,-0.6504208,-0.59232044,-0.43955523,-0.1874513,0.13213086,0.4610908,0.686955,0.7478962,0.60447824,0.26617086,-0.14902323,-0.5267056,-0.7741359,-0.86409664,-0.8294259,-0.7413285,-0.66166204,-0.6054251,-0.56794405,-0.5464084,-0.5360836,-0.5342202,-0.5323263,-0.5285996,-0.520138,-0.5070334,-0.4976555,-0.49203485,-0.48827755,-0.48641425,-0.4807936,-0.474226,-0.46579504,-0.46112138,-0.45922744,-0.45736408,-0.45550072,-0.45079648,-0.4442289,-0.43579793,-0.4255036,-0.4161257,-0.40580088,-0.3992638,-0.39455956,-0.3889389,-0.38237137,-0.3692667,-0.35426813,-0.33832264,-0.32051378,-0.3017885,-0.27930593,-0.25587648,-0.23336333,-0.20993382,-0.18555737,-0.15840113,-0.12935096,-0.09654361,-0.06373614,-0.03187567,-1.5199184e-05,0.026224613,0.052464485,0.075894,0.09651315,0.115268946,0.1293205,0.14056182,0.14712942,0.14993966,0.14807642,0.13964534,0.1236999,0.09651315,0.056221724,0.0037419796,-0.055305183,-0.118079185,-0.1780734,-0.23525727,-0.28960025,-0.34021652,-0.38426524,-0.4226933,-0.45641714,-0.4836039,-0.5088968,-0.5285996,-0.54356754,-0.5557558,-0.56327033,-0.56702757,-0.56794405,-0.56702757,-0.5660807,-0.5623234,-0.5623234,-0.5623234,-0.5641867,-0.56702757,-0.56702757,-0.5660807,-0.56046,-0.5538924,-0.5492188,-0.54356754,-0.5407572,-0.5388939,-0.5388939,-0.53794694,-0.5370305,-0.5360836,-0.5342202,-0.5323263,-0.5304629,-0.5267056,-0.5267056,-0.53140986,-0.5370305,-0.5426512,-0.54356754,-0.5398408,-0.5351366,-0.5323263,-0.5304629,-0.529516,-0.5285996,-0.5276526,-0.5276526,-0.5276526,-0.5276526,-0.5285996,-0.529516,-0.5304629,-0.5285996,-0.5238954,-0.51922166,-0.5173277,-0.51827466,-0.521085,-0.5238954,-0.5267056,-0.5285996,-0.529516,-0.5267056,-0.521085,-0.5164113,-0.51265407,-0.51170707,-0.51265407,-0.51170707,-0.51170707,-0.5107907,-0.5107907,-0.51170707,-0.5098437,-0.50798035,-0.5051701,-0.5042231,-0.5051701,-0.5042231,-0.5032761,-0.50141275,-0.49954945,-0.4976555,-0.49579215,-0.4938982,-0.4901715,-0.48265696,-0.46674198,-0.4442289,-0.4217463,-0.40488446,-0.3955065,-0.3861286,-0.3636461,-0.32616496,-0.2811693,-0.24555159,-0.23431027,-0.24649853,-0.27273834,-0.2980312,-0.3139767,-0.31678706,-0.31208283,-0.3139767,-0.32897526,-0.3664564,-0.41988295,-0.474226,-0.51827466,-0.5417042,-0.5454615,-0.5398408,-0.53140986,-0.5267056,-0.52578926,-0.5267056,-0.529516,-0.5304629,-0.5304629,-0.529516,-0.529516,-0.53140986,-0.5407572,-0.5660807,-0.60450876,-0.62885463,-0.60731906,-0.5051701,-0.29335755,0.012173057,0.37299347,0.69633305,0.87066424,0.8547187,0.61666644,0.22303855,-0.19401896,-0.52578926,-0.71133137,-0.7507064,-0.6982267,-0.63166493,-0.58480597,-0.55764973,-0.5398408,-0.5267056,-0.51827466,-0.51170707,-0.5070334,-0.50141275,-0.49298185,-0.48265696,-0.474226,-0.4676584,-0.46484804,-0.46298474,-0.46112138,-0.45455378,-0.4479862,-0.44050217,-0.43298763,-0.4255036,-0.41798908,-0.41236842,-0.40861118,-0.40674782,-0.4020741,-0.39455956,-0.38426524,-0.372077,-0.36083573,-0.34959447,-0.33459592,-0.32051378,-0.3055458,-0.2905472,-0.27741206,-0.2624135,-0.24741489,-0.22960609,-0.20807046,-0.18369395,-0.15464383,-0.12373036,-0.09464973,-0.06559956,-0.03654939,-0.006552279,0.022497892,0.052464485,0.07965124,0.10216439,0.1236999,0.14056182,0.15275002,0.16026461,0.16399133,0.16588521,0.16493821,0.16026461,0.1490233,0.12745714,0.09746003,0.054358244,0.004688978,-0.049684525,-0.10592151,-0.16026449,-0.21369112,-0.26430738,-0.31208283,-0.35613155,-0.39455956,-0.43017733,-0.46017438,-0.48455083,-0.50235975,-0.5154644,-0.52578926,-0.5323263,-0.53794694,-0.5426512,-0.5426512,-0.5417042,-0.5398408,-0.53794694,-0.5351366,-0.5323263,-0.5332732,-0.5342202,-0.5342202,-0.5342202,-0.5304629,-0.52484226,-0.51922166,-0.5154644,-0.513601,-0.513601,-0.5154644,-0.51827466,-0.521085,-0.522032,-0.520138,-0.5173277,-0.5145174,-0.513601,-0.5154644,-0.5164113,-0.5164113,-0.5154644,-0.5154644,-0.5154644,-0.5145174,-0.51265407,-0.51265407,-0.513601,-0.5154644,-0.5154644,-0.5164113,-0.51827466,-0.51922166,-0.51922166,-0.5164113,-0.5107907,-0.5070334,-0.50608647,-0.5070334,-0.5070334,-0.50798035,-0.5070334,-0.50608647,-0.5051701,-0.5032761,-0.50235975,-0.5004658,-0.49860245,-0.49860245,-0.49954945,-0.50235975,-0.5051701,-0.50608647,-0.50608647,-0.5032761,-0.50235975,-0.50235975,-0.5042231,-0.5051701,-0.5042231,-0.5042231,-0.5032761,-0.50235975,-0.50235975,-0.5004658,-0.49954945,-0.49954945,-0.50141275,-0.50235975,-0.5004658,-0.4976555,-0.4938982,-0.4910879,-0.4901715,-0.48827755,-0.48641425,-0.4836039,-0.48265696,-0.48174053,-0.4807936,-0.4807936,-0.4807936,-0.47893023,-0.474226,-0.4704687,-0.4686054,-0.46955234,-0.47327906,-0.47608936,-0.47608936,-0.47608936,-0.47608936,-0.47798324,-0.47798324,-0.47517294,-0.4714157,-0.46484804,-0.46017438,-0.45831102,-0.45641714,-0.45736408,-0.45831102,-0.45922744,-0.45922744,-0.45550072,-0.44517583,-0.4255036,-0.40393746,-0.38145494,-0.36456245,-0.35613155,-0.34397382,-0.31678706,-0.27365476,-0.22493243,-0.19212496,-0.1883983,-0.21182775,-0.24460459,-0.26803416,-0.27741206,-0.2755487,-0.2708444,-0.27460176,-0.2952209,-0.33926958,-0.39455956,-0.44893312,-0.48546726,-0.4976555,-0.49579215,-0.48827755,-0.48546726,-0.4873612,-0.4901715,-0.49298185,-0.4938982,-0.49579215,-0.49579215,-0.49579215,-0.50141275,-0.520138,-0.55670273,-0.58951014,-0.58013225,-0.5004658,-0.31208283,-0.018740535,0.340186,0.69352245,0.9081454,0.9353322,0.7394346,0.35518467,-0.080598116,-0.45455378,-0.68790185,-0.76289463,-0.72446656,-0.6476104,-0.58761626,-0.5520291,-0.5304629,-0.5154644,-0.5032761,-0.49579215,-0.49203485,-0.4901715,-0.4873612,-0.47893023,-0.46955234,-0.45831102,-0.4479862,-0.4414186,-0.43769187,-0.43393457,-0.43017733,-0.42736697,-0.42360973,-0.41707265,-0.40955812,-0.3992638,-0.3898859,-0.38426524,-0.3786446,-0.3739404,-0.3664564,-0.3570785,-0.34583718,-0.33364892,-0.32427108,-0.31584007,-0.3045988,-0.2905472,-0.2717914,-0.24930888,-0.22868961,-0.21088082,-0.19307196,-0.17150575,-0.14902323,-0.12373036,-0.10121727,-0.078734696,-0.052494824,-0.025308132,0.004688978,0.03279221,0.059978962,0.085271835,0.10683787,0.12651014,0.1415087,0.15088665,0.15650725,0.15931761,0.16118097,0.16026461,0.15745437,0.1490233,0.1312145,0.10497463,0.06840992,0.025308132,-0.021550894,-0.0721671,-0.12464678,-0.17712641,-0.23055303,-0.2811693,-0.32708138,-0.3692667,-0.40769476,-0.44050217,-0.4676584,-0.48922455,-0.5042231,-0.5154644,-0.52578926,-0.5342202,-0.5417042,-0.54451454,-0.54356754,-0.5398408,-0.5351366,-0.5342202,-0.5323263,-0.5304629,-0.5285996,-0.52484226,-0.522032,-0.51827466,-0.51827466,-0.51827466,-0.5173277,-0.5173277,-0.513601,-0.5098437,-0.50608647,-0.5032761,-0.5051701,-0.50608647,-0.50798035,-0.5107907,-0.51265407,-0.5145174,-0.5164113,-0.5173277,-0.5173277,-0.5173277,-0.5164113,-0.5164113,-0.5173277,-0.51827466,-0.5173277,-0.5164113,-0.513601,-0.51170707,-0.51170707,-0.51170707,-0.51170707,-0.5098437,-0.5088968,-0.50798035,-0.50608647,-0.50608647,-0.5051701,-0.5070334,-0.50608647,-0.5042231,-0.5042231,-0.5032761,-0.50235975,-0.5051701,-0.5070334,-0.5088968,-0.5107907,-0.51170707,-0.5098437,-0.5088968,-0.50798035,-0.50798035,-0.5088968,-0.50798035,-0.5042231,-0.5004658,-0.4976555,-0.4967085,-0.4967085,-0.49579215,-0.4948452,-0.4938982,-0.49298185,-0.49203485,-0.4901715,-0.48922455,-0.48922455,-0.48922455,-0.48922455,-0.48922455,-0.4910879,-0.4901715,-0.48827755,-0.48265696,-0.4770363,-0.47327906,-0.47327906,-0.47236264,-0.4714157,-0.4676584,-0.46484804,-0.46298474,-0.4620378,-0.4620378,-0.46298474,-0.46579504,-0.4704687,-0.47608936,-0.4770363,-0.474226,-0.4704687,-0.46579504,-0.46484804,-0.46579504,-0.46674198,-0.4676584,-0.46579504,-0.4620378,-0.45641714,-0.44984955,-0.44236553,-0.43112427,-0.4161257,-0.3955065,-0.3767507,-0.36456245,-0.3533212,-0.33926958,-0.3111664,-0.26803416,-0.22398543,-0.19588226,-0.19869256,-0.22493243,-0.25773978,-0.2821163,-0.28960025,-0.2849266,-0.28022236,-0.2877369,-0.31865042,-0.37021363,-0.43298763,-0.48827755,-0.522032,-0.53140986,-0.52484226,-0.51922166,-0.51922166,-0.52484226,-0.5342202,-0.5351366,-0.5323263,-0.5238954,-0.51265407,-0.50798035,-0.51265407,-0.5370305,-0.576375,-0.6082354,-0.6016984,-0.521085,-0.33270198,-0.040306628,0.31584013,0.65885186,0.86409676,0.8772013,0.6747668,0.28770638,-0.1508866,-0.5285996,-0.7694622,-0.8481817,-0.8050494,-0.71133137,-0.6251279,-0.5641867,-0.52484226,-0.5032761,-0.49203485,-0.48827755,-0.48455083,-0.4807936,-0.4770363,-0.47236264,-0.4676584,-0.46393168,-0.45641714,-0.44517583,-0.43393457,-0.42360973,-0.41988295,-0.41988295,-0.418936,-0.41517872,-0.40861118,-0.40018022,-0.39083284,-0.38237137,-0.37488735,-0.3655094,-0.3570785,-0.34959447,-0.33926958,-0.33083868,-0.32240766,-0.3139767,-0.3045988,-0.2924106,-0.27741206,-0.25868678,-0.23806757,-0.21555442,-0.19401896,-0.17339969,-0.1508866,-0.12840402,-0.10121727,-0.07122022,-0.041253626,-0.009362578,0.018740535,0.044033527,0.06746304,0.08716571,0.10308063,0.116215825,0.12651014,0.13869834,0.15088665,0.16399133,0.17055881,0.16964257,0.15837061,0.14056182,0.115268946,0.086218715,0.050601006,0.0065523386,-0.042170048,-0.09278631,-0.14715981,-0.19869256,-0.24930888,-0.29992515,-0.3467841,-0.3898859,-0.42455667,-0.45174342,-0.47608936,-0.49579215,-0.5145174,-0.53140986,-0.5454615,-0.55670273,-0.56327033,-0.56702757,-0.5660807,-0.56327033,-0.56137645,-0.56137645,-0.5595131,-0.5585661,-0.5548394,-0.5510821,-0.5492188,-0.5482718,-0.5510821,-0.5492188,-0.54356754,-0.5370305,-0.5304629,-0.5238954,-0.51922166,-0.5173277,-0.513601,-0.51265407,-0.5107907,-0.5107907,-0.5107907,-0.5098437,-0.5098437,-0.50798035,-0.5051701,-0.5042231,-0.5051701,-0.5088968,-0.51265407,-0.5164113,-0.51827466,-0.5164113,-0.5145174,-0.5107907,-0.5088968,-0.51170707,-0.5164113,-0.5229789,-0.52484226,-0.522032,-0.5164113,-0.5098437,-0.5051701,-0.5042231,-0.5042231,-0.5070334,-0.50798035,-0.5107907,-0.5107907,-0.5107907,-0.50798035,-0.5051701,-0.50141275,-0.49860245,-0.49860245,-0.50141275,-0.50235975,-0.5051701,-0.50608647,-0.5051701,-0.5032761,-0.5004658,-0.5004658,-0.5004658,-0.5004658,-0.5004658,-0.5004658,-0.5032761,-0.5042231,-0.5032761,-0.49954945,-0.4938982,-0.4901715,-0.48827755,-0.48827755,-0.4901715,-0.4910879,-0.4910879,-0.48641425,-0.47517294,-0.45736408,-0.43674493,-0.41707265,-0.40299052,-0.39364314,-0.379561,-0.3533212,-0.31489313,-0.2708444,-0.23806757,-0.23336333,-0.25117224,-0.2811693,-0.30365187,-0.31208283,-0.31021947,-0.30927247,-0.32427108,-0.35988873,-0.41331542,-0.4704687,-0.5145174,-0.5398408,-0.5407572,-0.5323263,-0.5238954,-0.51827466,-0.51922166,-0.522032,-0.5267056,-0.5285996,-0.529516,-0.52578926,-0.522032,-0.520138,-0.5285996,-0.5520291,-0.58107924,-0.58575284,-0.5360836,-0.39831686,-0.15931755,0.14526606,0.4564172,0.6672827,0.7141417,0.5641868,0.22303855,-0.19401896,-0.5773219,-0.8434774,-0.9484673,-0.9212805,-0.8228583,-0.71322525,-0.61950725,-0.5482718,-0.50798035,-0.48922455,-0.48265696,-0.48174053,-0.47798324,-0.4714157,-0.46112138,-0.4479862,-0.4348815,-0.42360973,-0.41517872,-0.40769476,-0.40299052,-0.40112716,-0.3955065,-0.39174926,-0.3861286,-0.38237137,-0.380508,-0.3758343,-0.37021363,-0.36175215,-0.35426813,-0.34583718,-0.33832264,-0.32897526,-0.3177035,-0.3055458,-0.29335755,-0.27930593,-0.2652238,-0.24930888,-0.23336333,-0.21744841,-0.20150292,-0.18369395,-0.16402179,-0.13778198,-0.10873181,-0.07778776,-0.047790706,-0.017824113,0.012173057,0.042170048,0.07216716,0.10027039,0.1246469,0.14712942,0.16399133,0.17712653,0.18461049,0.19026172,0.19493532,0.19774568,0.19588232,0.18555737,0.16399133,0.13307774,0.09370279,0.047790766,-0.0028254986,-0.055305183,-0.111542165,-0.16869545,-0.22868961,-0.28960025,-0.34770054,-0.3992638,-0.44050217,-0.47327906,-0.49860245,-0.51922166,-0.5342202,-0.5464084,-0.55670273,-0.5660807,-0.5754586,-0.57918525,-0.5782689,-0.57356465,-0.57075435,-0.5698379,-0.5726483,-0.57356465,-0.5726483,-0.5717013,-0.5698379,-0.5698379,-0.56794405,-0.56327033,-0.56137645,-0.5585661,-0.5595131,-0.56137645,-0.5585661,-0.55764973,-0.5557558,-0.5529455,-0.5529455,-0.5520291,-0.5510821,-0.5482718,-0.5407572,-0.5342202,-0.529516,-0.52578926,-0.52484226,-0.5238954,-0.5229789,-0.5238954,-0.53140986,-0.5388939,-0.5464084,-0.5464084,-0.5426512,-0.5388939,-0.5360836,-0.53794694,-0.5407572,-0.5388939,-0.5360836,-0.53140986,-0.52578926,-0.52484226,-0.52578926,-0.5285996,-0.53140986,-0.5342202,-0.5370305,-0.53794694,-0.53794694,-0.5342202,-0.5285996,-0.522032,-0.520138,-0.520138,-0.522032,-0.5229789,-0.51922166,-0.5070334,-0.49203485,-0.474226,-0.45922744,-0.45079648,-0.4442289,-0.43017733,-0.40299052,-0.35988873,-0.31489313,-0.28303266,-0.27741206,-0.2924106,-0.3177035,-0.33740628,-0.34583718,-0.34864753,-0.34864753,-0.3589418,-0.3889389,-0.4348815,-0.4948452,-0.5454615,-0.5745116,-0.58107924,-0.5745116,-0.5698379,-0.57075435,-0.576375,-0.5782689,-0.57356465,-0.56702757,-0.5623234,-0.5585661,-0.55670273,-0.5538924,-0.5510821,-0.55670273,-0.5819956,-0.6082354,-0.60731906,-0.5482718,-0.3926962,-0.14526594,0.15556037,0.4395553,0.60918236,0.62323415,0.4451759,0.10027039,-0.2989782,-0.65509444,-0.88285244,-0.9512776,-0.90066135,-0.79661846,-0.6991432,-0.62231755,-0.568891,-0.5351366,-0.51922166,-0.51265407,-0.50798035,-0.5051701,-0.50235975,-0.4967085,-0.49203485,-0.48455083,-0.47893023,-0.47517294,-0.47236264,-0.4686054,-0.46112138,-0.44984955,-0.44050217,-0.43769187,-0.44050217,-0.44050217,-0.43674493,-0.42642003,-0.41426235,-0.4020741,-0.39174926,-0.38237137,-0.37021363,-0.35613155,-0.34397382,-0.32989168,-0.31865042,-0.30646217,-0.28960025,-0.2717914,-0.25398254,-0.23241639,-0.21182775,-0.1874513,-0.16307479,-0.13778198,-0.111542165,-0.08716565,-0.05906248,-0.029981792,-0.0018786192,0.028118491,0.057168603,0.081545115,0.10027039,0.115268946,0.12840414,0.14056182,0.15088665,0.15745437,0.15464401,0.14431906,0.12651014,0.09932351,0.059978962,0.012173057,-0.042170048,-0.09840691,-0.15559083,-0.21182775,-0.26711774,-0.32146072,-0.37113005,-0.41517872,-0.45736408,-0.49203485,-0.5229789,-0.5473249,-0.56327033,-0.5754586,-0.58294255,-0.5885632,-0.59418386,-0.5998045,-0.60450876,-0.6054251,-0.60450876,-0.6026148,-0.6007514,-0.6026148,-0.60450876,-0.6026148,-0.59794116,-0.5904571,-0.58480597,-0.5819956,-0.58388954,-0.58669984,-0.58669984,-0.58669984,-0.58388954,-0.58107924,-0.576375,-0.5726483,-0.56702757,-0.5595131,-0.5520291,-0.5454615,-0.5426512,-0.5426512,-0.54451454,-0.5473249,-0.5492188,-0.5492188,-0.5482718,-0.54356754,-0.5388939,-0.5370305,-0.5370305,-0.5407572,-0.5398408,-0.53794694,-0.53140986,-0.52484226,-0.521085,-0.520138,-0.520138,-0.521085,-0.522032,-0.5229789,-0.522032,-0.521085,-0.520138,-0.520138,-0.522032,-0.5229789,-0.520138,-0.5107907,-0.49298185,-0.474226,-0.45641714,-0.4442289,-0.43579793,-0.42360973,-0.39831686,-0.35613155,-0.31021947,-0.27365476,-0.2652238,-0.285843,-0.31865042,-0.34770054,-0.35988873,-0.3570785,-0.34959447,-0.34864753,-0.36831975,-0.41236842,-0.4704687,-0.5304629,-0.57075435,-0.58480597,-0.5782689,-0.5660807,-0.55670273,-0.5557558,-0.56046,-0.5641867,-0.56794405,-0.57356465,-0.5745116,-0.5745116,-0.5726483,-0.5745116,-0.5885632,-0.61669695,-0.6419898,-0.63355887,-0.5641867,-0.40018022,-0.13964528,0.17617953,0.48733068,0.678524,0.70195365,0.52575874,0.17055881,-0.23993093,-0.59794116,-0.8266155,-0.8959571,-0.8462877,-0.7516534,-0.6672827,-0.6082354,-0.5698379,-0.5464084,-0.53140986,-0.522032,-0.5173277,-0.513601,-0.5088968,-0.50141275,-0.49298185,-0.48455083,-0.47608936,-0.46955234,-0.46298474,-0.45550072,-0.44612277,-0.43674493,-0.43112427,-0.42736697,-0.42736697,-0.4283139,-0.42360973,-0.41517872,-0.40674782,-0.39831686,-0.39364314,-0.39174926,-0.38518167,-0.3739404,-0.35802543,-0.34021652,-0.32427108,-0.3111664,-0.2989782,-0.2839796,-0.2652238,-0.24087787,-0.21369112,-0.18369395,-0.15650725,-0.13121432,-0.10402757,-0.07684076,-0.048737586,-0.019687474,0.007499218,0.03468609,0.0581156,0.07870424,0.09651315,0.10964823,0.122752905,0.13213086,0.13964534,0.14337218,0.14056182,0.13402474,0.117132306,0.08902907,0.047790766,-0.00374192,-0.06278926,-0.11997312,-0.17620999,-0.23336333,-0.2905472,-0.34583718,-0.3955065,-0.4348815,-0.46674198,-0.4948452,-0.51922166,-0.5398408,-0.5557558,-0.5660807,-0.5717013,-0.5745116,-0.576375,-0.576375,-0.5782689,-0.5819956,-0.58294255,-0.58294255,-0.58013225,-0.5754586,-0.5726483,-0.5698379,-0.56702757,-0.56137645,-0.5557558,-0.5520291,-0.55013514,-0.55013514,-0.5520291,-0.5529455,-0.5557558,-0.55764973,-0.55764973,-0.5557558,-0.5538924,-0.5510821,-0.5482718,-0.5464084,-0.54451454,-0.5454615,-0.55013514,-0.5520291,-0.5538924,-0.5492188,-0.5407572,-0.5342202,-0.529516,-0.529516,-0.5323263,-0.5360836,-0.53794694,-0.5360836,-0.5342202,-0.5332732,-0.5332732,-0.5351366,-0.5360836,-0.5360836,-0.5360836,-0.5360836,-0.5370305,-0.5370305,-0.5360836,-0.5323263,-0.5285996,-0.52578926,-0.52484226,-0.52578926,-0.5267056,-0.5238954,-0.521085,-0.5173277,-0.5164113,-0.5164113,-0.5145174,-0.51170707,-0.50798035,-0.5051701,-0.50141275,-0.49860245,-0.49203485,-0.4770363,-0.45831102,-0.43769187,-0.4226933,-0.4161257,-0.41050506,-0.39174926,-0.3589418,-0.31489313,-0.278359,-0.26149708,-0.2717914,-0.29616785,-0.32335466,-0.34207994,-0.34864753,-0.34864753,-0.3505109,-0.36456245,-0.3955065,-0.4442289,-0.49954945,-0.5454615,-0.5698379,-0.5745116,-0.56794405,-0.5623234,-0.5623234,-0.5651337,-0.56794405,-0.56794405,-0.56702757,-0.5641867,-0.55764973,-0.55013514,-0.5426512,-0.5473249,-0.57075435,-0.6119927,-0.6410428,-0.6213707,-0.521085,-0.3111664,-0.008446157,0.34489036,0.6626091,0.8303423,0.8144274,0.57918537,0.18836772,-0.22398543,-0.5529455,-0.7347609,-0.7694622,-0.7160356,-0.6485574,-0.60356176,-0.5773219,-0.56046,-0.5464084,-0.5342202,-0.5267056,-0.5229789,-0.521085,-0.521085,-0.5164113,-0.5098437,-0.49954945,-0.4873612,-0.47893023,-0.4704687,-0.46484804,-0.46112138,-0.45736408,-0.45265985,-0.4442289,-0.43769187,-0.43298763,-0.4283139,-0.42455667,-0.4161257,-0.40674782,-0.3955065,-0.38518167,-0.3758343,-0.36456245,-0.35240477,-0.33551234,-0.31959736,-0.30365187,-0.285843,-0.26803416,-0.25022525,-0.23055303,-0.21274412,-0.19307196,-0.17339969,-0.14807624,-0.11997312,-0.08811265,-0.054358244,-0.025308132,0.0009317398,0.024361253,0.045927405,0.06840992,0.08902907,0.10683787,0.122752905,0.13307774,0.1415087,0.14431906,0.14337218,0.1368351,0.12183654,0.09746003,0.0637362,0.021550894,-0.026255012,-0.07592434,-0.12464678,-0.1752631,-0.22587931,-0.28022236,-0.33083868,-0.37488735,-0.41331542,-0.44236553,-0.4686054,-0.49579215,-0.5173277,-0.5342202,-0.5454615,-0.5510821,-0.5529455,-0.5548394,-0.55670273,-0.5585661,-0.55764973,-0.5557558,-0.5492188,-0.5417042,-0.5351366,-0.53140986,-0.53140986,-0.53140986,-0.53140986,-0.5276526,-0.52484226,-0.5229789,-0.520138,-0.51827466,-0.513601,-0.50798035,-0.5051701,-0.5042231,-0.5051701,-0.5070334,-0.5070334,-0.5088968,-0.50798035,-0.50798035,-0.5070334,-0.5070334,-0.50798035,-0.5098437,-0.513601,-0.5145174,-0.5145174,-0.513601,-0.5107907,-0.50798035,-0.5042231,-0.50141275,-0.49954945,-0.4967085,-0.4967085,-0.49579215,-0.49579215,-0.4976555,-0.49954945,-0.50235975,-0.5032761,-0.5042231,-0.50608647,-0.50608647,-0.5070334,-0.5070334,-0.50608647,-0.5051701,-0.5032761,-0.50235975,-0.50141275,-0.50235975,-0.5051701,-0.5042231,-0.49954945,-0.4948452,-0.48922455,-0.48922455,-0.4910879,-0.4938982,-0.4938982,-0.4910879,-0.48922455,-0.48641425,-0.48546726,-0.4836039,-0.4807936,-0.47893023,-0.4770363,-0.47798324,-0.47893023,-0.4807936,-0.48265696,-0.48265696,-0.4836039,-0.48546726,-0.48455083,-0.47984666,-0.4676584,-0.44517583,-0.41988295,-0.39831686,-0.3861286,-0.38145494,-0.37769765,-0.35521513,-0.31584007,-0.26617074,-0.22306901,-0.20617658,-0.21744841,-0.24555159,-0.27460176,-0.2924106,-0.2980312,-0.2952209,-0.29616785,-0.3139767,-0.35145783,-0.40861118,-0.4676584,-0.513601,-0.5407572,-0.5464084,-0.5417042,-0.5351366,-0.5304629,-0.5285996,-0.5285996,-0.529516,-0.529516,-0.5285996,-0.5285996,-0.529516,-0.5370305,-0.55764973,-0.59607774,-0.6279383,-0.6185603,-0.5342202,-0.33832264,-0.03749633,0.3242712,0.6729033,0.87533784,0.88847315,0.680418,0.29146373,-0.14245564,-0.50608647,-0.7263299,-0.78913444,-0.7413285,-0.6607456,-0.6007514,-0.5623234,-0.5388939,-0.522032,-0.5070334,-0.4976555,-0.49298185,-0.49298185,-0.49203485,-0.49203485,-0.48922455,-0.4807936,-0.4714157,-0.46484804,-0.45831102,-0.45265985,-0.44517583,-0.43769187,-0.43017733,-0.4226933,-0.41707265,-0.41145205,-0.40580088,-0.40018022,-0.39364314,-0.3861286,-0.3767507,-0.36740333,-0.3570785,-0.34489024,-0.33364892,-0.32335466,-0.31489313,-0.3055458,-0.2905472,-0.2708444,-0.24930888,-0.22774273,-0.20617658,-0.18274707,-0.15650725,-0.12935096,-0.10311115,-0.079681635,-0.05625218,-0.029981792,0.0009317398,0.03373909,0.061842322,0.086218715,0.10402763,0.116215825,0.12651014,0.13775146,0.14621305,0.1536969,0.15837061,0.15464401,0.1424557,0.1246469,0.10027039,0.07122016,0.03468609,-0.010309577,-0.06187284,-0.115268886,-0.16777909,-0.21836478,-0.2652238,-0.31208283,-0.35613155,-0.39645344,-0.43393457,-0.46298474,-0.4836039,-0.49860245,-0.5088968,-0.51827466,-0.5276526,-0.5370305,-0.54451454,-0.5473249,-0.5473249,-0.54451454,-0.5398408,-0.5360836,-0.5332732,-0.5332732,-0.5323263,-0.5285996,-0.522032,-0.513601,-0.50798035,-0.50608647,-0.5070334,-0.50608647,-0.50141275,-0.4967085,-0.49298185,-0.49203485,-0.49579215,-0.49860245,-0.49954945,-0.49860245,-0.4948452,-0.49298185,-0.49298185,-0.49579215,-0.50141275,-0.50235975,-0.50235975,-0.49954945,-0.49579215,-0.4967085,-0.4967085,-0.49579215,-0.49203485,-0.4901715,-0.4901715,-0.49298185,-0.49298185,-0.4901715,-0.4873612,-0.4873612,-0.4901715,-0.4967085,-0.50235975,-0.50608647,-0.5088968,-0.50798035,-0.5042231,-0.5004658,-0.4976555,-0.4976555,-0.4976555,-0.4967085,-0.49298185,-0.4901715,-0.4901715,-0.4910879,-0.4938982,-0.4948452,-0.49579215,-0.4976555,-0.49860245,-0.49954945,-0.4976555,-0.4976555,-0.4976555,-0.49954945,-0.50141275,-0.5004658,-0.4976555,-0.49203485,-0.48641425,-0.4836039,-0.47984666,-0.47893023,-0.47798324,-0.4770363,-0.47608936,-0.474226,-0.47327906,-0.47327906,-0.47236264,-0.4704687,-0.46579504,-0.46112138,-0.45641714,-0.45550072,-0.45831102,-0.46112138,-0.46484804,-0.46484804,-0.45550072,-0.43860823,-0.41331542,-0.3889389,-0.37113005,-0.3626991,-0.35521513,-0.33270198,-0.29335755,-0.24368823,-0.20431322,-0.19401896,-0.21369112,-0.24930888,-0.28022236,-0.2952209,-0.2952209,-0.2877369,-0.2886533,-0.3083561,-0.3505109,-0.41236842,-0.474226,-0.520138,-0.5398408,-0.53794694,-0.529516,-0.52484226,-0.52578926,-0.5304629,-0.5360836,-0.5388939,-0.5398408,-0.5398408,-0.5398408,-0.5417042,-0.5520291,-0.576375,-0.6082354,-0.6176133,-0.5745116,-0.44236553,-0.19682914,0.1312145,0.49389827,0.77880967,0.8875263,0.79194486,0.47514248,0.04122317,-0.37488735,-0.67855453,-0.8181846,-0.8144273,-0.7338445,-0.6466635,-0.58480597,-0.54451454,-0.51827466,-0.5032761,-0.4967085,-0.4976555,-0.49954945,-0.49954945,-0.4948452,-0.48546726,-0.474226,-0.46298474,-0.45265985,-0.44612277,-0.4414186,-0.44050217,-0.43860823,-0.4348815,-0.4283139,-0.41798908,-0.40861118,-0.3992638,-0.39364314,-0.3898859,-0.3861286,-0.380508,-0.37113005,-0.3589418,-0.34583718,-0.33178562,-0.31865042,-0.30646217,-0.2914636,-0.27646506,-0.25773978,-0.23993093,-0.22212207,-0.20526016,-0.18464094,-0.16121149,-0.13402462,-0.10311115,-0.0731141,-0.044980407,-0.017824113,0.009362698,0.03841281,0.06559956,0.09183943,0.11245859,0.13026738,0.14621305,0.16026461,0.17431617,0.18555737,0.19117808,0.19212508,0.18836772,0.17617953,0.15556037,0.1246469,0.084355354,0.03373909,-0.020634472,-0.07497746,-0.12745708,-0.1752631,-0.22212207,-0.2689811,-0.31489313,-0.3589418,-0.39831686,-0.4320407,-0.46017438,-0.48174053,-0.49954945,-0.51170707,-0.522032,-0.53140986,-0.53794694,-0.54451454,-0.5454615,-0.54356754,-0.5388939,-0.53140986,-0.5267056,-0.5238954,-0.52484226,-0.52578926,-0.5267056,-0.5285996,-0.5285996,-0.5285996,-0.5285996,-0.5285996,-0.5285996,-0.52578926,-0.5229789,-0.5164113,-0.5107907,-0.5098437,-0.5098437,-0.513601,-0.513601,-0.51170707,-0.5088968,-0.5070334,-0.5088968,-0.5107907,-0.5098437,-0.5051701,-0.49860245,-0.4948452,-0.4948452,-0.49860245,-0.50235975,-0.50235975,-0.4976555,-0.49298185,-0.4901715,-0.4901715,-0.4910879,-0.4948452,-0.4967085,-0.4976555,-0.5004658,-0.5004658,-0.49954945,-0.4976555,-0.4938982,-0.4910879,-0.48827755,-0.48827755,-0.4901715,-0.49203485,-0.4938982,-0.49298185,-0.49203485,-0.48922455,-0.48546726,-0.4836039,-0.48265696,-0.48546726,-0.4910879,-0.4938982,-0.4948452,-0.49203485,-0.48827755,-0.48455083,-0.48174053,-0.4807936,-0.47893023,-0.47984666,-0.4807936,-0.48174053,-0.4807936,-0.4770363,-0.47236264,-0.46955234,-0.4676584,-0.4704687,-0.47236264,-0.47608936,-0.47893023,-0.4807936,-0.48174053,-0.47798324,-0.46955234,-0.45265985,-0.42923033,-0.40674782,-0.3870756,-0.37769765,-0.3739404,-0.3626991,-0.33740628,-0.29616785,-0.24930888,-0.21555442,-0.20712358,-0.22398543,-0.25303555,-0.278359,-0.2905472,-0.2924106,-0.2905472,-0.29616785,-0.32240766,-0.37021363,-0.43393457,-0.4948452,-0.5332732,-0.5464084,-0.53794694,-0.52484226,-0.5173277,-0.5164113,-0.521085,-0.5238954,-0.52484226,-0.5238954,-0.5238954,-0.52578926,-0.5276526,-0.5398408,-0.5641867,-0.59326744,-0.59888804,-0.5454615,-0.3926962,-0.12464678,0.21931183,0.57823837,0.8228582,0.8790953,0.71789896,0.34956396,-0.09840691,-0.5004658,-0.7675683,-0.86785394,-0.8369404,-0.748843,-0.6663663,-0.6054251,-0.5641867,-0.5360836,-0.520138,-0.5164113,-0.51827466,-0.51827466,-0.5107907,-0.4967085,-0.48265696,-0.4714157,-0.46579504,-0.46017438,-0.45265985,-0.44236553,-0.43393457,-0.42923033,-0.42736697,-0.42642003,-0.4217463,-0.41236842,-0.3992638,-0.3833183,-0.373024,-0.3664564,-0.3636461,-0.36083573,-0.3533212,-0.34207994,-0.32616496,-0.31208283,-0.30084157,-0.2914636,-0.2839796,-0.2717914,-0.25492948,-0.23241639,-0.20807046,-0.18369395,-0.15931755,-0.13497162,-0.10683793,-0.07778776,-0.046874285,-0.014066815,0.017793655,0.048737764,0.075894,0.09651315,0.11245859,0.1255939,0.13775146,0.14993966,0.15837061,0.16118097,0.16212785,0.15931761,0.15464401,0.14431906,0.12183654,0.088082194,0.043117046,-0.00374192,-0.052494824,-0.10216415,-0.14997017,-0.2024498,-0.25587648,-0.31021947,-0.36083573,-0.40580088,