-0.82486975,-0.8145716,-0.79838437,-0.7924953,-0.79838437,-0.8072026,-0.8101625,-0.80279344,-0.7851571,-0.76453,-0.74689364,-0.7306756,-0.72037745,-0.7174483,-0.72037745,-0.72037745,-0.7144884,-0.7086301,-0.702741,-0.69830114,-0.69685197,-0.70126104,-0.702741,-0.70715016,-0.7159683,-0.7174483,-0.72037745,-0.7159683,-0.71007925,-0.70126104,-0.6894829,-0.6762248,-0.67329574,-0.6777048,-0.6909629,-0.71007925,-0.7218574,-0.72481734,-0.72333735,-0.7189283,-0.7159683,-0.71155924,-0.71007925,-0.7086301,-0.69978106,-0.69389206,-0.68800294,-0.6909629,-0.69830114,-0.7056702,-0.7056702,-0.69685197,-0.6924121,-0.6924121,-0.69978106,-0.70715016,-0.69978106,-0.6806648,-0.6585885,-0.6379614,-0.62032497,-0.61002684,-0.5982487,-0.5864706,-0.5761725,-0.5585053,-0.5305399,-0.50112545,-0.4746092,-0.4628619,-0.46431106,-0.45549285,-0.43930566,-0.42604756,-0.42459846,-0.458422,-0.5246509,-0.60706687,-0.68507385,-0.7380446,-0.7542318,-0.74689364,-0.73656464,-0.7277465,-0.73656464,-0.7513027,-0.7557118,-0.7527518,-0.7439337,-0.7262665,-0.7159683,-0.71007925,-0.69978106,-0.6821139,-0.6541486,-0.59528875,-0.49079645,-0.31125712,-0.09641421,0.10520148,0.25680637,0.31270623,0.21854281,-0.037523508,-0.3789659,-0.7144884,-0.9190639,-0.932322,-0.81164247,-0.6615176,-0.55409616,-0.5114236,-0.5099436,-0.5276108,-0.542318,-0.5364289,-0.5217217,-0.50698364,-0.5055345,-0.50405455,-0.48934728,-0.46579105,-0.4363457,-0.42311847,-0.42604756,-0.4348966,-0.44519472,-0.44519472,-0.44078565,-0.42752755,-0.4083804,-0.38485497,-0.3671878,-0.3568896,-0.35540968,-0.35540968,-0.35392964,-0.3436315,-0.32599515,-0.3039189,-0.27888262,-0.25387728,-0.24061912,-0.23621011,-0.23473006,-0.22443193,-0.2038356,-0.17735022,-0.15379399,-0.13319772,-0.11553055,-0.09197426,-0.055190682,-0.027225375,-0.0036999583,0.016927123,0.036043525,0.06107974,0.07726693,0.0846051,0.09638333,0.10964143,0.12434864,0.12727773,0.112570524,0.08901429,0.06252885,0.033114433,-0.009589016,-0.07578701,-0.16116309,-0.25239724,-0.33922243,-0.41426945,-0.47904915,-0.5276108,-0.5688034,-0.6041378,-0.64681035,-0.6909629,-0.7277465,-0.7380446,-0.73215556,-0.7292264,-0.7292264,-0.7439337,-0.7586409,-0.7674899,-0.77337897,-0.78367716,-0.7807172,-0.77041906,-0.76308084,-0.7571918,-0.7557118,-0.7527518,-0.73656464,-0.7144884,-0.7086301,-0.7159683,-0.72481734,-0.7218574,-0.7056702,-0.6924121,-0.6806648,-0.6747757,-0.6629976,-0.6497395,-0.6424013,-0.64385045,-0.6526995,-0.6615176,-0.6585885,-0.6497395,-0.6379614,-0.62473404,-0.6144359,-0.6144359,-0.6276632,-0.64829034,-0.6644776,-0.66888666,-0.6629976,-0.6541486,-0.64533037,-0.6424013,-0.64092135,-0.6350322,-0.6350322,-0.64092135,-0.6512195,-0.6541486,-0.6526995,-0.64829034,-0.64533037,-0.6394413,-0.6350322,-0.6262141,-0.617365,-0.617365,-0.62032497,-0.62177414,-0.617365,-0.6158851,-0.61147594,-0.5908797,-0.5688034,-0.5511362,-0.5364289,-0.5276108,-0.5143527,-0.49079645,-0.46579105,-0.44519472,-0.4304567,-0.41426945,-0.38633496,-0.3642586,-0.35540968,-0.35100055,-0.3436315,-0.3377425,-0.33922243,-0.3671878,-0.42900747,-0.50405455,-0.57176334,-0.6262141,-0.65562856,-0.67329574,-0.6762248,-0.6659267,-0.6541486,-0.6497395,-0.6541486,-0.65562856,-0.66003764,-0.65710855,-0.64829034,-0.64681035,-0.6350322,-0.61002684,-0.58058155,-0.5128727,-0.381895,-0.15527397,0.14201581,0.42897666,0.6320722,0.6938919,0.5746616,0.26858437,-0.12434876,-0.5128727,-0.77630806,-0.83960783,-0.74982274,-0.61002684,-0.50405455,-0.4569729,-0.45108378,-0.46431106,-0.48049825,-0.49227643,-0.49227643,-0.48197824,-0.4628619,-0.44223475,-0.4334166,-0.4304567,-0.42604756,-0.41574943,-0.40252215,-0.38778406,-0.38337493,-0.37748593,-0.36129868,-0.33922243,-0.3201061,-0.3083279,-0.3024389,-0.3024389,-0.29947895,-0.29214078,-0.28184265,-0.2671045,-0.24650824,-0.22295195,-0.20531559,-0.19942653,-0.19646657,-0.1950174,-0.18764848,-0.17146122,-0.14497584,-0.10964143,-0.07137799,-0.040483534,-0.015447259,0.0036690235,0.028674483,0.058119774,0.08315611,0.09638333,0.103752375,0.11109054,0.12727773,0.13905585,0.14053583,0.14790487,0.15083396,0.15672302,0.15820312,0.14346504,0.11109054,0.06252885,0.008078098,-0.049301744,-0.1126014,-0.18027931,-0.25091726,-0.32599515,-0.40252215,-0.47020012,-0.5290599,-0.5732125,-0.6011778,-0.6306231,-0.65710855,-0.6777048,-0.6894829,-0.69685197,-0.702741,-0.71155924,-0.7292264,-0.7424537,-0.73215556,-0.7218574,-0.71155924,-0.69830114,-0.6909629,-0.68655384,-0.6894829,-0.6924121,-0.6894829,-0.68359387,-0.6674067,-0.6512195,-0.6424013,-0.6379614,-0.6335523,-0.6291432,-0.6321031,-0.6394413,-0.6379614,-0.62473404,-0.60706687,-0.6011778,-0.6041378,-0.6129559,-0.6129559,-0.5982487,-0.58351064,-0.58058155,-0.5908797,-0.6011778,-0.59528875,-0.58351064,-0.57028335,-0.56732345,-0.57028335,-0.5820615,-0.5908797,-0.5996979,-0.6041378,-0.6055869,-0.6011778,-0.5996979,-0.60706687,-0.61147594,-0.6144359,-0.6055869,-0.6011778,-0.60854685,-0.62032497,-0.62473404,-0.61884505,-0.6026578,-0.59383965,-0.6026578,-0.6129559,-0.61002684,-0.6011778,-0.5893997,-0.5820615,-0.58351064,-0.5820615,-0.57910156,-0.56587434,-0.5599852,-0.54524714,-0.5276108,-0.50698364,-0.48345822,-0.458422,-0.4304567,-0.40545124,-0.38926405,-0.37600595,-0.3715968,-0.3715968,-0.3642586,-0.34807146,-0.32451516,-0.3083279,-0.31125712,-0.35100055,-0.4348966,-0.534949,-0.62032497,-0.67036664,-0.6806648,-0.66888666,-0.6541486,-0.64681035,-0.64829034,-0.6541486,-0.6585885,-0.6629976,-0.66888666,-0.6644776,-0.6629976,-0.6674067,-0.67181575,-0.66888666,-0.6497395,-0.57910156,-0.4348966,-0.18616843,0.14346504,0.48194742,0.7394937,0.8498751,0.7380446,0.39660215,-0.050781667,-0.4849074,-0.768939,-0.8425369,-0.76160085,-0.6335523,-0.5364289,-0.49375635,-0.48197824,-0.49375635,-0.5114236,-0.51583266,-0.51583266,-0.51583266,-0.5084636,-0.49523634,-0.47608918,-0.4481238,-0.42459846,-0.41282028,-0.40693122,-0.41426945,-0.4172294,-0.42459846,-0.4216385,-0.4083804,-0.39074397,-0.3671878,-0.34807146,-0.3318842,-0.31421703,-0.29802978,-0.2803626,-0.2671045,-0.25535727,-0.24061912,-0.22295195,-0.20531559,-0.1891284,-0.1655721,-0.14497584,-0.119939625,-0.103752375,-0.10082322,-0.097863376,-0.08756518,-0.06403977,-0.03163445,0.005149007,0.0404526,0.074306965,0.11109054,0.13612676,0.15524304,0.16409206,0.18172848,0.19646657,0.2067647,0.20824468,0.19646657,0.18616843,0.18616843,0.17587018,0.13905585,0.07578695,-0.0036999583,-0.086116076,-0.15675396,-0.2273919,-0.305368,-0.37748593,-0.44519472,-0.5055345,-0.5526161,-0.59676874,-0.6335523,-0.6526995,-0.6674067,-0.6806648,-0.69389206,-0.7041902,-0.71155924,-0.71007925,-0.7086301,-0.7086301,-0.70715016,-0.702741,-0.69685197,-0.69685197,-0.70126104,-0.71155924,-0.7130392,-0.70126104,-0.6894829,-0.6791848,-0.67181575,-0.67036664,-0.6674067,-0.66888666,-0.6659267,-0.6615176,-0.64829034,-0.6276632,-0.61884505,-0.61147594,-0.60854685,-0.6026578,-0.5908797,-0.5820615,-0.5879506,-0.5982487,-0.61002684,-0.6129559,-0.60854685,-0.60854685,-0.60854685,-0.60854685,-0.61002684,-0.60706687,-0.6026578,-0.6011778,-0.6026578,-0.60854685,-0.6129559,-0.6144359,-0.61002684,-0.6041378,-0.59528875,-0.5908797,-0.5893997,-0.5879506,-0.59235966,-0.59676874,-0.6026578,-0.61147594,-0.61147594,-0.60706687,-0.6055869,-0.6026578,-0.6041378,-0.6055869,-0.6055869,-0.5982487,-0.59383965,-0.5908797,-0.5849906,-0.5776216,-0.5761725,-0.58351064,-0.5908797,-0.59676874,-0.59235966,-0.58351064,-0.5761725,-0.57176334,-0.5629144,-0.55702525,-0.5585053,-0.5688034,-0.5732125,-0.56732345,-0.55702525,-0.5511362,-0.5614344,-0.5761725,-0.5820615,-0.5761725,-0.5746925,-0.5761725,-0.57910156,-0.56732345,-0.54524714,-0.5276108,-0.5114236,-0.5055345,-0.49523634,-0.4731601,-0.44519472,-0.42604756,-0.39956218,-0.36129868,-0.33629334,-0.32155526,-0.32303518,-0.32744426,-0.31862617,-0.31566614,-0.33333337,-0.39956218,-0.49964547,-0.5908797,-0.6526995,-0.6777048,-0.6806648,-0.67036664,-0.6541486,-0.6350322,-0.62177414,-0.62473404,-0.6335523,-0.64092135,-0.64092135,-0.6365122,-0.6350322,-0.6335523,-0.62177414,-0.5908797,-0.52024174,-0.36129868,-0.08315605,0.2832917,0.64385045,0.90139675,0.9720346,0.7704189,0.35685873,-0.12878859,-0.5643943,-0.8042735,-0.8175316,-0.69389206,-0.5629144,-0.49079645,-0.47608918,-0.4966855,-0.51876175,-0.5217217,-0.5114236,-0.49964547,-0.49523634,-0.49523634,-0.4849074,-0.47756916,-0.46727103,-0.4569729,-0.44960386,-0.4363457,-0.42752755,-0.43193662,-0.4304567,-0.41870934,-0.39219314,-0.36277866,-0.35248053,-0.35392964,-0.3568896,-0.34952056,-0.3348133,-0.32451516,-0.32451516,-0.3201061,-0.306848,-0.28918076,-0.2671045,-0.24650824,-0.228841,-0.20531559,-0.18175936,-0.16998118,-0.15968305,-0.15086484,-0.13319772,-0.1126014,-0.08756518,-0.059599757,-0.024296284,0.012487292,0.046341658,0.06989789,0.08315611,0.090494275,0.10079229,0.112570524,0.1169796,0.11993945,0.11993945,0.121388674,0.11553049,0.10079229,0.068418026,0.021336317,-0.034594417,-0.103752375,-0.18468845,-0.27154446,-0.35540968,-0.42311847,-0.47756916,-0.5261308,-0.5776216,-0.62473404,-0.6629976,-0.6924121,-0.7144884,-0.7424537,-0.77041906,-0.7895662,-0.7939753,-0.79838437,-0.79838437,-0.80279344,-0.8042735,-0.8057534,-0.8042735,-0.7939753,-0.779268,-0.7660099,-0.7586409,-0.76012087,-0.7674899,-0.768939,-0.76160085,-0.74982274,-0.7410045,-0.73363554,-0.7189283,-0.7041902,-0.6909629,-0.6909629,-0.70126104,-0.70715016,-0.7056702,-0.69389206,-0.6806648,-0.6777048,-0.6777048,-0.6747757,-0.67181575,-0.66888666,-0.6674067,-0.67036664,-0.6762248,-0.6791848,-0.68507385,-0.6894829,-0.68507385,-0.6747757,-0.66888666,-0.6644776,-0.67181575,-0.6747757,-0.67181575,-0.67036664,-0.67181575,-0.6747757,-0.6762248,-0.6747757,-0.67181575,-0.6674067,-0.6629976,-0.65710855,-0.64385045,-0.6365122,-0.6321031,-0.64092135,-0.6512195,-0.6615176,-0.6659267,-0.6747757,-0.6747757,-0.6674067,-0.6629976,-0.65562856,-0.6497395,-0.65562856,-0.65562856,-0.64829034,-0.64092135,-0.6394413,-0.6424013,-0.64092135,-0.6379614,-0.6350322,-0.6424013,-0.6526995,-0.6585885,-0.65710855,-0.64533037,-0.6379614,-0.6394413,-0.64092135,-0.64533037,-0.64533037,-0.6350322,-0.62473404,-0.5982487,-0.56732345,-0.542318,-0.5217217,-0.50257456,-0.4849074,-0.46431106,-0.43930566,-0.42604756,-0.4172294,-0.3966331,-0.3657078,-0.34807146,-0.36129868,-0.41134036,-0.49079645,-0.57176334,-0.6335523,-0.67329574,-0.69830114,-0.70715016,-0.702741,-0.69978106,-0.69830114,-0.70126104,-0.69685197,-0.6924121,-0.68655384,-0.68359387,-0.6909629,-0.6909629,-0.67036664,-0.6379614,-0.59528875,-0.53201985,-0.42311847,-0.2420991,-0.034594417,0.15672302,0.29358983,0.31566608,0.16998112,-0.11553055,-0.46872014,-0.779268,-0.93084204,-0.90139675,-0.76308084,-0.62177414,-0.5305399,-0.48345822,-0.47904915,-0.49964547,-0.52024174,-0.5305399,-0.5246509,-0.5084636,-0.49375635,-0.48345822,-0.48197824,-0.47608918,-0.47020012,-0.46579105,-0.45401293,-0.43782568,-0.4216385,-0.40693122,-0.40986037,-0.41426945,-0.40986037,-0.39219314,-0.36277866,-0.3377425,-0.32744426,-0.32744426,-0.32599515,-0.31862617,-0.31125712,-0.30095893,-0.29214078,-0.27447355,-0.25239724,-0.23621011,-0.22295195,-0.21561372,-0.20235562,-0.17146122,-0.13171768,-0.103752375,-0.08315605,-0.0684489,-0.055190682,-0.03900349,-0.012518108,0.005149007,0.028674483,0.052230716,0.06989789,0.07871604,0.07578695,0.07282698,0.07726693,0.07871604,0.08315611,0.07578695,0.058119774,0.03163445,-0.00662905,-0.06696886,-0.14497584,-0.2273919,-0.3039189,-0.37600595,-0.44960386,-0.5231708,-0.5982487,-0.6541486,-0.69830114,-0.72037745,-0.7380446,-0.7527518,-0.7660099,-0.779268,-0.7954552,-0.80279344,-0.8042735,-0.8057534,-0.8042735,-0.80134434,-0.80279344,-0.79986435,-0.7910154,-0.7851571,-0.78367716,-0.7807172,-0.7777881,-0.77337897,-0.7660099,-0.7586409,-0.7571918,-0.7542318,-0.7439337,-0.7292264,-0.7130392,-0.70126104,-0.69389206,-0.6924121,-0.6821139,-0.6777048,-0.6821139,-0.68800294,-0.69830114,-0.70715016,-0.7056702,-0.69685197,-0.68800294,-0.6821139,-0.68507385,-0.68655384,-0.69389206,-0.69685197,-0.6924121,-0.6894829,-0.68655384,-0.68507385,-0.68507385,-0.68359387,-0.6791848,-0.6747757,-0.6747757,-0.6821139,-0.68507385,-0.6894829,-0.68800294,-0.6909629,-0.6924121,-0.6894829,-0.68359387,-0.6777048,-0.68359387,-0.69389206,-0.7041902,-0.71155924,-0.70715016,-0.69389206,-0.6777048,-0.6659267,-0.65710855,-0.66003764,-0.6674067,-0.66888666,-0.6644776,-0.66003764,-0.66003764,-0.66888666,-0.6674067,-0.6526995,-0.6335523,-0.617365,-0.6026578,-0.5893997,-0.5732125,-0.5526161,-0.53201985,-0.5114236,-0.48934728,-0.46579105,-0.45108378,-0.459902,-0.47020012,-0.459902,-0.43193662,-0.40104216,-0.39808226,-0.4481238,-0.5393889,-0.6335523,-0.702741,-0.7380446,-0.7395246,-0.7174483,-0.695372,-0.68507385,-0.68359387,-0.6909629,-0.70126104,-0.70126104,-0.69830114,-0.69685197,-0.7041902,-0.70715016,-0.69389206,-0.6629976,-0.61147594,-0.5217217,-0.3730768,-0.15379399,0.08167601,0.2818117,0.39512217,0.3745259,0.17291021,-0.15379399,-0.51583266,-0.80279344,-0.91317487,-0.846946,-0.70126104,-0.5761725,-0.50405455,-0.48049825,-0.48638737,-0.50257456,-0.51583266,-0.5231708,-0.51583266,-0.50698364,-0.4966855,-0.4878673,-0.47904915,-0.46431106,-0.45401293,-0.44519472,-0.43930566,-0.4363457,-0.42459846,-0.40545124,-0.3966331,-0.38926405,-0.38485497,-0.3730768,-0.35392964,-0.3348133,-0.3201061,-0.31421703,-0.3083279,-0.29506987,-0.27447355,-0.25976628,-0.25091726,-0.2420991,-0.23180097,-0.22002286,-0.20824474,-0.1891284,-0.15968305,-0.12434876,-0.08315605,-0.059599757,-0.05226159,-0.041963518,-0.018407226,0.013967276,0.052230716,0.07871604,0.09638333,0.106681466,0.112570524,0.11405051,0.11993945,0.12434864,0.13171768,0.1302377,0.11405051,0.0846051,0.0537107,0.022816181,-0.021336317,-0.07726699,-0.15086484,-0.23621011,-0.31862617,-0.3966331,-0.4716801,-0.5393889,-0.5879506,-0.6262141,-0.6541486,-0.6762248,-0.69978106,-0.71007925,-0.71155924,-0.7189283,-0.7306756,-0.7571918,-0.7851571,-0.79838437,-0.7924953,-0.779268,-0.76453,-0.7527518,-0.74834275,-0.74541366,-0.74982274,-0.7542318,-0.7513027,-0.73656464,-0.7159683,-0.69978106,-0.69830114,-0.7041902,-0.7056702,-0.69830114,-0.69389206,-0.68507385,-0.6747757,-0.66003764,-0.64533037,-0.6335523,-0.6262141,-0.62032497,-0.617365,-0.61147594,-0.6158851,-0.6276632,-0.6321031,-0.6350322,-0.6335523,-0.6291432,-0.62177414,-0.6129559,-0.6011778,-0.5996979,-0.6144359,-0.6306231,-0.6394413,-0.64385045,-0.64385045,-0.64681035,-0.6512195,-0.64385045,-0.6306231,-0.6158851,-0.6144359,-0.62473404,-0.6379614,-0.64092135,-0.6379614,-0.6350322,-0.6335523,-0.6350322,-0.6321031,-0.6262141,-0.62177414,-0.6232541,-0.6335523,-0.6335523,-0.6262141,-0.6158851,-0.6041378,-0.60706687,-0.62473404,-0.6335523,-0.6379614,-0.6321031,-0.6158851,-0.5982487,-0.5849906,-0.5761725,-0.56587434,-0.5599852,-0.549687,-0.54524714,-0.542318,-0.534949,-0.5099436,-0.47904915,-0.44960386,-0.4304567,-0.42459846,-0.42311847,-0.41870934,-0.40693122,-0.38633496,-0.3642586,-0.34659147,-0.3568896,-0.4083804,-0.4981655,-0.5982487,-0.66888666,-0.69830114,-0.6924121,-0.6747757,-0.6585885,-0.6541486,-0.6497395,-0.6497395,-0.65562856,-0.6644776,-0.6644776,-0.6644776,-0.6629976,-0.6541486,-0.6350322,-0.5982487,-0.5143527,-0.36866772,-0.1376068,0.15672302,0.4481238,0.6644467,0.73360455,0.59528875,0.24650812,-0.18616843,-0.57910156,-0.8145716,-0.84105694,-0.73215556,-0.5908797,-0.50112545,-0.46872014,-0.4746092,-0.49964547,-0.51583266,-0.5099436,-0.49375635,-0.47904915,-0.4746092,-0.46579105,-0.45549285,-0.4466439,-0.44223475,-0.4437148,-0.44519472,-0.42752755,-0.4039713,-0.381895,-0.3657078,-0.35248053,-0.34218234,-0.33333337,-0.32599515,-0.32155526,-0.31566614,-0.29947895,-0.28625166,-0.27154446,-0.2626955,-0.24946815,-0.23328102,-0.2141338,-0.19646657,-0.17883027,-0.15968305,-0.14349586,-0.13319772,-0.12289959,-0.111121416,-0.09052515,-0.05815065,-0.028705359,-0.011038125,0.00662899,0.03163445,0.06252885,0.09638333,0.12727773,0.15231395,0.17291021,0.18616843,0.18909752,0.18172848,0.1743902,0.17143023,0.16850114,0.15524304,0.112570524,0.0537107,-0.016927242,-0.08756518,-0.15379399,-0.2273919,-0.305368,-0.38778406,-0.45401293,-0.5114236,-0.5643943,-0.6055869,-0.6365122,-0.6644776,-0.6894829,-0.71155924,-0.73215556,-0.7439337,-0.74689364,-0.74541366,-0.7513027,-0.7586409,-0.76012087,-0.7557118,-0.74834275,-0.74541366,-0.74541366,-0.74541366,-0.7424537,-0.7351155,-0.73215556,-0.73656464,-0.73215556,-0.7218574,-0.7086301,-0.695372,-0.6894829,-0.68800294,-0.6806648,-0.66888666,-0.65710855,-0.6497395,-0.64681035,-0.64681035,-0.64385045,-0.64533037,-0.6394413,-0.6276632,-0.6158851,-0.61002684,-0.61002684,-0.6158851,-0.62177414,-0.6262141,-0.6291432,-0.6335523,-0.6350322,-0.6276632,-0.6158851,-0.6055869,-0.6055869,-0.6144359,-0.62177414,-0.6276632,-0.6335523,-0.64092135,-0.64829034,-0.6526995,-0.6541486,-0.65710855,-0.6585885,-0.6629976,-0.6644776,-0.6541486,-0.64533037,-0.64092135,-0.64092135,-0.64681035,-0.64681035,-0.64385045,-0.6379614,-0.6335523,-0.6306231,-0.6232541,-0.62177414,-0.6262141,-0.6350322,-0.6335523,-0.6276632,-0.6144359,-0.6055869,-0.6055869,-0.61002684,-0.6129559,-0.61002684,-0.5996979,-0.5908797,-0.57910156,-0.5746925,-0.5776216,-0.5849906,-0.5879506,-0.5820615,-0.57176334,-0.5555761,-0.54083806,-0.5246509,-0.50698364,-0.48638737,-0.4746092,-0.47020012,-0.46579105,-0.45253295,-0.42752755,-0.39808226,-0.37455684,-0.36866772,-0.3730768,-0.37455684,-0.3657078,-0.34807146,-0.3348133,-0.33922243,-0.37455684,-0.4437148,-0.53201985,-0.61147594,-0.66003764,-0.67181575,-0.6615176,-0.64681035,-0.6424013,-0.64385045,-0.64681035,-0.64533037,-0.64092135,-0.6365122,-0.6350322,-0.6379614,-0.6321031,-0.61884505,-0.5908797,-0.5084636,-0.33922243,-0.05815065,0.30388796,0.64385045,0.8734313,0.93522024,0.74979174,0.35685873,-0.10964143,-0.5276108,-0.76453,-0.78808624,-0.6777048,-0.55409616,-0.48197824,-0.459902,-0.47020012,-0.4966855,-0.5217217,-0.5305399,-0.5217217,-0.50698364,-0.49375635,-0.48345822,-0.4731601,-0.46431106,-0.45401293,-0.4481238,-0.44223475,-0.42752755,-0.41134036,-0.3966331,-0.38778406,-0.38633496,-0.381895,-0.3715968,-0.3657078,-0.36129868,-0.3568896,-0.34511143,-0.32451516,-0.3024389,-0.28477174,-0.27299362,-0.25828636,-0.2391392,-0.22002286,-0.2038356,-0.18616843,-0.1655721,-0.14642501,-0.1273086,-0.10816145,-0.09052515,-0.06403977,-0.033114433,-0.002219975,0.025745273,0.050750732,0.08167601,0.10964143,0.12727773,0.13171768,0.13171768,0.13905585,0.1626122,0.19205737,0.20528471,0.19939566,0.18027937,0.15524304,0.12727773,0.0860852,0.025745273,-0.049301744,-0.13319772,-0.21561372,-0.2965498,-0.37600595,-0.44078565,-0.49227643,-0.543798,-0.5893997,-0.6291432,-0.6585885,-0.67329574,-0.6806648,-0.69389206,-0.7174483,-0.7380446,-0.74982274,-0.7571918,-0.76308084,-0.77041906,-0.77482814,-0.77041906,-0.76012087,-0.7527518,-0.7513027,-0.7542318,-0.7586409,-0.7557118,-0.74689364,-0.7277465,-0.7056702,-0.68655384,-0.6762248,-0.67329574,-0.6777048,-0.6747757,-0.67036664,-0.6674067,-0.67329574,-0.6762248,-0.67181575,-0.66003764,-0.64092135,-0.6350322,-0.64681035,-0.6644776,-0.6791848,-0.6806648,-0.67181575,-0.6629976,-0.6512195,-0.6394413,-0.6321031,-0.6379614,-0.6526995,-0.6629976,-0.6644776,-0.6541486,-0.64681035,-0.6512195,-0.6629976,-0.67329574,-0.6791848,-0.68359387,-0.68800294,-0.6924121,-0.69389206,-0.6894829,-0.68359387,-0.6762248,-0.6674067,-0.6585885,-0.65710855,-0.6585885,-0.6629976,-0.6659267,-0.6615176,-0.6629976,-0.6659267,-0.66888666,-0.6629976,-0.6541486,-0.64681035,-0.64829034,-0.65562856,-0.65710855,-0.64385045,-0.6306231,-0.62032497,-0.6232541,-0.6276632,-0.6232541,-0.6129559,-0.5996979,-0.5864706,-0.5849906,-0.5879506,-0.59528875,-0.61002684,-0.6158851,-0.60706687,-0.5864706,-0.5614344,-0.542318,-0.5290599,-0.52024174,-0.4966855,-0.46431106,-0.43193662,-0.4039713,-0.38044584,-0.3671878,-0.36866772,-0.3715968,-0.36866772,-0.34659147,-0.32451516,-0.3318842,-0.37748593,-0.46431106,-0.55409616,-0.62177414,-0.6629976,-0.68800294,-0.6924121,-0.6821139,-0.66003764,-0.64533037,-0.64092135,-0.64533037,-0.6512195,-0.65562856,-0.6615176,-0.67181575,-0.6644776,-0.6335523,-0.5879506,-0.5231708,-0.42900747,-0.27740264,-0.08022696,0.12286866,0.2818117,0.3436314,0.24795723,-0.008109033,-0.34511143,-0.6791848,-0.88961864,-0.91758394,-0.81309164,-0.6674067,-0.55409616,-0.4966855,-0.48638737,-0.50405455,-0.5261308,-0.534949,-0.5276108,-0.5099436,-0.48934728,-0.47020012,-0.4628619,-0.46431106,-0.46727103,-0.4628619,-0.44960386,-0.4334166,-0.41574943,-0.40693122,-0.39219314,-0.3701169,-0.35248053,-0.33922243,-0.33333337,-0.32744426,-0.3201061,-0.31273705,-0.306848,-0.3024389,-0.28918076,-0.27154446,-0.25239724,-0.24061912,-0.23180097,-0.22150278,-0.20235562,-0.18175936,-0.1626122,-0.14201587,-0.119939625,-0.09641421,-0.07137799,-0.056670666,-0.046372533,-0.025776207,0.0036690235,0.025745273,0.046341658,0.06107974,0.07871604,0.103752375,0.13171768,0.14790487,0.15083396,0.14790487,0.13905585,0.12727773,0.10816145,0.08019602,0.0404526,-0.015447259,-0.08756518,-0.17146122,-0.2626955,-0.34218234,-0.4083804,-0.4628619,-0.51731265,-0.57028335,-0.62032497,-0.6644776,-0.69978106,-0.7277465,-0.7513027,-0.76012087,-0.76308084,-0.76453,-0.77482814,-0.78660625,-0.7910154,-0.78367716,-0.77482814,-0.77041906,-0.77630806,-0.77482814,-0.76160085,-0.7424537,-0.7277465,-0.7218574,-0.7189283,-0.7159683,-0.71007925,-0.7041902,-0.7041902,-0.70126104,-0.695372,-0.68507385,-0.6762248,-0.6674067,-0.6615176,-0.65562856,-0.65562856,-0.6541486,-0.6526995,-0.64385045,-0.6321031,-0.6276632,-0.6321031,-0.6394413,-0.6394413,-0.6306231,-0.62032497,-0.62032497,-0.6321031,-0.64385045,-0.6526995,-0.6541486,-0.65710855,-0.6615176,-0.6674067,-0.67036664,-0.6644776,-0.66003764,-0.6615176,-0.6659267,-0.6747757,-0.68507385,-0.6924121,-0.69685197,-0.69685197,-0.6894829,-0.67329574,-0.6615176,-0.6585885,-0.6629976,-0.6659267,-0.6644776,-0.65562856,-0.64681035,-0.6424013,-0.64092135,-0.6379614,-0.6379614,-0.6379614,-0.6394413,-0.64092135,-0.6424013,-0.64385045,-0.64385045,-0.6394413,-0.6291432,-0.6144359,-0.6055869,-0.6011778,-0.5893997,-0.57176334,-0.549687,-0.5305399,-0.5143527,-0.4981655,-0.47904915,-0.45401293,-0.44078565,-0.43930566,-0.4304567,-0.4083804,-0.3701169,-0.34218234,-0.34511143,-0.38633496,-0.46431106,-0.5526161,-0.6306231,-0.6806648,-0.695372,-0.68359387,-0.6644776,-0.65562856,-0.6585885,-0.6644776,-0.6629976,-0.6585885,-0.6541486,-0.6541486,-0.6585885,-0.64829034,-0.6276632,-0.5982487,-0.5526161,-0.46431106,-0.3083279,-0.09197426,0.12727773,0.2979989,0.3892331,0.35685873,0.15083396,-0.17294115,-0.53349984,-0.8086825,-0.89991677,-0.8175316,-0.6674067,-0.543798,-0.47904915,-0.459902,-0.46872014,-0.48638737,-0.49964547,-0.4966855,-0.48345822,-0.46872014,-0.4569729,-0.45401293,-0.45401293,-0.44519472,-0.4304567,-0.41134036,-0.3966331,-0.39219314,-0.39219314,-0.38778406,-0.3789659,-0.35981876,-0.3377425,-0.31566614,-0.30095893,-0.29947895,-0.30095893,-0.29802978,-0.29066074,-0.27595353,-0.2626955,-0.25535727,-0.24650824,-0.23032099,-0.20972472,-0.18468845,-0.16850126,-0.15086484,-0.13467771,-0.11849046,-0.10230321,-0.08463603,-0.06255978,-0.030185282,0.0036690235,0.033114433,0.058119774,0.08167601,0.10227227,0.12434864,0.13760674,0.14053583,0.1449449,0.14935398,0.15524304,0.15672302,0.14642489,0.1302377,0.10816145,0.07578695,0.028674483,-0.037523508,-0.111121416,-0.1891284,-0.26417542,-0.33922243,-0.41282028,-0.4746092,-0.5276108,-0.57028335,-0.6026578,-0.6291432,-0.6512195,-0.6659267,-0.6806648,-0.695372,-0.7086301,-0.7159683,-0.7174483,-0.71155924,-0.7041902,-0.70126104,-0.695372,-0.69389206,-0.69389206,-0.69685197,-0.6909629,-0.6777048,-0.6644776,-0.6585885,-0.66003764,-0.6674067,-0.6659267,-0.6512195,-0.6306231,-0.62032497,-0.62177414,-0.6262141,-0.6262141,-0.62473404,-0.617365,-0.6129559,-0.61147594,-0.6055869,-0.5982487,-0.5908797,-0.5849906,-0.5849906,-0.5879506,-0.59528875,-0.6026578,-0.6129559,-0.6158851,-0.6144359,-0.61147594,-0.61147594,-0.61002684,-0.6055869,-0.59528875,-0.59383965,-0.6026578,-0.6158851,-0.6262141,-0.6232541,-0.6144359,-0.61002684,-0.61002684,-0.61147594,-0.60854685,-0.6041378,-0.6011778,-0.5996979,-0.5996979,-0.59528875,-0.5908797,-0.5908797,-0.5893997,-0.58351064,-0.5776216,-0.5761725,-0.58058155,-0.5879506,-0.5908797,-0.5849906,-0.5761725,-0.57028335,-0.56732345,-0.5643943,-0.5629144,-0.5643943,-0.5732125,-0.5776216,-0.5746925,-0.5614344,-0.5379089,-0.51583266,-0.49964547,-0.48345822,-0.46727103,-0.45253295,-0.4437148,-0.43193662,-0.41282028,-0.39074397,-0.3730768,-0.36129868,-0.36129868,-0.3642586,-0.34952056,-0.3201061,-0.28918076,-0.27299362,-0.28329176,-0.33333337,-0.41574943,-0.5084636,-0.5849906,-0.6291432,-0.6365122,-0.6232541,-0.60854685,-0.60706687,-0.60706687,-0.60706687,-0.6055869,-0.60706687,-0.61002684,-0.60854685,-0.6026578,-0.58351064,-0.55702525,-0.52024174,-0.4363457,-0.2685845,0.0036690235,0.3303734,0.6217742,0.8042425,0.8322079,0.6497394,0.28770065,-0.14201587,-0.5246509,-0.7380446,-0.74689364,-0.6321031,-0.5114236,-0.4437148,-0.4216385,-0.42604756,-0.4363457,-0.44519472,-0.4466439,-0.43782568,-0.42752755,-0.4216385,-0.41574943,-0.40693122,-0.3966331,-0.38778406,-0.38485497,-0.38337493,-0.3730768,-0.35540968,-0.3289243,-0.3024389,-0.28477174,-0.27154446,-0.25828636,-0.25239724,-0.24798816,-0.24650824,-0.24357915,-0.23328102,-0.21854287,-0.2067647,-0.19942653,-0.1950174,-0.1891284,-0.17735022,-0.15968305,-0.14497584,-0.12434876,-0.1052323,-0.078746974,-0.055190682,-0.0360744,-0.015447259,0.008078098,0.033114433,0.06107974,0.103752375,0.14790487,0.18468845,0.20528471,0.20380473,0.18320847,0.17587018,0.18761754,0.21265364,0.23473012,0.24061906,0.23325014,0.2067647,0.16554129,0.11109054,0.041932583,-0.030185282,-0.10230321,-0.16705209,-0.23769003,-0.30980796,-0.37600595,-0.4363457,-0.49079645,-0.542318,-0.5908797,-0.6335523,-0.66003764,-0.67181575,-0.68359387,-0.695372,-0.70715016,-0.7130392,-0.7041902,-0.68507385,-0.6747757,-0.6777048,-0.6894829,-0.70715016,-0.7189283,-0.7174483,-0.7056702,-0.6909629,-0.6777048,-0.6747757,-0.6762248,-0.67181575,-0.6644776,-0.64681035,-0.6306231,-0.62177414,-0.6129559,-0.60706687,-0.60706687,-0.60854685,-0.61147594,-0.61002684,-0.5982487,-0.5849906,-0.58058155,-0.57910156,-0.58351064,-0.5864706,-0.5849906,-0.58058155,-0.58058155,-0.5761725,-0.57028335,-0.57028335,-0.5761725,-0.58351064,-0.5864706,-0.58058155,-0.5732125,-0.57028335,-0.5688034,-0.5688034,-0.5629144,-0.5585053,-0.5599852,-0.5643943,-0.5643943,-0.5599852,-0.5555761,-0.5555761,-0.5585053,-0.5585053,-0.5599852,-0.5614344,-0.56587434,-0.57028335,-0.5643943,-0.5511362,-0.5393889,-0.53201985,-0.5364289,-0.54083806,-0.54524714,-0.543798,-0.54524714,-0.54524714,-0.543798,-0.5379089,-0.53349984,-0.5305399,-0.5364289,-0.543798,-0.543798,-0.5393889,-0.53349984,-0.5305399,-0.5290599,-0.53201985,-0.53349984,-0.5379089,-0.54083806,-0.5364289,-0.5305399,-0.5276108,-0.5276108,-0.534949,-0.5393889,-0.5379089,-0.5276108,-0.5099436,-0.49375635,-0.4716801,-0.45253295,-0.43193662,-0.41134036,-0.39074397,-0.3671878,-0.34218234,-0.32303518,-0.3201061,-0.32599515,-0.32155526,-0.305368,-0.28329176,-0.27740264,-0.30980796,-0.3789659,-0.4716801,-0.5585053,-0.617365,-0.6497395,-0.6541486,-0.64385045,-0.6306231,-0.62177414,-0.617365,-0.6129559,-0.60706687,-0.60854685,-0.6129559,-0.62032497,-0.6262141,-0.61147594,-0.5893997,-0.5276108,-0.40104216,-0.16116309,0.18320847,0.5452471,0.82486963,0.9499583,0.85428417,0.5158018,0.06107974,-0.38926405,-0.702741,-0.7939753,-0.71007925,-0.5732125,-0.47904915,-0.44960386,-0.4613819,-0.4878673,-0.5114236,-0.52024174,-0.51731265,-0.5099436,-0.49375635,-0.48049825,-0.46872014,-0.458422,-0.4481238,-0.4348966,-0.4201585,-0.4083804,-0.39808226,-0.38633496,-0.37455684,-0.36129868,-0.34807146,-0.3348133,-0.31862617,-0.3039189,-0.29214078,-0.28918076,-0.28773165,-0.2803626,-0.2700644,-0.25828636,-0.24946815,-0.2420991,-0.23328102,-0.21854287,-0.19794661,-0.17587024,-0.15379399,-0.12582868,-0.09641421,-0.07137799,-0.056670666,-0.04489261,-0.021336317,0.016927123,0.06252885,0.10520148,0.12875772,0.14790487,0.1626122,0.17587018,0.18616843,0.19057739,0.19939566,0.20824468,0.21413362,0.20969379,0.19057739,0.16409206,0.13316679,0.08901429,0.028674483,-0.047852516,-0.1302377,-0.21561372,-0.3024389,-0.38926405,-0.46579105,-0.5217217,-0.5599852,-0.5908797,-0.6291432,-0.67181575,-0.70126104,-0.71155924,-0.7086301,-0.7086301,-0.7189283,-0.7292264,-0.7380446,-0.7424537,-0.74834275,-0.7571918,-0.7586409,-0.74982274,-0.7306756,-0.71155924,-0.702741,-0.69685197,-0.695372,-0.69389206,-0.68800294,-0.6821139,-0.66888666,-0.6512195,-0.6394413,-0.6350322,-0.6424013,-0.64385045,-0.6394413,-0.6350322,-0.6291432,-0.6335523,-0.6350322,-0.6335523,-0.6276632,-0.62177414,-0.62177414,-0.62473404,-0.6321031,-0.64092135,-0.6497395,-0.65562856,-0.6526995,-0.64385045,-0.64092135,-0.64533037,-0.6585885,-0.6674067,-0.6629976,-0.65562856,-0.64681035,-0.6497395,-0.65562856,-0.6585885,-0.6615176,-0.6659267,-0.6747757,-0.6806648,-0.6821139,-0.6791848,-0.67329574,-0.66888666,-0.66888666,-0.66888666,-0.67036664,-0.6747757,-0.6791848,-0.6791848,-0.6747757,-0.6674067,-0.6644776,-0.6659267,-0.6674067,-0.6674067,-0.6674067,-0.6674067,-0.6674067,-0.66003764,-0.64829034,-0.6379614,-0.6379614,-0.64681035,-0.6585885,-0.6615176,-0.66003764,-0.65562856,-0.6526995,-0.64681035,-0.6394413,-0.6306231,-0.62473404,-0.6232541,-0.62177414,-0.6158851,-0.6129559,-0.61147594,-0.61002684,-0.6026578,-0.5820615,-0.5555761,-0.53201985,-0.51876175,-0.5128727,-0.49964547,-0.4849074,-0.4628619,-0.43930566,-0.42311847,-0.4172294,-0.40545124,-0.39219314,-0.37600595,-0.36866772,-0.3789659,-0.4304567,-0.5128727,-0.6026578,-0.67329574,-0.70715016,-0.71007925,-0.695372,-0.68359387,-0.6747757,-0.67036664,-0.6674067,-0.66888666,-0.67329574,-0.67329574,-0.67329574,-0.67036664,-0.6512195,-0.62473404,-0.57910156,-0.49375635,-0.35248053,-0.15086484,0.05663979,0.23765922,0.35685873,0.34804058,0.16409206,-0.14938492,-0.50698364,-0.7910154,-0.90287673,-0.8454661,-0.7056702,-0.5732125,-0.4878673,-0.4481238,-0.44960386,-0.4746092,-0.49523634,-0.4966855,-0.48345822,-0.4746092,-0.47756916,-0.47904915,-0.47756916,-0.46727103,-0.4569729,-0.4466439,-0.4334166,-0.41574943,-0.39367318,-0.38044584,-0.3730768,-0.3657078,-0.35540968,-0.34218234,-0.33629334,-0.33040428,-0.32155526,-0.3024389,-0.27447355,-0.25535727,-0.2420991,-0.23473006,-0.228841,-0.22002286,-0.21265382,-0.20235562,-0.18616843,-0.1626122,-0.13612682,-0.10671234,-0.086116076,-0.06696886,-0.049301744,-0.030185282,-0.011038125,0.012487292,0.041932583,0.07282698,0.09490323,0.10227227,0.09490323,0.09638333,0.10816145,0.1302377,0.14790487,0.14935398,0.14053583,0.12582862,0.10816145,0.0846051,0.04782164,-0.002219975,-0.06255978,-0.1376068,-0.22295195,-0.306848,-0.38485497,-0.4466439,-0.49964547,-0.5526161,-0.6026578,-0.6512195,-0.6821139,-0.69978106,-0.71155924,-0.72481734,-0.7395246,-0.7571918,-0.7660099,-0.771899,-0.77337897,-0.7660099,-0.7586409,-0.7557118,-0.7542318,-0.7557118,-0.7542318,-0.74541366,-0.7351155,-0.7277465,-0.72333735,-0.7174483,-0.7056702,-0.695372,-0.6894829,-0.6894829,-0.6909629,-0.6821139,-0.6659267,-0.64829034,-0.6350322,-0.6306231,-0.6365122,-0.64681035,-0.65562856,-0.6615176,-0.65562856,-0.64385045,-0.6335523,-0.6350322,-0.64385045,-0.64829034,-0.6526995,-0.6526995,-0.6526995,-0.6526995,-0.6526995,-0.6497395,-0.64681035,-0.64092135,-0.6394413,-0.6365122,-0.6379614,-0.6424013,-0.64681035,-0.64829034,-0.64092135,-0.6321031,-0.6306231,-0.6321031,-0.6350322,-0.6321031,-0.62177414,-0.61147594,-0.6129559,-0.61884505,-0.62032497,-0.617365,-0.60854685,-0.6011778,-0.6041378,-0.61002684,-0.61147594,-0.60854685,-0.6026578,-0.59676874,-0.5908797,-0.5893997,-0.5864706,-0.5879506,-0.5849906,-0.5732125,-0.5585053,-0.542318,-0.5290599,-0.51583266,-0.49964547,-0.47904915,-0.4569729,-0.4348966,-0.41870934,-0.39808226,-0.3789659,-0.36866772,-0.3642586,-0.36129868,-0.34952056,-0.34218234,-0.3568896,-0.40693122,-0.49079645,-0.57910156,-0.64092135,-0.6674067,-0.66888666,-0.6526995,-0.6394413,-0.6306231,-0.6365122,-0.6497395,-0.6615176,-0.6644776,-0.6615176,-0.65562856,-0.6585885,-0.6541486,-0.6262141,-0.58351064,-0.51583266,-0.4172294,-0.26417542,-0.05815065,0.14790487,0.3141861,0.39512217,0.3303734,0.09934318,-0.23032099,-0.5732125,-0.82338977,-0.89109856,-0.8057534,-0.66888666,-0.5555761,-0.49964547,-0.48934728,-0.50112545,-0.5143527,-0.5217217,-0.52024174,-0.5128727,-0.50112545,-0.48345822,-0.46579105,-0.458422,-0.45253295,-0.4466439,-0.4363457,-0.42459846,-0.4201585,-0.41574943,-0.40545124,-0.39219314,-0.3715968,-0.35100055,-0.34218234,-0.33333337,-0.32744426,-0.32155526,-0.31421703,-0.3039189,-0.29214078,-0.27299362,-0.25387728,-0.24061912,-0.23180097,-0.22295195,-0.2067647,-0.18323934,-0.15968305,-0.14349586,-0.12878859,-0.10671234,-0.078746974,-0.05226159,-0.034594417,-0.016927242,0.00073993206,0.025745273,0.055190682,0.07871604,0.10079229,0.11845958,0.13760674,0.15231395,0.15379393,0.15379393,0.15379393,0.14935398,0.13612676,0.106681466,0.06400883,0.011038184,-0.050781667,-0.12141955,-0.2008757,-0.28477174,-0.36129868,-0.4304567,-0.4849074,-0.53349984,-0.57176334,-0.60706687,-0.64092135,-0.67181575,-0.695372,-0.71007925,-0.7174483,-0.7262665,-0.7380446,-0.74982274,-0.7586409,-0.7513027,-0.7395246,-0.7277465,-0.7174483,-0.7130392,-0.71007925,-0.71007925,-0.7086301,-0.69978106,-0.68655384,-0.6674067,-0.6526995,-0.64681035,-0.6526995,-0.6585885,-0.6541486,-0.64533037,-0.6365122,-0.6306231,-0.6291432,-0.6232541,-0.6144359,-0.6011778,-0.5982487,-0.5996979,-0.6041378,-0.6011778,-0.5982487,-0.5893997,-0.5849906,-0.58351064,-0.58351064,-0.5820615,-0.5849906,-0.5879506,-0.59235966,-0.59383965,-0.59235966,-0.5893997,-0.58058155,-0.5746925,-0.5761725,-0.57910156,-0.5879506,-0.5879506,-0.5864706,-0.57910156,-0.5761725,-0.5761725,-0.57910156,-0.5864706,-0.5893997,-0.59383965,-0.59383965,-0.5849906,-0.57028335,-0.5585053,-0.5555761,-0.5614344,-0.57028335,-0.5761725,-0.5761725,-0.57028335,-0.56732345,-0.5614344,-0.5511362,-0.54524714,-0.5467271,-0.5526161,-0.55702525,-0.55702525,-0.5482071,-0.54083806,-0.534949,-0.5305399,-0.51876175,-0.5084636,-0.50257456,-0.49079645,-0.4746092,-0.45253295,-0.42311847,-0.39956218,-0.38337493,-0.3701169,-0.36277866,-0.3657078,-0.3671878,-0.36277866,-0.3377425,-0.306848,-0.28918076,-0.3083279,-0.37748593,-0.47020012,-0.5555761,-0.617365,-0.64385045,-0.64533037,-0.6321031,-0.6232541,-0.62032497,-0.62177414,-0.6262141,-0.6276632,-0.6232541,-0.617365,-0.62032497,-0.6232541,-0.61002684,-0.5820615,-0.5305399,-0.4304567,-0.25680637,0.009558082,0.31714606,0.58203053,0.73656464,0.73067546,0.51876175,0.15672302,-0.25387728,-0.6011778,-0.77482814,-0.7557118,-0.6306231,-0.5128727,-0.45401293,-0.4437148,-0.45253295,-0.46431106,-0.4716801,-0.4746092,-0.4716801,-0.4628619,-0.44960386,-0.43193662,-0.42311847,-0.4172294,-0.40252215,-0.38485497,-0.3701169,-0.36129868,-0.35981876,-0.35248053,-0.3348133,-0.31566614,-0.305368,-0.306848,-0.3024389,-0.29214078,-0.27740264,-0.26417542,-0.25976628,-0.25828636,-0.24650824,-0.22591186,-0.20235562,-0.18175936,-0.16409218,-0.14790493,-0.1302377,-0.1126014,-0.09345424,-0.07285792,-0.046372533,-0.024296284,-0.005149126,0.011038184,0.030154347,0.0537107,0.07871604,0.106681466,0.12875772,0.15083396,0.17587018,0.18909752,0.19057739,0.19057739,0.19205737,0.19939566,0.20969379,0.20528471,0.18172848,0.14642489,0.0978632,0.0404526,-0.030185282,-0.103752375,-0.17883027,-0.24798816,-0.31566614,-0.38337493,-0.4481238,-0.49964547,-0.5379089,-0.56732345,-0.59528875,-0.6306231,-0.6526995,-0.6674067,-0.67181575,-0.67036664,-0.67036664,-0.66888666,-0.6644776,-0.6615176,-0.6629976,-0.67036664,-0.6762248,-0.6762248,-0.67329574,-0.67181575,-0.67329574,-0.66888666,-0.6585885,-0.6497395,-0.64092135,-0.6394413,-0.6350322,-0.62473404,-0.61147594,-0.6026578,-0.5982487,-0.59528875,-0.59383965,-0.59235966,-0.5879506,-0.5776216,-0.5599852,-0.54083806,-0.5379089,-0.5467271,-0.5643943,-0.5746925,-0.5732125,-0.5688034,-0.56587434,-0.56732345,-0.5643943,-0.5599852,-0.55409616,-0.5511362,-0.5526161,-0.55409616,-0.5555761,-0.5599852,-0.56732345,-0.57176334,-0.5688034,-0.5614344,-0.5585053,-0.5732125,-0.5996979,-0.6158851,-0.617365,-0.6026578,-0.5864706,-0.5761725,-0.5732125,-0.57028335,-0.5688034,-0.57176334,-0.5761725,-0.5776216,-0.5761725,-0.5776216,-0.5879506,-0.59235966,-0.5893997,-0.5776216,-0.5629144,-0.5585053,-0.5629144,-0.56587434,-0.5643943,-0.5614344,-0.5643943,-0.56587434,-0.5599852,-0.5482071,-0.5364289,-0.53349984,-0.542318,-0.549687,-0.5526161,-0.55409616,-0.5526161,-0.5511362,-0.543798,-0.5246509,-0.50405455,-0.48638737,-0.4716801,-0.459902,-0.44223475,-0.4172294,-0.39367318,-0.3671878,-0.33629334,-0.3083279,-0.2965498,-0.2965498,-0.29802978,-0.28918076,-0.2685845,-0.2626955,-0.29506987,-0.37455684,-0.4746092,-0.5599852,-0.61884505,-0.6424013,-0.6424013,-0.6291432,-0.61002684,-0.5996979,-0.6055869,-0.6158851,-0.62032497,-0.6158851,-0.6055869,-0.5982487,-0.59383965,-0.58058155,-0.5585053,-0.5143527,-0.41282028,-0.21561372,0.09197414,0.45401275,0.76157,0.93377113,0.90139675,0.61147594,0.17143023,-0.29214078,-0.6526995,-0.79986435,-0.74834275,-0.6129559,-0.50112545,-0.4466439,-0.44223475,-0.45401293,-0.46727103,-0.47608918,-0.47608918,-0.4716801,-0.459902,-0.4437148,-0.4216385,-0.40986037,-0.40986037,-0.41134036,-0.41282028,-0.40545124,-0.39367318,-0.38337493,-0.3657078,-0.35248053,-0.3377425,-0.32599515,-0.3201061,-0.31125712,-0.29802978,-0.28773165,-0.28329176,-0.27447355,-0.2626955,-0.2420991,-0.2141338,-0.19646657,-0.18468845,-0.17735022,-0.16705209,-0.14938492,-0.1302377,-0.10964143,-0.086116076,-0.05815065,-0.030185282,-0.00662905,0.009558082,0.024265409,0.050750732,0.08315611,0.11993945,0.15524304,0.18027937,0.19791555,0.21265364,0.21706283,0.21558297,0.2214719,0.23032093,0.23473012,0.23032093,0.20969379,0.1743902,0.12875772,0.06693804,-0.015447259,-0.1126014,-0.20235562,-0.28477174,-0.3583696,-0.42900747,-0.4966855,-0.55409616,-0.5982487,-0.6321031,-0.6674067,-0.7041902,-0.7292264,-0.7395246,-0.7395246,-0.7351155,-0.7380446,-0.74541366,-0.7542318,-0.7660099,-0.77482814,-0.77630806,-0.768939,-0.7571918,-0.74834275,-0.74982274,-0.74834275,-0.7410045,-0.7262665,-0.7041902,-0.6909629,-0.68655384,-0.68655384,-0.6806648,-0.6762248,-0.67329574,-0.67181575,-0.67036664,-0.6659267,-0.65562856,-0.6541486,-0.6526995,-0.6526995,-0.64829034,-0.64385045,-0.64385045,-0.64681035,-0.6512195,-0.6541486,-0.6497395,-0.6497395,-0.6526995,-0.6512195,-0.64533037,-0.64385045,-0.64533037,-0.6497395,-0.65710855,-0.6585885,-0.6585885,-0.65710855,-0.6615176,-0.6674067,-0.6659267,-0.6629976,-0.65710855,-0.6541486,-0.6512195,-0.64533037,-0.6424013,-0.64533037,-0.6512195,-0.6585885,-0.66003764,-0.6585885,-0.6585885,-0.6585885,-0.6541486,-0.64681035,-0.6394413,-0.6379614,-0.64385045,-0.64385045,-0.64092135,-0.6335523,-0.6306231,-0.6365122,-0.6394413,-0.64092135,-0.6335523,-0.62032497,-0.60854685,-0.5982487,-0.59235966,-0.59235966,-0.6026578,-0.6129559,-0.6144359,-0.6129559,-0.61002684,-0.61002684,-0.61884505,-0.6291432,-0.6232541,-0.5996979,-0.57176334,-0.542318,-0.51876175,-0.49964547,-0.48638737,-0.4716801,-0.45108378,-0.42459846,-0.39367318,-0.3657078,-0.35392964,-0.36129868,-0.35981876,-0.34659147,-0.3289243,-0.32155526,-0.34659147,-0.4083804,-0.49227643,-0.5732125,-0.6350322,-0.67181575,-0.6791848,-0.67181575,-0.66888666,-0.67181575,-0.6806648,-0.6806648,-0.67181575,-0.6615176,-0.6541486,-0.6541486,-0.6497395,-0.62177414,-0.5908797,-0.549687,-0.48049825,-0.3436315,-0.12141955,0.13171768,0.3583387,0.50257444,0.5069835,0.30977714,-0.0360744,-0.4437148,-0.7821971,-0.91758394,-0.85724413,-0.702741,-0.56587434,-0.49523634,-0.47608918,-0.4849074,-0.4981655,-0.5128727,-0.5217217,-0.5114236,-0.49079645,-0.47020012,-0.4613819,-0.4628619,-0.46727103,-0.4613819,-0.4437148,-0.42752755,-0.41574943,-0.4083804,-0.39808226,-0.38778406,-0.37748593,-0.3657078,-0.3568896,-0.34511143,-0.33333337,-0.3289243,-0.32451516,-0.31714612,-0.29802978,-0.27888262,-0.2656554,-0.25976628,-0.25680637,-0.24798816,-0.23621011,-0.22002286,-0.2008757,-0.17146122,-0.1405667,-0.10816145,-0.09641421,-0.08904517,-0.07578701,-0.050781667,-0.013998151,0.019856334,0.04489243,0.06252885,0.08167601,0.09345412,0.10227227,0.10816145,0.112570524,0.11553049,0.11405051,0.10520148,0.08901429,0.06693804,0.0404526,0.00073993206,-0.056670666,-0.12878859,-0.20972472,-0.28773165,-0.3642586,-0.4363457,-0.50405455,-0.56587434,-0.6232541,-0.67181575,-0.71007925,-0.7410045,-0.7557118,-0.76160085,-0.768939,-0.78660625,-0.8101625,-0.82486975,-0.82338977,-0.8101625,-0.8042735,-0.81164247,-0.81605154,-0.82194066,-0.8145716,-0.79986435,-0.7954552,-0.7954552,-0.7910154,-0.7851571,-0.77482814,-0.76012087,-0.7513027,-0.7439337,-0.7395246,-0.7410045,-0.7395246,-0.7351155,-0.72333735,-0.7086301,-0.69685197,-0.6894829,-0.6777048,-0.6659267,-0.6615176,-0.66003764,-0.66003764,-0.6615176,-0.65710855,-0.66003764,-0.6674067,-0.6791848,-0.68359387,-0.6791848,-0.6747757,-0.67181575,-0.67036664,-0.67036664,-0.67181575,-0.6762248,-0.6821139,-0.68655384,-0.6806648,-0.6674067,-0.65710855,-0.6585885,-0.6644776,-0.6674067,-0.6659267,-0.66003764,-0.65562856,-0.65562856,-0.6497395,-0.6379614,-0.6335523,-0.6394413,-0.65710855,-0.6747757,-0.66888666,-0.65562856,-0.6424013,-0.6350322,-0.6394413,-0.6379614,-0.6424013,-0.64681035,-0.65562856,-0.6615176,-0.6629976,-0.65710855,-0.6394413,-0.61884505,-0.59235966,-0.5629144,-0.542318,-0.53349984,-0.5231708,-0.50405455,-0.4746092,-0.4437148,-0.41870934,-0.41282028,-0.41870934,-0.42311847,-0.41870934,-0.4083804,-0.3966331,-0.39808226,-0.42752755,-0.4981655,-0.59235966,-0.6806648,-0.73363554,-0.7410045,-0.72037745,-0.70126104,-0.69978106,-0.7086301,-0.7189283,-0.7277465,-0.7380446,-0.74834275,-0.74541366,-0.73656464,-0.7189283,-0.68507385,-0.64681035,-0.5908797,-0.50405455,-0.3642586,-0.17294115,0.013967276,0.17291021,0.27444267,0.25091732,0.059599757,-0.25387728,-0.6041378,-0.87491137,-0.9617365,-0.8866895,-0.7410045,-0.6158851,-0.542318,-0.5143527,-0.51583266,-0.5276108,-0.5364289,-0.5305399,-0.5217217,-0.51876175,-0.5114236,-0.49964547,-0.48345822,-0.46579105,-0.46431106,-0.47608918,-0.48197824,-0.47608918,-0.45253295,-0.42459846,-0.40545124,-0.39367318,-0.38926405,-0.38778406,-0.38485497,-0.37455684,-0.3583696,-0.3407024,-0.3289243,-0.33040428,-0.33333337,-0.32155526,-0.2965498,-0.2685845,-0.24650824,-0.2391392,-0.228841,-0.20824474,-0.18323934,-0.16409218,-0.15379399,-0.14790493,-0.1302377,-0.10230321,-0.0684489,-0.041963518,-0.01988715,0.005149007,0.03456354,0.065488815,0.0860852,0.0978632,0.10816145,0.1169796,0.12434864,0.12434864,0.11845958,0.09638333,0.065488815,0.025745273,-0.030185282,-0.09345424,-0.1626122,-0.2450282,-0.33333337,-0.42311847,-0.50112545,-0.5614344,-0.60706687,-0.64533037,-0.6762248,-0.69978106,-0.7189283,-0.7380446,-0.76453,-0.7910154,-0.8072026,-0.8086825,-0.8057534,-0.8042735,-0.8086825,-0.8101625,-0.8042735,-0.7924953,-0.78367716,-0.77482814,-0.7660099,-0.7586409,-0.7542318,-0.7542318,-0.7586409,-0.7542318,-0.7395246,-0.7159683,-0.69978106,-0.70126104,-0.7041902,-0.7056702,-0.69978106,-0.68655384,-0.67181575,-0.65710855,-0.64533037,-0.6394413,-0.6424013,-0.65562856,-0.6674067,-0.66888666,-0.66003764,-0.6497395,-0.64533037,-0.64092135,-0.64092135,-0.64385045,-0.6512195,-0.6585885,-0.65710855,-0.6497395,-0.64681035,-0.64681035,-0.65562856,-0.65562856,-0.6424013,-0.6335523,-0.6379614,-0.6526995,-0.67036664,-0.67181575,-0.6629976,-0.6541486,-0.6526995,-0.64829034,-0.64385045,-0.6365122,-0.6321031,-0.6350322,-0.6394413,-0.64092135,-0.6394413,-0.6379614,-0.6379614,-0.6335523,-0.6306231,-0.6335523,-0.64385045,-0.6526995,-0.6497395,-0.6365122,-0.6262141,-0.6276632,-0.6394413,-0.64385045,-0.6350322,-0.61147594,-0.59383965,-0.5776216,-0.5585053,-0.534949,-0.5114236,-0.49523634,-0.47756916,-0.4613819,-0.43930566,-0.41426945,-0.4039713,-0.3966331,-0.39074397,-0.37455684,-0.35392964,-0.34952056,-0.3671878,-0.41574943,-0.4878673,-0.57028335,-0.6424013,-0.6894829,-0.69685197,-0.6806648,-0.6615176,-0.65562856,-0.6629976,-0.67329574,-0.6791848,-0.6821139,-0.6791848,-0.6762248,-0.6674067,-0.6424013,-0.60854685,-0.5776216,-0.5114236,-0.37455684,-0.14497584,0.1449449,0.41278934,0.5893997,0.6335522,0.50257444,0.19350648,-0.2008757,-0.5820615,-0.8204607,-0.85724413,-0.7439337,-0.6041378,-0.5128727,-0.48197824,-0.49079645,-0.51876175,-0.542318,-0.5511362,-0.5364289,-0.5084636,-0.48345822,-0.47020012,-0.46579105,-0.47020012,-0.47020012,-0.4613819,-0.45549285,-0.44519472,-0.4304567,-0.41426945,-0.39956218,-0.38633496,-0.3730768,-0.3568896,-0.33922243,-0.32599515,-0.32599515,-0.3348133,-0.3348133,-0.32303518,-0.3039189,-0.28329176,-0.26121545,-0.24061912,-0.21120465,-0.18616843,-0.16850126,-0.16850126,-0.16705209,-0.15968305,-0.14201587,-0.11405051,-0.078746974,-0.041963518,-0.008109033,0.01837635,0.033114433,0.043412566,0.05663979,0.07578695,0.10079229,0.11993945,0.13612676,0.15379393,0.16702127,0.17291021,0.16554129,0.14642489,0.121388674,0.0978632,0.06400883,0.016927123,-0.05226159,-0.1302377,-0.2067647,-0.29066074,-0.3789659,-0.46727103,-0.54524714,-0.6011778,-0.6394413,-0.67181575,-0.7041902,-0.73215556,-0.74689364,-0.7527518,-0.7527518,-0.7557118,-0.7571918,-0.76012087,-0.76453,-0.77482814,-0.7851571,-0.78660625,-0.7777881,-0.768939,-0.7586409,-0.74834275,-0.7395246,-0.7277465,-0.72481734,-0.7277465,-0.73363554,-0.7262665,-0.7086301,-0.6924121,-0.68655384,-0.6909629,-0.6909629,-0.6806648,-0.6615176,-0.64385045,-0.6365122,-0.6335523,-0.6306231,-0.6262141,-0.6232541,-0.6306231,-0.6394413,-0.64533037,-0.6424013,-0.6321031,-0.61884505,-0.6055869,-0.6041378,-0.6129559,-0.6276632,-0.6424013,-0.64092135,-0.6306231,-0.62032497,-0.617365,-0.62473404,-0.6335523,-0.6335523,-0.6321031,-0.6365122,-0.64385045,-0.64681035,-0.64385045,-0.6379614,-0.6379614,-0.6394413,-0.6365122,-0.6321031,-0.62177414,-0.61002684,-0.60854685,-0.6055869,-0.6055869,-0.61147594,-0.62032497,-0.62473404,-0.6129559,-0.5982487,-0.5879506,-0.5879506,-0.5996979,-0.6055869,-0.6011778,-0.59383965,-0.5908797,-0.59235966,-0.59528875,-0.59383965,-0.5908797,-0.5879506,-0.5879506,-0.58351064,-0.5746925,-0.5643943,-0.5585053,-0.5643943,-0.57176334,-0.5732125,-0.57028335,-0.55702525,-0.542318,-0.5276108,-0.5143527,-0.50698364,-0.49964547,-0.49523634,-0.48345822,-0.4613819,-0.43193662,-0.40104216,-0.37748593,-0.3583696,-0.35100055,-0.35540968,-0.35540968,-0.34807146,-0.33333337,-0.32155526,-0.3318842,-0.38778406,-0.4716801,-0.55702525,-0.62032497,-0.6526995,-0.6585885,-0.6497395,-0.6365122,-0.62473404,-0.62032497,-0.617365,-0.62177414,-0.62473404,-0.61884505,-0.62032497,-0.62473404,-0.6291432,-0.6232541,-0.5982487,-0.5114236,-0.33333337,-0.040483534,0.31714606,0.63796127,0.84250605,0.8616533,0.6291431,0.22884095,-0.21709377,-0.59528875,-0.78808624,-0.7851571,-0.6777048,-0.5643943,-0.49227643,-0.46431106,-0.46872014,-0.4849074,-0.49523634,-0.50112545,-0.50112545,-0.4966855,-0.4878673,-0.46872014,-0.45401293,-0.44078565,-0.44078565,-0.43930566,-0.4304567,-0.41574943,-0.40252215,-0.39219314,-0.37600595,-0.3568896,-0.3377425,-0.3289243,-0.33333337,-0.33922243,-0.3348133,-0.3201061,-0.2965498,-0.27595353,-0.2626955,-0.24946815,-0.24061912,-0.23180097,-0.2141338,-0.1950174,-0.16998118,-0.14938492,-0.13319772,-0.117010534,-0.09345424,-0.07137799,-0.04489261,-0.018407226,0.009558082,0.04489243,0.0860852,0.11405051,0.1302377,0.14053583,0.15379393,0.17291021,0.19791555,0.21706283,0.22295189,0.2214719,0.21558297,0.20087564,0.17879939,0.14935398,0.11553049,0.074306965,0.01837635,-0.0610798,-0.15820307,-0.25976628,-0.35248053,-0.4334166,-0.49964547,-0.5555761,-0.6011778,-0.6350322,-0.6615176,-0.68507385,-0.7056702,-0.7189283,-0.72333735,-0.7277465,-0.73656464,-0.74541366,-0.74982274,-0.7410045,-0.7277465,-0.7174483,-0.7174483,-0.7174483,-0.7189283,-0.7130392,-0.7056702,-0.69685197,-0.68359387,-0.67181575,-0.6629976,-0.6615176,-0.66003764,-0.6526995,-0.6379614,-0.62473404,-0.617365,-0.6232541,-0.6335523,-0.6394413,-0.64385045,-0.6394413,-0.6321031,-0.617365,-0.60706687,-0.5996979,-0.6011778,-0.6041378,-0.6041378,-0.5982487,-0.59528875,-0.6041378,-0.61147594,-0.6129559,-0.60706687,-0.5982487,-0.5982487,-0.6026578,-0.6041378,-0.60854685,-0.61147594,-0.61147594,-0.6158851,-0.60706687,-0.5982487,-0.5982487,-0.6011778,-0.60706687,-0.61147594,-0.6041378,-0.5996979,-0.6055869,-0.6158851,-0.6158851,-0.6129559,-0.6055869,-0.6041378,-0.6144359,-0.6291432,-0.6350322,-0.6365122,-0.6350322,-0.6335523,-0.6306231,-0.6232541,-0.6158851,-0.60854685,-0.6129559,-0.61147594,-0.6158851,-0.61884505,-0.62473404,-0.6306231,-0.6306231,-0.61884505,-0.60706687,-0.59676874,-0.59383965,-0.59528875,-0.5908797,-0.5864706,-0.5820615,-0.57910156,-0.5820615,-0.5820615,-0.5820615,-0.58351064,-0.59235966,-0.59676874,-0.5996979,-0.59383965,-0.58058155,-0.57028335,-0.56587434,-0.5688034,-0.57176334,-0.5776216,-0.5776216,-0.5643943,-0.5511362,-0.5379089,-0.5231708,-0.5084636,-0.4849074,-0.45108378,-0.41574943,-0.39074397,-0.37600595,-0.3657078,-0.36129868,-0.35540968,-0.34218234,-0.3201061,-0.2936207,-0.28625166,-0.31273705,-0.38926405,-0.4878673,-0.57176334,-0.617365,-0.6232541,-0.6158851,-0.6129559,-0.617365,-0.62177414,-0.6276632,-0.62177414,-0.62032497,-0.62177414,-0.6262141,-0.6335523,-0.6291432,-0.61147594,-0.57028335,-0.48049825,-0.3289243,-0.0993433,0.1626122,0.40249133,0.57025254,0.615885,0.46872008,0.14790487,-0.25091726,-0.6129559,-0.81309164,-0.8145716,-0.70126104,-0.5893997,-0.53201985,-0.5055345,-0.49523634,-0.48345822,-0.46579105,-0.45108378,-0.44960386,-0.4481238,-0.4437148,-0.43193662,-0.4216385,-0.41870934,-0.42459846,-0.44078565,-0.44960386,-0.4363457,-0.41574943,-0.39219314,-0.37600595,-0.37455684,-0.37748593,-0.38044584,-0.38044584,-0.38044584,-0.36866772,-0.34511143,-0.3201061,-0.29802978,-0.2803626,-0.2685845,-0.25828636,-0.24357915,-0.23621011,-0.228841,-0.21561372,-0.19353747,-0.1655721,-0.13908678,-0.11849046,-0.094934165,-0.07137799,-0.047852516,-0.02281636,-0.008109033,0.005149007,0.025745273,0.052230716,0.08167601,0.106681466,0.12582862,0.13905585,0.14346504,0.1449449,0.14053583,0.14053583,0.13905585,0.13464677,0.11405051,0.08019602,0.033114433,-0.025776207,-0.09641421,-0.17439032,-0.26121545,-0.3377425,-0.40986037,-0.47608918,-0.5393889,-0.5908797,-0.6291432,-0.6585885,-0.6806648,-0.7056702,-0.7292264,-0.7439337,-0.74834275,-0.74834275,-0.7557118,-0.76308084,-0.7674899,-0.76453,-0.7542318,-0.74982274,-0.74834275,-0.7439337,-0.7395246,-0.7262665,-0.71155924,-0.70715016,-0.7086301,-0.7144884,-0.7174483,-0.71007925,-0.69389206,-0.67329574,-0.65562856,-0.6512195,-0.65710855,-0.66003764,-0.6541486,-0.6424013,-0.6306231,-0.6306231,-0.6365122,-0.64385045,-0.64092135,-0.6394413,-0.6365122,-0.6394413,-0.64385045,-0.64829034,-0.6497395,-0.6512195,-0.65562856,-0.65710855,-0.6585885,-0.6585885,-0.6644776,-0.6629976,-0.65710855,-0.64681035,-0.6394413,-0.6394413,-0.64681035,-0.6512195,-0.6512195,-0.6512195,-0.65562856,-0.66003764,-0.6659267,-0.6644776,-0.66003764,-0.6585885,-0.6644776,-0.67036664,-0.66888666,-0.6629976,-0.6629976,-0.66888666,-0.67181575,-0.6644776,-0.64533037,-0.62473404,-0.62032497,-0.6379614,-0.65562856,-0.6674067,-0.6659267,-0.65710855,-0.64385045,-0.6394413,-0.6394413,-0.6424013,-0.64533037,-0.64533037,-0.6424013,-0.64092135,-0.6497395,-0.6585885,-0.65710855,-0.64681035,-0.6291432,-0.617365,-0.60706687,-0.59235966,-0.5746925,-0.5526161,-0.5246509,-0.50112545,-0.4731601,-0.44519472,-0.42604756,-0.42311847,-0.42900747,-0.42459846,-0.40545124,-0.38485497,-0.38485497,-0.4216385,-0.4966855,-0.58351064,-0.6497395,-0.6909629,-0.70126104,-0.69685197,-0.6894829,-0.68800294,-0.695372,-0.69978106,-0.69978106,-0.695372,-0.6894829,-0.68800294,-0.702741,-0.69685197,-0.6615176,-0.617365,-0.55409616,-0.46579105,-0.32155526,-0.1302377,0.065488815,0.21558297,0.28033173,0.21706283,0.0021891594,-0.305368,-0.6321031,-0.8660932,-0.9205439,-0.82634974,-0.6821139,-0.56587434,-0.50257456,-0.48049825,-0.47756916,-0.49079645,-0.5084636,-0.5231708,-0.5290599,-0.5231708,-0.5143527,-0.50257456,-0.4966855,-0.49227643,-0.48345822,-0.48197824,-0.4849074,-0.4849074,-0.48049825,-0.4613819,-0.4437148,-0.42311847,-0.40693122,-0.3951531,-0.3789659,-0.36129868,-0.34511143,-0.3348133,-0.32155526,-0.31421703,-0.3083279,-0.30095893,-0.29802978,-0.27888262,-0.25239724,-0.23328102,-0.22443193,-0.22150278,-0.21120465,-0.18764848,-0.15527397,-0.119939625,-0.08463603,-0.056670666,-0.028705359,-0.008109033,0.00073993206,0.009558082,0.03456354,0.06693804,0.0978632,0.11405051,0.11109054,0.10520148,0.10520148,0.10816145,0.10816145,0.09934318,0.074306965,0.03456354,-0.024296284,-0.097863376,-0.18468845,-0.2671045,-0.3407024,-0.40545124,-0.47608918,-0.5482071,-0.617365,-0.6659267,-0.69685197,-0.72037745,-0.74834275,-0.77630806,-0.79986435,-0.8101625,-0.8072026,-0.8057534,-0.8057534,-0.8042735,-0.80134434,-0.80279344,-0.8101625,-0.81605154,-0.81164247,-0.8042735,-0.78660625,-0.77041906,-0.7571918,-0.7513027,-0.74834275,-0.74982274,-0.7527518,-0.74834275,-0.7410045,-0.7380446,-0.73363554,-0.7277465,-0.71007925,-0.6806648,-0.66003764,-0.65562856,-0.6615176,-0.6659267,-0.66003764,-0.64385045,-0.6335523,-0.6365122,-0.6424013,-0.64829034,-0.6526995,-0.6541486,-0.65710855,-0.6497395,-0.6424013,-0.6276632,-0.61884505,-0.6232541,-0.6306231,-0.6379614,-0.64533037,-0.6497395,-0.6497395,-0.64533037,-0.6365122,-0.6350322,-0.6394413,-0.6394413,-0.6335523,-0.617365,-0.6041378,-0.6011778,-0.6158851,-0.6291432,-0.6321031,-0.62473404,-0.617365,-0.6158851,-0.62032497,-0.6276632,-0.6321031,-0.6276632,-0.61884505,-0.60854685,-0.59528875,-0.5908797,-0.59528875,-0.61002684,-0.61884505,-0.6232541,-0.61884505,-0.60706687,-0.59528875,-0.58058155,-0.5643943,-0.55409616,-0.549687,-0.542318,-0.5261308,-0.5055345,-0.4849074,-0.46727103,-0.4569729,-0.44223475,-0.4216385,-0.41282028,-0.41282028,-0.40693122,-0.38778406,-0.35392964,-0.32451516,-0.33629334,-0.4083804,-0.5099436,-0.60706687,-0.67036664,-0.68655384,-0.67181575,-0.6526995,-0.6321031,-0.6276632,-0.6365122,-0.6526995,-0.6644776,-0.66888666,-0.6659267,-0.6674067,-0.6747757,-0.65710855,-0.6232541,-0.5585053,-0.4466439,-0.27447355,-0.027225375,0.24650812,0.47753835,0.6055869,0.5849906,0.37011683,0.021336317,-0.3657078,-0.6806648,-0.8307588,-0.8072026,-0.6924121,-0.5849906,-0.53201985,-0.51731265,-0.52024174,-0.5276108,-0.5290599,-0.5231708,-0.52024174,-0.5099436,-0.49375635,-0.47904915,-0.46579105,-0.46431106,-0.46579105,-0.4628619,-0.4569729,-0.4466439,-0.4304567,-0.41426945,-0.39808226,-0.3789659,-0.36277866,-0.34952056,-0.33333337,-0.31862617,-0.31714612,-0.32451516,-0.33629334,-0.33629334,-0.32155526,-0.2965498,-0.2671045,-0.2450282,-0.22591186,-0.20824474,-0.19353747,-0.17587024,-0.15820307,-0.13612682,-0.11553055,-0.09345424,-0.081676066,-0.0684489,-0.03900349,0.00073993206,0.043412566,0.08019602,0.106681466,0.12434864,0.14053583,0.14790487,0.15379393,0.1626122,0.1743902,0.18616843,0.18616843,0.16998112,0.14346504,0.10816145,0.065488815,0.00073993206,-0.08315605,-0.17587024,-0.25828636,-0.32451516,-0.39219314,-0.458422,-0.5276108,-0.5864706,-0.6276632,-0.6541486,-0.6791848,-0.7056702,-0.7189283,-0.7277465,-0.7292264,-0.73215556,-0.7424537,-0.7527518,-0.7557118,-0.7527518,-0.7439337,-0.7292264,-0.71007925,-0.69389206,-0.6909629,-0.69685197,-0.702741,-0.69978106,-0.68359387,-0.67036664,-0.6644776,-0.6659267,-0.66888666,-0.6541486,-0.6321031,-0.6144359,-0.6055869,-0.6011778,-0.5982487,-0.59676874,-0.59676874,-0.5996979,-0.6041378,-0.6026578,-0.59235966,-0.5893997,-0.5864706,-0.58058155,-0.57176334,-0.5629144,-0.56587434,-0.5746925,-0.5820615,-0.5864706,-0.5864706,-0.5893997,-0.59235966,-0.59528875,-0.5908797,-0.5864706,-0.59676874,-0.6144359,-0.6276632,-0.6276632,-0.6144359,-0.5996979,-0.5908797,-0.5893997,-0.59235966,-0.5982487,-0.6041378,-0.61002684,-0.61147594,-0.6055869,-0.5982487,-0.5982487,-0.6011778,-0.5982487,-0.5908797,-0.57910156,-0.57910156,-0.5893997,-0.59528875,-0.5908797,-0.5761725,-0.5614344,-0.5555761,-0.5555761,-0.5585053,-0.5614344,-0.56732345,-0.56732345,-0.5629144,-0.5511362,-0.5305399,-0.51731265,-0.5114236,-0.50698364,-0.4981655,-0.48638737,-0.46872014,-0.44223475,-0.41426945,-0.38926405,-0.3715968,-0.3671878,-0.3701169,-0.36866772,-0.34952056,-0.32303518,-0.3024389,-0.30095893,-0.33040428,-0.3966331,-0.4849074,-0.56732345,-0.6232541,-0.64092135,-0.6291432,-0.61884505,-0.62177414,-0.64092135,-0.6512195,-0.64681035,-0.6321031,-0.62032497,-0.6158851,-0.62032497,-0.6276632,-0.6232541,-0.60854685,-0.56587434,-0.458422,-0.25680637,0.04489243,0.38337493,0.6791538,0.8616533,0.85869324,0.60999596,0.19350648,-0.2656554,-0.6276632,-0.779268,-0.73363554,-0.6011778,-0.4981655,-0.4569729,-0.4628619,-0.48197824,-0.4966855,-0.49964547,-0.48934728,-0.4746092,-0.4628619,-0.458422,-0.45549285,-0.45401293,-0.44960386,-0.4466439,-0.44223475,-0.4363457,-0.4216385,-0.40104216,-0.381895,-0.36866772,-0.35981876,-0.35100055,-0.3407024,-0.32155526,-0.306848,-0.2936207,-0.2803626,-0.2671045,-0.25828636,-0.25535727,-0.25387728,-0.25091726,-0.2450282,-0.23328102,-0.21709377,-0.19646657,-0.17587024,-0.15086484,-0.13171768,-0.11405051,-0.09052515,-0.055190682,-0.016927242,0.016927123,0.03900349,0.059599757,0.09197414,0.12727773,0.15965211,0.18320847,0.19646657,0.20969379,0.22884095,0.24061906,0.23473012,0.21706283,0.19350648,0.16554129,0.13316679,0.0860852,0.027225256,-0.049301744,-0.12878859,-0.21854287,-0.31421703,-0.40693122,-0.48934728,-0.5555761,-0.60854685,-0.6585885,-0.69978106,-0.7277465,-0.7410045,-0.74541366,-0.74834275,-0.7513027,-0.7542318,-0.7527518,-0.74982274,-0.74834275,-0.7527518,-0.7439337,-0.7351155,-0.73363554,-0.73656464,-0.74689364,-0.7513027,-0.74541366,-0.73656464,-0.7277465,-0.72333735,-0.7159683,-0.70126104,-0.6894829,-0.6791848,-0.67181575,-0.6629976,-0.6497395,-0.6394413,-0.6321031,-0.6291432,-0.6335523,-0.64092135,-0.64681035,-0.6497395,-0.64385045,-0.6276632,-0.60854685,-0.59235966,-0.5908797,-0.5982487,-0.60854685,-0.6144359,-0.617365,-0.61884505,-0.62032497,-0.617365,-0.61147594,-0.6055869,-0.60854685,-0.62473404,-0.64092135,-0.64681035,-0.6424013,-0.6321031,-0.62032497,-0.61147594,-0.60854685,-0.61002684,-0.6144359,-0.6158851,-0.61002684,-0.6011778,-0.6011778,-0.61002684,-0.62473404,-0.6321031,-0.6232541,-0.6144359,-0.6129559,-0.6144359,-0.61147594,-0.6041378,-0.59528875,-0.5908797,-0.59383965,-0.5982487,-0.59676874,-0.5982487,-0.6026578,-0.60706687,-0.6041378,-0.59235966,-0.58351064,-0.5864706,-0.5982487,-0.6026578,-0.59383965,-0.58351064,-0.5776216,-0.5820615,-0.5864706,-0.58351064,-0.57028335,-0.549687,-0.53201985,-0.5099436,-0.4878673,-0.4716801,-0.459902,-0.44519472,-0.4172294,-0.381895,-0.3568896,-0.3436315,-0.34218234,-0.34659147,-0.34511143,-0.3318842,-0.31862617,-0.31421703,-0.32599515,-0.3730768,-0.44960386,-0.5393889,-0.6129559,-0.6585885,-0.6644776,-0.6497395,-0.6291432,-0.6144359,-0.6144359,-0.6262141,-0.6424013,-0.6541486,-0.66003764,-0.6585885,-0.6497395,-0.6321031,-0.6011778,-0.56587434,-0.49523634,-0.35540968,-0.12434876,0.17587018,0.47020006,0.68652296,0.76745903,0.6320722,0.28477156,-0.15675396,-0.5688034,-0.8145716,-0.83812785,-0.7189283,-0.5864706,-0.49964547,-0.46872014,-0.47608918,-0.4966855,-0.5128727,-0.5128727,-0.4966855,-0.48345822,-0.48345822,-0.48638737,-0.4878673,-0.48049825,-0.459902,-0.4466439,-0.44519472,-0.4437148,-0.44223475,-0.43930566,-0.42459846,-0.40986037,-0.39074397,-0.3715968,-0.36277866,-0.3583696,-0.35392964,-0.34511143,-0.32744426,-0.30980796,-0.2965498,-0.29214078,-0.28625166,-0.27888262,-0.2700644,-0.26121545,-0.24650824,-0.228841,-0.20972472,-0.1891284,-0.16998118,-0.14349586,-0.111121416,-0.08463603,-0.07433784,-0.0610798,-0.041963518,-0.002219975,0.046341658,0.07871604,0.09197414,0.09490323,0.10520148,0.12582862,0.14790487,0.1626122,0.16702127,0.15965211,0.13905585,0.10079229,0.049301624,-0.011038125,-0.07137799,-0.13612682,-0.20824474,-0.28773165,-0.3701169,-0.44519472,-0.50698364,-0.5643943,-0.6232541,-0.6659267,-0.69685197,-0.7041902,-0.7056702,-0.7174483,-0.7351155,-0.7527518,-0.7674899,-0.779268,-0.7895662,-0.8042735,-0.81309164,-0.8086825,-0.80279344,-0.7939753,-0.7895662,-0.7807172,-0.77337897,-0.7660099,-0.76453,-0.7660099,-0.7586409,-0.7410045,-0.7292264,-0.72037745,-0.72037745,-0.7189283,-0.7086301,-0.69830114,-0.6924121,-0.6909629,-0.68800294,-0.6762248,-0.6674067,-0.6629976,-0.6615176,-0.6585885,-0.6512195,-0.64533037,-0.64533037,-0.6497395,-0.6526995,-0.6497395,-0.6497395,-0.64681035,-0.6526995,-0.65710855,-0.65710855,-0.65710855,-0.6541486,-0.6526995,-0.6526995,-0.6497395,-0.6497395,-0.65710855,-0.6659267,-0.67181575,-0.67036664,-0.6629976,-0.65710855,-0.6585885,-0.6615176,-0.6659267,-0.6762248,-0.68359387,-0.6909629,-0.6909629,-0.6806648,-0.66888666,-0.6659267,-0.66888666,-0.6644776,-0.6585885,-0.66003764,-0.66888666,-0.6777048,-0.6791848,-0.6659267,-0.6497395,-0.64092135,-0.64385045,-0.6512195,-0.6541486,-0.65710855,-0.6615176,-0.65710855,-0.6394413,-0.6129559,-0.5893997,-0.5732125,-0.56732345,-0.5526161,-0.5290599,-0.50257456,-0.48638737,-0.4746092,-0.4628619,-0.4481238,-0.43930566,-0.4348966,-0.42604756,-0.40986037,-0.38926405,-0.38633496,-0.42900747,-0.5084636,-0.59383965,-0.6615176,-0.70126104,-0.7144884,-0.7144884,-0.71155924,-0.7041902,-0.69830114,-0.69978106,-0.70715016,-0.71007925,-0.70126104,-0.695372,-0.6924121,-0.68655384,-0.6659267,-0.6335523,-0.5776216,-0.49079645,-0.34807146,-0.14497584,0.065488815,0.23765922,0.32303512,0.25825548,0.024265409,-0.3039189,-0.64829034,-0.8940585,-0.95584744,-0.8675423,-0.72481734,-0.61147594,-0.55409616,-0.54083806,-0.55409616,-0.5629144,-0.5746925,-0.5776216,-0.5746925,-0.5599852,-0.543798,-0.5305399,-0.5231708,-0.5231708,-0.5231708,-0.5128727,-0.4981655,-0.48638737,-0.47608918,-0.46579105,-0.45549285,-0.44519472,-0.4334166,-0.4216385,-0.40693122,-0.38778406,-0.3730768,-0.36277866,-0.35248053,-0.3436315,-0.3348133,-0.3318842,-0.32451516,-0.3201061,-0.306848,-0.28918076,-0.27154446,-0.24798816,-0.22443193,-0.20235562,-0.18175936,-0.16705209,-0.15527397,-0.13319772,-0.09641421,-0.05371076,-0.012518108,0.016927123,0.036043525,0.046341658,0.05663979,0.06693804,0.08315611,0.10079229,0.11845958,0.12727773,0.1169796,0.08901429,0.052230716,0.009558082,-0.03900349,-0.10082322,-0.18027931,-0.2656554,-0.34659147,-0.4216385,-0.49079645,-0.55409616,-0.61002684,-0.6526995,-0.6806648,-0.7056702,-0.7351155,-0.7571918,-0.77337897,-0.779268,-0.78367716,-0.7910154,-0.80134434,-0.8057534,-0.80134434,-0.80279344,-0.8086825,-0.81164247,-0.8057534,-0.7895662,-0.77337897,-0.76453,-0.76012087,-0.7513027,-0.73363554,-0.72481734,-0.72333735,-0.72481734,-0.7189283,-0.69830114,-0.6806648,-0.67329574,-0.6762248,-0.68359387,-0.68359387,-0.6806648,-0.6762248,-0.6644776,-0.64829034,-0.6365122,-0.6321031,-0.6335523,-0.6424013,-0.64681035,-0.64385045,-0.64385045,-0.6379614,-0.6321031,-0.6276632,-0.62473404,-0.6232541,-0.6262141,-0.62473404,-0.61884505,-0.6129559,-0.6129559,-0.62473404,-0.64681035,-0.6585885,-0.65710855,-0.6512195,-0.64533037,-0.6424013,-0.64681035,-0.64829034,-0.64829034,-0.6512195,-0.6526995,-0.6497395,-0.6365122,-0.6335523,-0.6350322,-0.6394413,-0.6394413,-0.6291432,-0.6158851,-0.60854685,-0.61147594,-0.62177414,-0.6276632,-0.6335523,-0.6379614,-0.6379614,-0.6276632,-0.617365,-0.60854685,-0.6055869,-0.60706687,-0.60854685,-0.6011778,-0.5893997,-0.5820615,-0.57910156,-0.5746925,-0.5599852,-0.5393889,-0.5143527,-0.4878673,-0.44960386,-0.41134036,-0.381895,-0.36277866,-0.36129868,-0.3701169,-0.36866772,-0.35248053,-0.3318842,-0.31566614,-0.31862617,-0.35540968,-0.42752755,-0.51876175,-0.59383965,-0.6365122,-0.64092135,-0.6262141,-0.61147594,-0.61002684,-0.62177414,-0.6306231,-0.6321031,-0.6335523,-0.6321031,-0.6321031,-0.6379614,-0.6291432,-0.6041378,-0.57028335,-0.50698364,-0.39219314,-0.19942653,0.068418026,0.35244966,0.57025254,0.67181563,0.59380877,0.31714606,-0.055190682,-0.42752755,-0.68800294,-0.76308084,-0.695372,-0.5761725,-0.48345822,-0.4363457,-0.42459846,-0.43782568,-0.45401293,-0.4628619,-0.45401293,-0.4363457,-0.4172294,-0.40104216,-0.38926405,-0.38778406,-0.38633496,-0.38926405,-0.38633496,-0.3715968,-0.35392964,-0.33629334,-0.32599515,-0.32155526,-0.31421703,-0.305368,-0.3024389,-0.3024389,-0.3039189,-0.2936207,-0.27595353,-0.25976628,-0.24946815,-0.24357915,-0.23180097,-0.21120465,-0.19057757,-0.18175936,-0.17294115,-0.15231407,-0.12434876,-0.09345424,-0.06989801,-0.055190682,-0.034594417,-0.008109033,0.021336317,0.046341658,0.06989789,0.0978632,0.13171768,0.15965211,0.17731929,0.19205737,0.20824468,0.22884095,0.24354815,0.24650812,0.23913908,0.22736096,0.21413362,0.18761754,0.14642489,0.08756518,0.012487292,-0.07137799,-0.15379399,-0.23769003,-0.31566614,-0.38926405,-0.4569729,-0.5246509,-0.5879506,-0.6335523,-0.65710855,-0.6674067,-0.67329574,-0.68655384,-0.7041902,-0.7189283,-0.7277465,-0.73215556,-0.7410045,-0.74541366,-0.7410045,-0.7380446,-0.7351155,-0.7380446,-0.7424537,-0.7395246,-0.7292264,-0.7189283,-0.7130392,-0.7056702,-0.695372,-0.68507385,-0.67181575,-0.6629976,-0.65710855,-0.6424013,-0.6276632,-0.6144359,-0.6026578,-0.5982487,-0.5982487,-0.59676874,-0.5982487,-0.5982487,-0.5893997,-0.5776216,-0.56587434,-0.5614344,-0.56732345,-0.5776216,-0.5849906,-0.5820615,-0.58351064,-0.5908797,-0.6026578,-0.6055869,-0.6011778,-0.5879506,-0.5776216,-0.5776216,-0.58351064,-0.5908797,-0.59528875,-0.6026578,-0.6055869,-0.60706687,-0.60706687,-0.60706687,-0.61002684,-0.61002684,-0.6011778,-0.5879506,-0.5761725,-0.58351064,-0.5996979,-0.6144359,-0.61884505,-0.61002684,-0.59528875,-0.5879506,-0.5908797,-0.59235966,-0.5879506,-0.58058155,-0.56732345,-0.5555761,-0.5511362,-0.5599852,-0.5746925,-0.5908797,-0.5996979,-0.59676874,-0.5908797,-0.58351064,-0.5776216,-0.57176334,-0.5643943,-0.55702525,-0.5555761,-0.5585053,-0.5599852,-0.55702525,-0.55702525,-0.5555761,-0.5511362,-0.54524714,-0.5364289,-0.53201985,-0.5305399,-0.534949,-0.5393889,-0.5379089,-0.53201985,-0.53201985,-0.5305399,-0.53201985,-0.5364289,-0.54083806,-0.5393889,-0.5364289,-0.5261308,-0.5114236,-0.50257456,-0.49964547,-0.4981655,-0.50405455,-0.50698364,-0.50405455,-0.49523634,-0.48049825,-0.458422,-0.43930566,-0.42900747,-0.42459846,-0.41574943,-0.39367318,-0.36277866,-0.3318842,-0.31566614,-0.31862617,-0.32155526,-0.306848,-0.27447355,-0.2420991,-0.23328102,-0.2671045,-0.33629334,-0.4216385,-0.4981655,-0.542318,-0.5526161,-0.54524714,-0.5379089,-0.5393889,-0.5482071,-0.5555761,-0.55702525,-0.5526161,-0.55409616,-0.5614344,-0.56732345,-0.5599852,-0.5393889,-0.50257456,-0.41574943,-0.23621011,0.0537107,0.4069004,0.7203773,0.914624,0.94406927,0.73360455,0.3451115,-0.0993433,-0.48934728,-0.69685197,-0.695372,-0.5864706,-0.48345822,-0.43193662,-0.4216385,-0.42900747,-0.44078565,-0.45108378,-0.4569729,-0.45401293,-0.44223475,-0.43193662,-0.42459846,-0.4201585,-0.41134036,-0.39956218,-0.39074397,-0.38485497,-0.38044584,-0.3730768,-0.35392964,-0.33333337,-0.31566614,-0.30095893,-0.28773165,-0.27888262,-0.2700644,-0.25680637,-0.23769003,-0.21120465,-0.18468845,-0.16998118,-0.16850126,-0.16850126,-0.15968305,-0.14790493,-0.1376068,-0.1273086,-0.11405051,-0.09052515,-0.06403977,-0.041963518,-0.025776207,-0.011038125,0.015447259,0.049301624,0.08019602,0.10816145,0.13316679,0.15820312,0.18468845,0.20824468,0.23032093,0.24943721,0.27151358,0.28918064,0.2950698,0.29210985,0.28477156,0.27592266,0.26121545,0.23325014,0.17879939,0.103752375,0.025745273,-0.050781667,-0.13171768,-0.21709377,-0.3024389,-0.38337493,-0.45108378,-0.50257456,-0.543798,-0.5776216,-0.5982487,-0.6158851,-0.6379614,-0.6629976,-0.68359387,-0.6924121,-0.6909629,-0.68655384,-0.68800294,-0.6924121,-0.6894829,-0.6821139,-0.6762248,-0.6777048,-0.6894829,-0.69685197,-0.702741,-0.702741,-0.695372,-0.68359387,-0.66888666,-0.65710855,-0.6512195,-0.6526995,-0.6526995,-0.64533037,-0.6335523,-0.6276632,-0.62177414,-0.617365,-0.61147594,-0.6011778,-0.59528875,-0.59676874,-0.59676874,-0.59235966,-0.5864706,-0.5776216,-0.5732125,-0.5688034,-0.5688034,-0.57176334,-0.57910156,-0.5893997,-0.5996979,-0.59676874,-0.5908797,-0.5908797,-0.59528875,-0.6026578,-0.6026578,-0.6041378,-0.60706687,-0.61147594,-0.61884505,-0.62032497,-0.6158851,-0.6158851,-0.62032497,-0.6232541,-0.61884505,-0.60706687,-0.59528875,-0.59676874,-0.60706687,-0.62177414,-0.6291432,-0.6306231,-0.6350322,-0.6350322,-0.6262141,-0.61147594,-0.6011778,-0.5996979,-0.6055869,-0.61002684,-0.61002684,-0.60706687,-0.61147594,-0.62032497,-0.62473404,-0.62177414,-0.61002684,-0.6011778,-0.59383965,-0.5879506,-0.5849906,-0.5864706,-0.59235966,-0.5982487,-0.5996979,-0.59383965,-0.5893997,-0.59235966,-0.6011778,-0.61002684,-0.60854685,-0.5996979,-0.59528875,-0.5908797,-0.5849906,-0.58351064,-0.58058155,-0.5864706,-0.59235966,-0.5996979,-0.6026578,-0.6055869,-0.6026578,-0.6011778,-0.59235966,-0.57910156,-0.5776216,-0.58058155,-0.5820615,-0.57910156,-0.57028335,-0.5614344,-0.5629144,-0.56587434,-0.5643943,-0.55409616,-0.5393889,-0.52024174,-0.50405455,-0.48345822,-0.4613819,-0.4304567,-0.40104216,-0.3730768,-0.34952056,-0.33922243,-0.3407024,-0.35100055,-0.34952056,-0.32599515,-0.2936207,-0.27740264,-0.3024389,-0.37748593,-0.48049825,-0.57176334,-0.6321031,-0.6541486,-0.64533037,-0.62032497,-0.59528875,-0.5908797,-0.6041378,-0.6232541,-0.6350322,-0.6350322,-0.6306231,-0.6335523,-0.6306231,-0.61002684,-0.5746925,-0.5143527,-0.4083804,-0.2273919,0.025745273,0.28770065,0.5010946,0.60262704,0.5246507,0.24650812,-0.13319772,-0.5276108,-0.79838437,-0.86165327,-0.76160085,-0.6129559,-0.50257456,-0.4569729,-0.4613819,-0.48197824,-0.4966855,-0.4966855,-0.49079645,-0.4878673,-0.48197824,-0.47756916,-0.47020012,-0.4613819,-0.45549285,-0.44960386,-0.44223475,-0.4334166,-0.42311847,-0.40986037,-0.39956218,-0.39219314,-0.39367318,-0.4039713,-0.39956218,-0.38485497,-0.3583696,-0.33629334,-0.3201061,-0.3039189,-0.28773165,-0.27299362,-0.26417542,-0.2626955,-0.25535727,-0.23769003,-0.20972472,-0.18764848,-0.16998118,-0.15820307,-0.14201587,-0.12141955,-0.094934165,-0.07137799,-0.05226159,-0.030185282,-0.00662905,0.016927123,0.036043525,0.052230716,0.07137787,0.090494275,0.10227227,0.10816145,0.10816145,0.11109054,0.12582862,0.14053583,0.1449449,0.12875772,0.08901429,0.03456354,-0.033114433,-0.1052323,-0.17439032,-0.24061912,-0.305368,-0.3715968,-0.4466439,-0.52024174,-0.57910156,-0.6365122,-0.6777048,-0.70715016,-0.7292264,-0.7351155,-0.73656464,-0.74541366,-0.76012087,-0.77337897,-0.7851571,-0.7924953,-0.7969044,-0.8042735,-0.80134434,-0.78660625,-0.7660099,-0.7527518,-0.74834275,-0.74834275,-0.74982274,-0.74689364,-0.7424537,-0.7439337,-0.74689364,-0.7410045,-0.7277465,-0.71007925,-0.695372,-0.68655384,-0.68655384,-0.6924121,-0.7086301,-0.7159683,-0.7159683,-0.69685197,-0.67329574,-0.65710855,-0.6541486,-0.66003764,-0.66003764,-0.6585885,-0.65562856,-0.6585885,-0.6659267,-0.6629976,-0.6585885,-0.6541486,-0.65562856,-0.65710855,-0.65562856,-0.64829034,-0.64092135,-0.6379614,-0.6379614,-0.6350322,-0.6365122,-0.64829034,-0.6629976,-0.67329574,-0.6762248,-0.67036664,-0.6659267,-0.6674067,-0.67329574,-0.6777048,-0.67329574,-0.67329574,-0.67036664,-0.67329574,-0.6762248,-0.67181575,-0.6747757,-0.6747757,-0.67181575,-0.6674067,-0.6585885,-0.6585885,-0.6629976,-0.67036664,-0.67181575,-0.6644776,-0.6629976,-0.6674067,-0.6791848,-0.6806648,-0.66888666,-0.65710855,-0.6497395,-0.6526995,-0.65562856,-0.65710855,-0.6585885,-0.66003764,-0.6615176,-0.6629976,-0.6615176,-0.6629976,-0.6674067,-0.6659267,-0.6526995,-0.6276632,-0.6011778,-0.59235966,-0.5864706,-0.5776216,-0.5599852,-0.5364289,-0.51731265,-0.49964547,-0.48197824,-0.458422,-0.4348966,-0.4216385,-0.4083804,-0.38926405,-0.36129868,-0.3436315,-0.35392964,-0.40693122,-0.4981655,-0.5849906,-0.64681035,-0.67181575,-0.6747757,-0.6674067,-0.66888666,-0.6777048,-0.6894829,-0.6924121,-0.6894829,-0.6806648,-0.6777048,-0.6821139,-0.68359387,-0.6512195,-0.6011778,-0.5290599,-0.4334166,-0.29947895,-0.12141955,0.06252885,0.20969379,0.28477156,0.23765922,0.025745273,-0.28625166,-0.6129559,-0.85724413,-0.92643297,-0.8440169,-0.69978106,-0.5893997,-0.534949,-0.51876175,-0.5305399,-0.5467271,-0.55702525,-0.5585053,-0.5555761,-0.5482071,-0.53349984,-0.51876175,-0.5084636,-0.50405455,-0.49523634,-0.48345822,-0.46579105,-0.44519472,-0.42900747,-0.4201585,-0.41426945,-0.41426945,-0.41426945,-0.40986037,-0.3951531,-0.3715968,-0.34659147,-0.32599515,-0.31421703,-0.30095893,-0.28773165,-0.27447355,-0.2656554,-0.25680637,-0.2450282,-0.23180097,-0.21265382,-0.19942653,-0.18616843,-0.17146122,-0.15231407,-0.12582868,-0.0993433,-0.078746974,-0.055190682,-0.027225375,0.00073993206,0.03456354,0.068418026,0.09934318,0.12286866,0.13316679,0.13612676,0.13171768,0.1302377,0.13464677,0.13464677,0.12727773,0.11109054,0.0860852,0.049301624,-0.00073999166,-0.06989801,-0.15086484,-0.24357915,-0.33040428,-0.41134036,-0.48049825,-0.5379089,-0.58058155,-0.61884505,-0.65562856,-0.6894829,-0.72037745,-0.7395246,-0.7513027,-0.76012087,-0.771899,-0.7821971,-0.78367716,-0.7807172,-0.7777881,-0.771899,-0.77337897,-0.7777881,-0.77337897,-0.768939,-0.76308084,-0.7513027,-0.7380446,-0.7262665,-0.72037745,-0.7130392,-0.70715016,-0.69978106,-0.68800294,-0.68359387,-0.68359387,-0.68655384,-0.68359387,-0.6747757,-0.6644776,-0.6585885,-0.66003764,-0.6629976,-0.65710855,-0.64681035,-0.64092135,-0.6394413,-0.6350322,-0.6276632,-0.62177414,-0.6232541,-0.6262141,-0.6335523,-0.6335523,-0.6321031,-0.6321031,-0.6335523,-0.6365122,-0.6350322,-0.6394413,-0.6497395,-0.65710855,-0.65710855,-0.64829034,-0.6379614,-0.6365122,-0.6365122,-0.6335523,-0.6262141,-0.6232541,-0.61884505,-0.62177414,-0.6291432,-0.6350322,-0.64829034,-0.6526995,-0.64533037,-0.6262141,-0.6041378,-0.59676874,-0.6026578,-0.6158851,-0.62473404,-0.6262141,-0.6232541,-0.6232541,-0.61884505,-0.61002684,-0.5982487,-0.5908797,-0.59235966,-0.59235966,-0.5893997,-0.5820615,-0.5746925,-0.5732125,-0.57910156,-0.5908797,-0.59676874,-0.5996979,-0.6011778,-0.5879506,-0.5614344,-0.5305399,-0.50112545,-0.48345822,-0.46727103,-0.4466439,-0.4216385,-0.3951531,-0.37455684,-0.3715968,-0.3715968,-0.3671878,-0.34952056,-0.3289243,-0.31273705,-0.32155526,-0.3715968,-0.4569729,-0.5467271,-0.6144359,-0.64681035,-0.64533037,-0.6350322,-0.6276632,-0.6306231,-0.6350322,-0.6335523,-0.6379614,-0.6394413,-0.64092135,-0.64385045,-0.64092135,-0.62032497,-0.59528875,-0.549687,-0.4466439,-0.26121545,0.013967276,0.31566608,0.5584743,0.685043,0.6497394,0.4069004,0.036043525,-0.3657078,-0.6821139,-0.81164247,-0.771899,-0.6526995,-0.5511362,-0.4981655,-0.4878673,-0.4966855,-0.5114236,-0.51583266,-0.50698364,-0.49523634,-0.48345822,-0.48345822,-0.48638737,-0.47904915,-0.46431106,-0.45108378,-0.44078565,-0.4334166,-0.42459846,-0.41134036,-0.3966331,-0.381895,-0.37600595,-0.3657078,-0.35100055,-0.33922243,-0.3289243,-0.32451516,-0.31714612,-0.3039189,-0.29066074,-0.27888262,-0.2700644,-0.25976628,-0.2450282,-0.228841,-0.21265382,-0.19646657,-0.17439032,-0.14790493,-0.12141955,-0.10082322,-0.08022696,-0.056670666,-0.027225375,-0.00073999166,0.015447259,0.030154347,0.04782164,0.074306965,0.10964143,0.13760674,0.15524304,0.16998112,0.18027937,0.18172848,0.17587018,0.16554129,0.15379393,0.13905585,0.112570524,0.06693804,0.005149007,-0.06403977,-0.13908678,-0.22002286,-0.2965498,-0.3671878,-0.42752755,-0.48049825,-0.5290599,-0.58058155,-0.6276632,-0.65710855,-0.6777048,-0.695372,-0.7144884,-0.7306756,-0.7380446,-0.7351155,-0.7262665,-0.72333735,-0.7292264,-0.73656464,-0.7395246,-0.7395246,-0.73656464,-0.7306756,-0.7218574,-0.7041902,-0.68655384,-0.6762248,-0.67036664,-0.6674067,-0.6674067,-0.6674067,-0.6644776,-0.6541486,-0.6350322,-0.6158851,-0.6041378,-0.6041378,-0.60706687,-0.6055869,-0.5996979,-0.59528875,-0.59676874,-0.6011778,-0.59528875,-0.58058155,-0.5643943,-0.5599852,-0.5629144,-0.56587434,-0.5643943,-0.5629144,-0.5643943,-0.5732125,-0.5820615,-0.58351064,-0.57910156,-0.5776216,-0.5776216,-0.5761725,-0.57176334,-0.57176334,-0.5761725,-0.58351064,-0.5893997,-0.5849906,-0.5746925,-0.56587434,-0.55702525,-0.5511362,-0.5482071,-0.5511362,-0.5614344,-0.57176334,-0.58351064,-0.5849906,-0.58351064,-0.5776216,-0.56732345,-0.5585053,-0.5511362,-0.549687,-0.5526161,-0.5555761,-0.5526161,-0.54524714,-0.549687,-0.55409616,-0.5599852,-0.5614344,-0.5511362,-0.542318,-0.5393889,-0.54083806,-0.542318,-0.5379089,-0.5290599,-0.5290599,-0.534949,-0.5379089,-0.54524714,-0.543798,-0.543798,-0.53201985,-0.5099436,-0.48934728,-0.46872014,-0.45549285,-0.44519472,-0.4201585,-0.38633496,-0.35392964,-0.33333337,-0.3201061,-0.31421703,-0.31714612,-0.31862617,-0.31714612,-0.30095893,-0.27154446,-0.26121545,-0.28773165,-0.3583696,-0.45549285,-0.5393889,-0.59528875,-0.62177414,-0.6276632,-0.62177414,-0.6055869,-0.5908797,-0.5864706,-0.5996979,-0.62032497,-0.6262141,-0.62177414,-0.62032497,-0.61147594,-0.59676874,-0.56587434,-0.48197824,-0.31714612,-0.05226159,0.28918064,0.6188141,0.8483952,0.91317475,0.7380446,0.35392964,-0.10671234,-0.5217217,-0.7660099,-0.7910154,-0.67181575,-0.53349984,-0.44960386,-0.42311847,-0.4304567,-0.44960386,-0.46579105,-0.4731601,-0.47020012,-0.46579105,-0.45253295,-0.4363457,-0.4216385,-0.41426945,-0.41574943,-0.41574943,-0.40545124,-0.38926405,-0.37455684,-0.3642586,-0.36129868,-0.35248053,-0.33629334,-0.32155526,-0.31273705,-0.3039189,-0.29506987,-0.27447355,-0.25239724,-0.2391392,-0.23328102,-0.2273919,-0.21854287,-0.20972472,-0.20972472,-0.2067647,-0.19353747,-0.16998118,-0.1376068,-0.10964143,-0.09052515,-0.07433784,-0.049301744,-0.013998151,0.024265409,0.059599757,0.0860852,0.10227227,0.11405051,0.13171768,0.15965211,0.19350648,0.22884095,0.25091732,0.2553264,0.2538464,0.24650812,0.24061906,0.22588098,0.19498646,0.14935398,0.10079229,0.043412566,-0.01988715,-0.0993433,-0.1891284,-0.2803626,-0.3583696,-0.42900747,-0.49523634,-0.5599852,-0.6144359,-0.6541486,-0.6806648,-0.69685197,-0.7086301,-0.7218574,-0.7306756,-0.7395246,-0.74689364,-0.7527518,-0.7513027,-0.74541366,-0.74541366,-0.74982274,-0.7542318,-0.74689364,-0.7351155,-0.7174483,-0.7056702,-0.70126104,-0.69685197,-0.69830114,-0.70126104,-0.702741,-0.69978106,-0.6791848,-0.6497395,-0.6321031,-0.6232541,-0.62032497,-0.617365,-0.60706687,-0.5996979,-0.59676874,-0.6026578,-0.61002684,-0.61147594,-0.61147594,-0.61002684,-0.6026578,-0.5982487,-0.5982487,-0.60706687,-0.617365,-0.62177414,-0.61147594,-0.59676874,-0.59676874,-0.61002684,-0.6306231,-0.6424013,-0.6379614,-0.62473404,-0.6144359,-0.60706687,-0.5982487,-0.59528875,-0.59676874,-0.60706687,-0.62473404,-0.6365122,-0.64385045,-0.64829034,-0.6541486,-0.6541486,-0.6526995,-0.64385045,-0.64092135,-0.64681035,-0.64681035,-0.6424013,-0.6262141,-0.60706687,-0.5982487,-0.5982487,-0.6026578,-0.60706687,-0.61147594,-0.6129559,-0.6129559,-0.61147594,-0.6011778,-0.59235966,-0.5893997,-0.5879506,-0.5879506,-0.5849906,-0.57910156,-0.5732125,-0.5732125,-0.5732125,-0.57028335,-0.5688034,-0.56732345,-0.5643943,-0.5511362,-0.5364289,-0.51731265,-0.50257456,-0.49227643,-0.4746092,-0.45253295,-0.4216385,-0.3966331,-0.37455684,-0.3568896,-0.3436315,-0.3407024,-0.33629334,-0.32303518,-0.29947895,-0.2803626,-0.29066074,-0.3436315,-0.4348966,-0.5305399,-0.6026578,-0.64533037,-0.65710855,-0.6541486,-0.64533037,-0.6350322,-0.6262141,-0.62177414,-0.61884505,-0.61884505,-0.6262141,-0.6365122,-0.64829034,-0.6321031,-0.59235966,-0.5364289,-0.45108378,-0.32155526,-0.117010534,0.13760674,0.38630402,0.56291425,0.60706687,0.45401275,0.11993945,-0.2965498,-0.6762248,-0.88816947,-0.8822804,-0.7395246,-0.58351064,-0.49375635,-0.4746092,-0.49079645,-0.5099436,-0.51583266,-0.5128727,-0.50698364,-0.50698364,-0.5055345,-0.48934728,-0.4716801,-0.45108378,-0.43193662,-0.4216385,-0.41870934,-0.42459846,-0.4363457,-0.42752755,-0.40104216,-0.36277866,-0.33040428,-0.32599515,-0.33629334,-0.33629334,-0.32599515,-0.3083279,-0.30095893,-0.29947895,-0.29506987,-0.28329176,-0.2656554,-0.24946815,-0.2420991,-0.23032099,-0.20824474,-0.1891284,-0.17439032,-0.1626122,-0.14497584,-0.117010534,-0.078746974,-0.043412626,-0.013998151,0.016927123,0.046341658,0.07282698,0.08901429,0.0978632,0.106681466,0.1169796,0.12727773,0.13464677,0.13905585,0.14201581,0.1449449,0.13905585,0.121388674,0.09638333,0.06107974,0.015447259,-0.04489261,-0.12289959,-0.21120465,-0.28918076,-0.3583696,-0.4201585,-0.48049825,-0.543798,-0.5996979,-0.6497395,-0.6894829,-0.7277465,-0.7557118,-0.77041906,-0.77337897,-0.771899,-0.77041906,-0.768939,-0.7674899,-0.7660099,-0.77482814,-0.7895662,-0.79838437,-0.7969044,-0.78660625,-0.7777881,-0.7777881,-0.7807172,-0.779268,-0.771899,-0.76453,-0.7586409,-0.7527518,-0.74541366,-0.7292264,-0.7189283,-0.71007925,-0.7056702,-0.69830114,-0.6924121,-0.6894829,-0.6909629,-0.695372,-0.70126104,-0.702741,-0.69978106,-0.69830114,-0.6909629,-0.68655384,-0.68800294,-0.69830114,-0.7130392,-0.72481734,-0.7277465,-0.72333735,-0.7174483,-0.71007925,-0.7041902,-0.7041902,-0.7086301,-0.72037745,-0.7292264,-0.7306756,-0.72333735,-0.7130392,-0.7144884,-0.7262665,-0.7380446,-0.7439337,-0.7380446,-0.7277465,-0.7277465,-0.7351155,-0.7410045,-0.7380446,-0.7306756,-0.72481734,-0.7174483,-0.7130392,-0.71007925,-0.71155924,-0.7174483,-0.7262665,-0.7277465,-0.7189283,-0.71155924,-0.69978106,-0.68800294,-0.6777048,-0.6629976,-0.64385045,-0.62473404,-0.5996979,-0.56732345,-0.5379089,-0.5128727,-0.49375635,-0.4849074,-0.48197824,-0.47608918,-0.4628619,-0.4437148,-0.4304567,-0.4334166,-0.4716801,-0.5482071,-0.6379614,-0.7144884,-0.76012087,-0.771899,-0.7674899,-0.76308084,-0.7586409,-0.7527518,-0.7380446,-0.7292264,-0.7306756,-0.73656464,-0.7395246,-0.7351155,-0.7218574,-0.695372,-0.65710855,-0.60854685,-0.5276108,-0.40545124,-0.22591186,-0.033114433,0.14053583,0.2538464,0.25680637,0.0978632,-0.19353747,-0.5393889,-0.83664787,-0.9735146,-0.9337712,-0.7910154,-0.6497395,-0.5614344,-0.534949,-0.5482071,-0.5746925,-0.5849906,-0.5746925,-0.5585053,-0.5467271,-0.54524714,-0.54083806,-0.5290599,-0.5128727,-0.50112545,-0.4966855,-0.48934728,-0.47608918,-0.4613819,-0.4437148,-0.42752755,-0.4172294,-0.4039713,-0.39219314,-0.38337493,-0.3701169,-0.35248053,-0.33333337,-0.31862617,-0.31125712,-0.30095893,-0.28773165,-0.2685845,-0.2450282,-0.22443193,-0.20531559,-0.18616843,-0.16998118,-0.15820307,-0.14201587,-0.117010534,-0.086116076,-0.049301744,-0.018407226,0.0021891594,0.021336317,0.041932583,0.068418026,0.090494275,0.10816145,0.12434864,0.14053583,0.15379393,0.16113222,0.16554129,0.16409206,0.15965211,0.15231395,0.13171768,0.09638333,0.04782164,-0.013998151,-0.08756518,-0.16850126,-0.25535727,-0.3377425,-0.4083804,-0.46872014,-0.52024174,-0.56732345,-0.61002684,-0.6541486,-0.69830114,-0.7380446,-0.77041906,-0.78808624,-0.7939753,-0.7924953,-0.78808624,-0.78367716,-0.77630806,-0.771899,-0.77337897,-0.78660625,-0.8042735,-0.81164247,-0.8072026,-0.7939753,-0.77630806,-0.76308084,-0.74689364,-0.7262665,-0.71007925,-0.702741,-0.70715016,-0.7130392,-0.71155924,-0.69978106,-0.6894829,-0.68800294,-0.68507385,-0.6791848,-0.6629976,-0.6497395,-0.6424013,-0.6379614,-0.6321031,-0.6276632,-0.6262141,-0.6291432,-0.6291432,-0.62032497,-0.60854685,-0.6011778,-0.61147594,-0.6262141,-0.6350322,-0.6335523,-0.6276632,-0.6232541,-0.61884505,-0.61147594,-0.6041378,-0.6026578,-0.61002684,-0.61884505,-0.62473404,-0.6232541,-0.617365,-0.617365,-0.61884505,-0.6158851,-0.617365,-0.6232541,-0.6335523,-0.64829034,-0.6512195,-0.64385045,-0.6276632,-0.6129559,-0.6026578,-0.5996979,-0.6055869,-0.6129559,-0.6129559,-0.60706687,-0.5893997,-0.56732345,-0.549687,-0.5379089,-0.5276108,-0.5084636,-0.48049825,-0.4481238,-0.4216385,-0.39808226,-0.38926405,-0.39219314,-0.40104216,-0.40252215,-0.38485497,-0.35392964,-0.33629334,-0.3568896,-0.42459846,-0.5128727,-0.59676874,-0.6512195,-0.6674067,-0.6659267,-0.6526995,-0.64092135,-0.6394413,-0.64681035,-0.65710855,-0.6585885,-0.6512195,-0.6424013,-0.6335523,-0.62473404,-0.5982487,-0.5585053,-0.5055345,-0.41870934,-0.27595353,-0.03900349,0.25680637,0.5231708,0.68652296,0.68945205,0.48194742,0.12875772,-0.27299362,-0.61147594,-0.78367716,-0.7674899,-0.6394413,-0.5114236,-0.43930566,-0.4216385,-0.43193662,-0.4481238,-0.4569729,-0.45401293,-0.4569729,-0.4613819,-0.4628619,-0.45549285,-0.4466439,-0.4334166,-0.41870934,-0.40693122,-0.3951531,-0.38044584,-0.3701169,-0.36277866,-0.34952056,-0.3377425,-0.3348133,-0.3348133,-0.3289243,-0.31566614,-0.29506987,-0.27595353,-0.2656554,-0.25976628,-0.24798816,-0.228841,-0.2141338,-0.2038356,-0.19794661,-0.1891284,-0.16998118,-0.14497584,-0.12141955,-0.10230321,-0.08315605,-0.06403977,-0.043412626,-0.016927242,0.012487292,0.046341658,0.07871604,0.0978632,0.112570524,0.12434864,0.13464677,0.15379393,0.16850114,0.17731929,0.18761754,0.19646657,0.20235562,0.19791555,0.18027937,0.15083396,0.103752375,0.037523508,-0.047852516,-0.13908678,-0.22591186,-0.29802978,-0.3568896,-0.41870934,-0.47756916,-0.5290599,-0.56732345,-0.59383965,-0.6129559,-0.6350322,-0.65710855,-0.67181575,-0.6777048,-0.6791848,-0.6791848,-0.6821139,-0.68800294,-0.6909629,-0.6909629,-0.68507385,-0.6806648,-0.6747757,-0.67329574,-0.6791848,-0.6806648,-0.6747757,-0.6629976,-0.64829034,-0.6394413,-0.64092135,-0.64533037,-0.6365122,-0.61884505,-0.6011778,-0.59383965,-0.59676874,-0.6026578,-0.6026578,-0.59235966,-0.5820615,-0.5732125,-0.5629144,-0.5555761,-0.549687,-0.549687,-0.549687,-0.549687,-0.5467271,-0.5393889,-0.53201985,-0.5261308,-0.51876175,-0.51583266,-0.5231708,-0.5393889,-0.5599852,-0.5732125,-0.57910156,-0.5761725,-0.5732125,-0.5761725,-0.57910156,-0.58058155,-0.5761725,-0.5732125,-0.56732345,-0.55702525,-0.5511362,-0.543798,-0.54524714,-0.5526161,-0.5585053,-0.5614344,-0.5643943,-0.56732345,-0.5688034,-0.56587434,-0.5511362,-0.534949,-0.5261308,-0.5261308,-0.5393889,-0.549687,-0.5599852,-0.5643943,-0.55702525,-0.5467271,-0.53349984,-0.5246509,-0.52024174,-0.51876175,-0.5114236,-0.5055345,-0.49964547,-0.48934728,-0.47608918,-0.45401293,-0.42459846,-0.39808226,-0.37455684,-0.35100055,-0.3289243,-0.31714612,-0.32599515,-0.3377425,-0.3348133,-0.31273705,-0.28477174,-0.28625166,-0.3377425,-0.42459846,-0.51731265,-0.5849906,-0.62473404,-0.6394413,-0.6379614,-0.62473404,-0.60706687,-0.59383965,-0.59235966,-0.5982487,-0.6026578,-0.6026578,-0.6055869,-0.6158851,-0.6158851,-0.5996979,-0.56732345,-0.49964547,-0.36129868,-0.11849046,0.22736096,0.58203053,0.84250605,0.9411094,0.8175007,0.47164917,0.028674483,-0.40252215,-0.6924121,-0.7660099,-0.6791848,-0.5526161,-0.46872014,-0.44519472,-0.4569729,-0.47608918,-0.48934728,-0.48934728,-0.48345822,-0.4746092,-0.46431106,-0.45401293,-0.4437148,-0.4363457,-0.4334166,-0.4304567,-0.42900747,-0.42604756,-0.41574943,-0.40104216,-0.3789659,-0.35392964,-0.33922243,-0.3318842,-0.3289243,-0.32451516,-0.31566614,-0.305368,-0.2936207,-0.27888262,-0.26121545,-0.24650824,-0.23328102,-0.22443193,-0.21709377,-0.2038356,-0.18764848,-0.17146122,-0.15527397,-0.1302377,-0.0993433,-0.06696886,-0.037523508,-0.016927242,0.0021891594,0.027225256,0.055190682,0.0860852,0.11993945,0.14935398,0.18320847,0.21558297,0.23177004,0.23473012,0.23473012,0.23032093,0.23325014,0.23473012,0.22295189,0.19939566,0.16554129,0.112570524,0.041932583,-0.041963518,-0.1302377,-0.21561372,-0.29802978,-0.37748593,-0.45401293,-0.51876175,-0.57028335,-0.60854685,-0.64829034,-0.6821139,-0.71007925,-0.7218574,-0.7277465,-0.7351155,-0.7439337,-0.74834275,-0.74834275,-0.7410045,-0.73656464,-0.7410045,-0.74541366,-0.74541366,-0.7380446,-0.7292264,-0.7159683,-0.7041902,-0.6909629,-0.6806648,-0.6762248,-0.6791848,-0.6777048,-0.66888666,-0.65562856,-0.6497395,-0.6497395,-0.6497395,-0.6497395,-0.6424013,-0.6350322,-0.6306231,-0.6306231,-0.6291432,-0.6291432,-0.6335523,-0.6365122,-0.6335523,-0.62473404,-0.6129559,-0.60854685,-0.6129559,-0.62032497,-0.6232541,-0.62177414,-0.617365,-0.6158851,-0.617365,-0.62177414,-0.6291432,-0.64092135,-0.64681035,-0.64681035,-0.6365122,-0.6262141,-0.62473404,-0.6276632,-0.6306231,-0.6276632,-0.617365,-0.6055869,-0.5982487,-0.59528875,-0.59528875,-0.59383965,-0.59528875,-0.6011778,-0.6026578,-0.6026578,-0.5982487,-0.59676874,-0.59383965,-0.59676874,-0.5982487,-0.5982487,-0.5996979,-0.6055869,-0.61002684,-0.60706687,-0.5996979,-0.59383965,-0.59528875,-0.59528875,-0.5908797,-0.58351064,-0.57910156,-0.58058155,-0.5864706,-0.5864706,-0.57910156,-0.5732125,-0.56732345,-0.5585053,-0.543798,-0.5261308,-0.51583266,-0.50405455,-0.49079645,-0.4716801,-0.44223475,-0.4172294,-0.39808226,-0.3789659,-0.3583696,-0.34659147,-0.3436315,-0.33922243,-0.32451516,-0.3039189,-0.29214078,-0.31714612,-0.38485497,-0.48197824,-0.5732125,-0.6394413,-0.6791848,-0.6894829,-0.6821139,-0.67181575,-0.6629976,-0.6659267,-0.67181575,-0.6747757,-0.66888666,-0.6585885,-0.6541486,-0.66003764,-0.65562856,-0.6350322,-0.5982487,-0.5099436,-0.34511143,-0.08022696,0.24943721,0.5584743,0.76157,0.7939445,0.5849906,0.20087564,-0.24650824,-0.6350322,-0.83664787,-0.8307588,-0.702741,-0.56732345,-0.48934728,-0.46727103,-0.4849074,-0.5143527,-0.5290599,-0.5261308,-0.5143527,-0.50257456,-0.49227643,-0.4849074,-0.48049825,-0.4731601,-0.46431106,-0.45549285,-0.45253295,-0.44519472,-0.4348966,-0.4201585,-0.40104216,-0.38485497,-0.37600595,-0.3715968,-0.3657078,-0.3568896,-0.35100055,-0.34659147,-0.3436315,-0.33333337,-0.30980796,-0.28625166,-0.2656554,-0.25387728,-0.2420991,-0.23180097,-0.21854287,-0.20824474,-0.20235562,-0.1891284,-0.16116309,-0.13171768,-0.103752375,-0.086116076,-0.06989801,-0.049301744,-0.02281636,0.00073993206,0.016927123,0.030154347,0.050750732,0.074306965,0.09490323,0.11109054,0.12286866,0.13171768,0.13905585,0.12582862,0.09197414,0.049301624,0.008078098,-0.027225375,-0.0684489,-0.12582868,-0.20235562,-0.28773165,-0.37600595,-0.458422,-0.534949,-0.5893997,-0.6291432,-0.6629976,-0.695372,-0.7306756,-0.7586409,-0.768939,-0.77482814,-0.7851571,-0.79986435,-0.81164247,-0.81309164,-0.8042735,-0.79986435,-0.8072026,-0.8145716,-0.81605154,-0.8101625,-0.80279344,-0.79986435,-0.80279344,-0.7969044,-0.7821971,-0.76308084,-0.74834275,-0.7380446,-0.7351155,-0.7395246,-0.7439337,-0.7424537,-0.7395246,-0.73215556,-0.72037745,-0.7144884,-0.7218574,-0.72481734,-0.7218574,-0.7189283,-0.71155924,-0.702741,-0.695372,-0.6894829,-0.6806648,-0.6791848,-0.68359387,-0.68800294,-0.6821139,-0.6777048,-0.6747757,-0.68359387,-0.6924121,-0.69830114,-0.695372,-0.6924121,-0.69685197,-0.7041902,-0.7144884,-0.7159683,-0.7086301,-0.7041902,-0.70126104,-0.69978106,-0.70126104,-0.69830114,-0.695372,-0.6924121,-0.68655384,-0.68359387,-0.6791848,-0.67181575,-0.6659267,-0.6644776,-0.6659267,-0.6762248,-0.68359387,-0.68507385,-0.6791848,-0.6747757,-0.6806648,-0.68655384,-0.68655384,-0.6777048,-0.6629976,-0.6541486,-0.6526995,-0.6541486,-0.6526995,-0.64829034,-0.65710855,-0.66888666,-0.6821139,-0.6806648,-0.66888666,-0.65562856,-0.6512195,-0.6497395,-0.6497395,-0.6365122,-0.6232541,-0.61147594,-0.59676874,-0.5761725,-0.55702525,-0.5364289,-0.51876175,-0.50257456,-0.48197824,-0.458422,-0.44519472,-0.44519472,-0.4481238,-0.43782568,-0.40693122,-0.37455684,-0.36866772,-0.40252215,-0.48049825,-0.5776216,-0.6585885,-0.702741,-0.7130392,-0.69685197,-0.6747757,-0.66888666,-0.6806648,-0.69389206,-0.70715016,-0.71155924,-0.702741,-0.69389206,-0.6909629,-0.6821139,-0.66003764,-0.6365122,-0.59235966,-0.51583266,-0.38633496,-0.2008757,-0.011038125,0.14935398,0.25091732,0.24206829,0.06693804,-0.23328102,-0.5864706,-0.8719823,-0.97203463,-0.89846766,-0.7424537,-0.61147594,-0.54083806,-0.52024174,-0.53349984,-0.55702525,-0.5746925,-0.5761725,-0.5555761,-0.5276108,-0.50698364,-0.5055345,-0.5114236,-0.5143527,-0.5084636,-0.49227643,-0.4731601,-0.458422,-0.44519472,-0.43193662,-0.42459846,-0.42604756,-0.4201585,-0.40545124,-0.38337493,-0.3642586,-0.35248053,-0.34511143,-0.34218234,-0.33333337,-0.33040428,-0.3348133,-0.3348133,-0.32155526,-0.29947895,-0.2700644,-0.2420991,-0.22443193,-0.20531559,-0.18616843,-0.16705209,-0.14938492,-0.12878859,-0.10671234,-0.07726699,-0.049301744,-0.027225375,-0.00662905,0.009558082,0.030154347,0.046341658,0.05663979,0.068418026,0.074306965,0.0846051,0.09638333,0.09934318,0.0978632,0.0846051,0.06107974,0.022816181,-0.033114433,-0.09641421,-0.17294115,-0.25387728,-0.3377425,-0.4201585,-0.49375635,-0.5555761,-0.60706687,-0.64533037,-0.6821139,-0.7174483,-0.74834275,-0.779268,-0.8072026,-0.8189807,-0.8189807,-0.8072026,-0.79838437,-0.80134434,-0.8204607,-0.8337188,-0.8337188,-0.82194066,-0.8042735,-0.7954552,-0.79986435,-0.8086825,-0.81164247,-0.8086825,-0.79838437,-0.7821971,-0.7674899,-0.7586409,-0.7586409,-0.76160085,-0.76012087,-0.7527518,-0.7410045,-0.7262665,-0.7189283,-0.7159683,-0.7086301,-0.69978106,-0.68655384,-0.67329574,-0.6659267,-0.6585885,-0.65562856,-0.6585885,-0.6644776,-0.66888666,-0.67329574,-0.67329574,-0.6791848,-0.68655384,-0.68655384,-0.6791848,-0.6644776,-0.65710855,-0.6541486,-0.65710855,-0.6541486,-0.64829034,-0.64829034,-0.6512195,-0.65562856,-0.65562856,-0.64681035,-0.6424013,-0.64385045,-0.64533037,-0.64533037,-0.64533037,-0.6526995,-0.6526995,-0.64681035,-0.6335523,-0.6144359,-0.6026578,-0.6055869,-0.6129559,-0.617365,-0.61884505,-0.62032497,-0.6232541,-0.61884505,-0.61002684,-0.5982487,-0.59528875,-0.59676874,-0.6026578,-0.6026578,-0.5996979,-0.6041378,-0.6129559,-0.6232541,-0.61884505,-0.60706687,-0.6011778,-0.6055869,-0.61147594,-0.6129559,-0.5996979,-0.5879506,-0.5879506,-0.59235966,-0.5996979,-0.59528875,-0.57910156,-0.5585053,-0.53349984,-0.5128727,-0.4966855,-0.49079645,-0.4878673,-0.4731601,-0.45549285,-0.4334166,-0.41426945,-0.39808226,-0.38633496,-0.3715968,-0.35540968,-0.3407024,-0.3318842,-0.33040428,-0.34511143,-0.38926405,-0.4628619,-0.542318,-0.6041378,-0.6365122,-0.6350322,-0.62177414,-0.61147594,-0.6129559,-0.61884505,-0.6276632,-0.6379614,-0.64681035,-0.64533037,-0.64092135,-0.6321031,-0.61147594,-0.5849906,-0.5379089,-0.43930566,-0.27154446,-0.02281636,0.25825548,0.5010946,0.64089036,0.6320722,0.41278934,0.052230716,-0.3407024,-0.65562856,-0.7969044,-0.76453,-0.64385045,-0.53201985,-0.4716801,-0.45108378,-0.45549285,-0.4731601,-0.48345822,-0.48638737,-0.47904915,-0.4716801,-0.4628619,-0.44960386,-0.43782568,-0.43782568,-0.44223475,-0.4481238,-0.43930566,-0.41574943,-0.39219314,-0.3789659,-0.38044584,-0.3789659,-0.36866772,-0.35100055,-0.33629334,-0.32599515,-0.31421703,-0.29947895,-0.28184265,-0.26417542,-0.26121545,-0.25828636,-0.25535727,-0.25387728,-0.24798816,-0.23621011,-0.21120465,-0.17294115,-0.1405667,-0.1126014,-0.10082322,-0.08756518,-0.0610798,-0.024296284,0.009558082,0.033114433,0.052230716,0.07137787,0.09490323,0.11553049,0.12727773,0.13905585,0.15083396,0.16998112,0.18027937,0.18616843,0.18616843,0.18027937,0.16998112,0.1449449,0.10227227,0.050750732,-0.011038125,-0.081676066,-0.15675396,-0.23621011,-0.31125712,-0.37748593,-0.4437148,-0.50405455,-0.5614344,-0.60706687,-0.6321031,-0.64092135,-0.64385045,-0.6541486,-0.67036664,-0.68655384,-0.69830114,-0.70126104,-0.695372,-0.68655384,-0.6894829,-0.69685197,-0.7056702,-0.71155924,-0.702741,-0.68507385,-0.67036664,-0.6629976,-0.6659267,-0.6659267,-0.65710855,-0.64385045,-0.6335523,-0.6276632,-0.6262141,-0.62473404,-0.62032497,-0.61884505,-0.617365,-0.6129559,-0.6026578,-0.5849906,-0.5732125,-0.57028335,-0.5746925,-0.58058155,-0.5820615,-0.5849906,-0.5879506,-0.5908797,-0.59235966,-0.5893997,-0.5879506,-0.5908797,-0.5908797,-0.5879506,-0.5849906,-0.59383965,-0.61002684,-0.62473404,-0.6306231,-0.62473404,-0.617365,-0.6129559,-0.6129559,-0.6158851,-0.61884505,-0.6276632,-0.6350322,-0.6394413,-0.6365122,-0.6321031,-0.6335523,-0.6394413,-0.6365122,-0.6306231,-0.62032497,-0.617365,-0.62473404,-0.6306231,-0.6321031,-0.6262141,-0.62177414,-0.617365,-0.617365,-0.6158851,-0.617365,-0.617365,-0.62473404,-0.6291432,-0.6276632,-0.62032497,-0.6144359,-0.6158851,-0.6129559,-0.60706687,-0.59676874,-0.5879506,-0.58351064,-0.5849906,-0.58351064,-0.5776216,-0.57176334,-0.57028335,-0.57176334,-0.5732125,-0.57028335,-0.56732345,-0.5629144,-0.55702525,-0.5526161,-0.543798,-0.54083806,-0.5364289,-0.53201985,-0.5261308,-0.5246509,-0.5290599,-0.542318,-0.5526161,-0.5526161,-0.5467271,-0.543798,-0.542318,-0.5364289,-0.5246509,-0.50698364,-0.49375635,-0.48345822,-0.47020012,-0.4466439,-0.41574943,-0.38778406,-0.37600595,-0.36866772,-0.35392964,-0.34218234,-0.33629334,-0.32744426,-0.3083279,-0.28184265,-0.26121545,-0.27888262,-0.34807146,-0.44519472,-0.53201985,-0.5849906,-0.6041378,-0.6026578,-0.59528875,-0.5864706,-0.5849906,-0.5908797,-0.5996979,-0.60854685,-0.6129559,-0.61002684,-0.60854685,-0.6011778,-0.5761725,-0.534949,-0.459902,-0.32599515,-0.09052515,0.23177004,0.56143427,0.8013134,0.88813865,0.73656464,0.37304592,-0.07137799,-0.48345822,-0.74541366,-0.7910154,-0.6894829,-0.55702525,-0.4731601,-0.44519472,-0.458422,-0.47608918,-0.48197824,-0.4731601,-0.459902,-0.45108378,-0.4437148,-0.4348966,-0.4304567,-0.42604756,-0.42900747,-0.42604756,-0.41282028,-0.39808226,-0.38778406,-0.381895,-0.37600595,-0.36129868,-0.34511143,-0.3348133,-0.33040428,-0.32451516,-0.3083279,-0.28918076,-0.2700644,-0.2671045,-0.2700644,-0.2685845,-0.26417542,-0.25387728,-0.24357915,-0.23032099,-0.21709377,-0.19646657,-0.17883027,-0.1626122,-0.1405667,-0.11405051,-0.08022696,-0.055190682,-0.03163445,-0.005149126,0.027225256,0.055190682,0.08167601,0.09934318,0.112570524,0.13316679,0.15820312,0.1743902,0.18027937,0.18468845,0.18909752,0.19350648,0.19057739,0.17731929,0.14935398,0.10816145,0.058119774,-0.008109033,-0.086116076,-0.16705209,-0.24650824,-0.31862617,-0.38778406,-0.45549285,-0.51583266,-0.56732345,-0.61147594,-0.6541486,-0.69389206,-0.72481734,-0.7439337,-0.74982274,-0.7542318,-0.76160085,-0.77041906,-0.77041906,-0.7674899,-0.76308084,-0.76453,-0.76308084,-0.7586409,-0.74834275,-0.7395246,-0.7395246,-0.74689364,-0.74541366,-0.7410045,-0.7262665,-0.7159683,-0.7086301,-0.702741,-0.69978106,-0.6924121,-0.68655384,-0.6791848,-0.6644776,-0.64829034,-0.6321031,-0.62177414,-0.6144359,-0.6144359,-0.6158851,-0.62032497,-0.62177414,-0.61884505,-0.6129559,-0.60854685,-0.62032497,-0.6350322,-0.64533037,-0.64533037,-0.6379614,-0.6276632,-0.6291432,-0.6335523,-0.6350322,-0.6379614,-0.64092135,-0.64681035,-0.6424013,-0.6321031,-0.62177414,-0.6129559,-0.62177414,-0.6335523,-0.6424013,-0.64533037,-0.64385045,-0.64385045,-0.64533037,-0.64681035,-0.64533037,-0.6497395,-0.64829034,-0.64092135,-0.6321031,-0.6232541,-0.62032497,-0.62473404,-0.6232541,-0.617365,-0.6129559,-0.60854685,-0.61147594,-0.61002684,-0.6055869,-0.6011778,-0.5996979,-0.6055869,-0.61147594,-0.62177414,-0.6306231,-0.6306231,-0.6291432,-0.617365,-0.60706687,-0.6011778,-0.60706687,-0.6144359,-0.6158851,-0.60854685,-0.59676874,-0.5908797,-0.5893997,-0.5908797,-0.5893997,-0.5820615,-0.5776216,-0.5776216,-0.58058155,-0.5864706,-0.5893997,-0.5982487,-0.6011778,-0.59676874,-0.58058155,-0.5629144,-0.5585053,-0.56732345,-0.58351064,-0.59383965,-0.5893997,-0.57176334,-0.5526161,-0.53349984,-0.5217217,-0.51731265,-0.5143527,-0.5084636,-0.48049825,-0.4437148,-0.4083804,-0.38778406,-0.38633496,-0.39367318,-0.39956218,-0.39367318,-0.38044584,-0.36277866,-0.35100055,-0.35981876,-0.41282028,-0.50112545,-0.59528875,-0.6674067,-0.6909629,-0.68359387,-0.67036664,-0.6674067,-0.6762248,-0.6806648,-0.6747757,-0.6674067,-0.65710855,-0.6585885,-0.66003764,-0.64681035,-0.617365,-0.5732125,-0.4966855,-0.37455684,-0.19205749,0.016927123,0.20969379,0.3554095,0.40986025,0.30240798,0.027225256,-0.33922243,-0.68800294,-0.88961864,-0.88816947,-0.7542318,-0.60706687,-0.50257456,-0.4613819,-0.46872014,-0.49964547,-0.5276108,-0.53349984,-0.51583266,-0.49523634,-0.48638737,-0.49227643,-0.4966855,-0.49079645,-0.4746092,-0.4613819,-0.45549285,-0.4437148,-0.42604756,-0.39956218,-0.3789659,-0.37600595,-0.37748593,-0.381895,-0.37748593,-0.37455684,-0.3715968,-0.36866772,-0.35981876,-0.34952056,-0.33922243,-0.3318842,-0.31862617,-0.29947895,-0.27447355,-0.25535727,-0.24650824,-0.23621011,-0.22002286,-0.19794661,-0.17439032,-0.15675396,-0.1376068,-0.12141955,-0.1052323,-0.086116076,-0.06989801,-0.041963518,-0.012518108,0.013967276,0.036043525,0.046341658,0.059599757,0.074306965,0.090494275,0.09638333,0.09345412,0.090494275,0.09197414,0.08167601,0.059599757,0.012487292,-0.05371076,-0.12582868,-0.20824474,-0.29214078,-0.3701169,-0.43930566,-0.49964547,-0.54524714,-0.59528875,-0.6526995,-0.7056702,-0.74689364,-0.77337897,-0.7851571,-0.7939753,-0.79986435,-0.8072026,-0.8175316,-0.82338977,-0.8337188,-0.8351679,-0.8351679,-0.8337188,-0.83960783,-0.848426,-0.846946,-0.83812785,-0.8189807,-0.8072026,-0.8086825,-0.79986435,-0.779268,-0.7557118,-0.7410045,-0.7395246,-0.7380446,-0.73215556,-0.71155924,-0.69830114,-0.69978106,-0.70715016,-0.7159683,-0.7189283,-0.71155924,-0.7041902,-0.69389206,-0.68800294,-0.68655384,-0.6909629,-0.69389206,-0.695372,-0.6924121,-0.6909629,-0.695372,-0.69978106,-0.69830114,-0.6909629,-0.6894829,-0.6909629,-0.70126104,-0.7056702,-0.702741,-0.69830114,-0.69978106,-0.702741,-0.69978106,-0.6924121,-0.68507385,-0.68359387,-0.68507385,-0.6806648,-0.67036664,-0.6585885,-0.6541486,-0.65710855,-0.6629976,-0.6629976,-0.6615176,-0.6659267,-0.6747757,-0.68507385,-0.68800294,-0.68655384,-0.68800294,-0.68800294,-0.68655384,-0.6762248,-0.6644776,-0.65710855,-0.65710855,-0.6615176,-0.6615176,-0.66003764,-0.65562856,-0.6512195,-0.64533037,-0.6321031,-0.62177414,-0.62177414,-0.6232541,-0.6291432,-0.6335523,-0.6394413,-0.6512195,-0.66003764,-0.6585885,-0.6424013,-0.61884505,-0.59528875,-0.58058155,-0.56732345,-0.55409616,-0.542318,-0.5290599,-0.50698364,-0.47756916,-0.44078565,-0.41574943,-0.41134036,-0.41282028,-0.39956218,-0.3730768,-0.35392964,-0.36866772,-0.4334166,-0.5290599,-0.61884505,-0.6791848,-0.7056702,-0.7056702,-0.695372,-0.6909629,-0.69389206,-0.70126104,-0.702741,-0.695372,-0.68359387,-0.6777048,-0.6806648,-0.6747757,-0.64092135,-0.5908797,-0.51876175,-0.42311847,-0.27595353,-0.07285792,0.13760674,0.30536807,0.38041508,0.30977714,0.065488815,-0.2685845,-0.61147594,-0.84990597,-0.9058058,-0.81164247,-0.66888666,-0.5585053,-0.50112545,-0.48638737,-0.4981655,-0.5084636,-0.5143527,-0.5128727,-0.50698364,-0.4966855,-0.48197824,-0.47020012,-0.46431106,-0.459902,-0.44960386,-0.42900747,-0.4083804,-0.38926405,-0.38926405,-0.38485497,-0.36866772,-0.34659147,-0.32744426,-0.31714612,-0.3083279,-0.29947895,-0.28477174,-0.2700644,-0.2671045,-0.2671045,-0.26121545,-0.2450282,-0.23032099,-0.22002286,-0.21120465,-0.2008757,-0.18468845,-0.1655721,-0.14790493,-0.1302377,-0.103752375,-0.0684489,-0.034594417,-0.002219975,0.028674483,0.06107974,0.090494275,0.11405051,0.13316679,0.15083396,0.16998112,0.19350648,0.20824468,0.20969379,0.20824468,0.2067647,0.20380473,0.19205737,0.16998112,0.13464677,0.09197414,0.0404526,-0.021336317,-0.09345424,-0.16998118,-0.25091726,-0.32599515,-0.40104216,-0.4731601,-0.5290599,-0.5746925,-0.6129559,-0.64829034,-0.6821139,-0.7174483,-0.7395246,-0.7513027,-0.7586409,-0.7660099,-0.7660099,-0.76453,-0.76160085,-0.76308084,-0.7674899,-0.7674899,-0.76308084,-0.7527518,-0.7439337,-0.7439337,-0.7410045,-0.73363554,-0.7189283,-0.70126104,-0.695372,-0.6924121,-0.6894829,-0.68655384,-0.6806648,-0.66888666,-0.6526995,-0.6365122,-0.6276632,-0.6276632,-0.6365122,-0.6424013,-0.64092135,-0.6394413,-0.6379614,-0.6379614,-0.6379614,-0.6306231,-0.617365,-0.60706687,-0.6041378,-0.6144359,-0.6276632,-0.6394413,-0.64385045,-0.64385045,-0.6365122,-0.6306231,-0.6306231,-0.6365122,-0.6365122,-0.6306231,-0.62177414,-0.6158851,-0.6158851,-0.6291432,-0.6350322,-0.6321031,-0.62177414,-0.6129559,-0.60706687,-0.6055869,-0.60854685,-0.61002684,-0.6144359,-0.6144359,-0.61147594,-0.60706687,-0.5996979,-0.59528875,-0.59235966,-0.5864706,-0.58058155,-0.5776216,-0.58351064,-0.5864706,-0.5849906,-0.5761725,-0.56587434,-0.5629144,-0.56587434,-0.56732345,-0.5585053,-0.5467271,-0.5379089,-0.53349984,-0.5290599,-0.51731265,-0.49964547,-0.47904915,-0.46431106,-0.44519472,-0.4172294,-0.39219314,-0.3715968,-0.3568896,-0.3583696,-0.36277866,-0.35392964,-0.33629334,-0.30980796,-0.28625166,-0.28773165,-0.33040428,-0.41134036,-0.5055345,-0.58058155,-0.62032497,-0.6276632,-0.62177414,-0.617365,-0.6129559,-0.6129559,-0.60706687,-0.60706687,-0.6144359,-0.61884505,-0.62177414,-0.6262141,-0.6158851,-0.59235966,-0.542318,-0.4304567,-0.2420991,0.033114433,0.3421514,0.61147594,0.77630806,0.7836462,0.57025254,0.18761754,-0.24798816,-0.6158851,-0.7954552,-0.78367716,-0.6674067,-0.55702525,-0.49079645,-0.46431106,-0.46431106,-0.47608918,-0.49227643,-0.50405455,-0.5055345,-0.49227643,-0.48049825,-0.4613819,-0.4437148,-0.43193662,-0.42604756,-0.42311847,-0.4172294,-0.40986037,-0.4039713,-0.39808226,-0.3951531,-0.38926405,-0.3715968,-0.34807146,-0.33040428,-0.31566614,-0.3024389,-0.29506987,-0.28625166,-0.2803626,-0.27888262,-0.2700644,-0.25976628,-0.2420991,-0.2273919,-0.21120465,-0.19057757,-0.16998118,-0.15086484,-0.13171768,-0.10816145,-0.07726699,-0.046372533,-0.02281636,0.0021891594,0.024265409,0.055190682,0.09345412,0.12434864,0.14053583,0.15083396,0.16850114,0.19057739,0.21558297,0.22295189,0.20969379,0.19646657,0.19498646,0.19350648,0.17587018,0.13464677,0.06693804,-0.012518108,-0.08756518,-0.16409218,-0.24946815,-0.3348133,-0.41134036,-0.47904915,-0.534949,-0.5820615,-0.62177414,-0.65710855,-0.68507385,-0.7159683,-0.7424537,-0.7527518,-0.7557118,-0.7513027,-0.7439337,-0.7395246,-0.7351155,-0.7262665,-0.72037745,-0.72481734,-0.7351155,-0.74541366,-0.74689364,-0.7424537,-0.73363554,-0.72333735,-0.7086301,-0.6924121,-0.6762248,-0.6659267,-0.6629976,-0.6615176,-0.6526995,-0.64385045,-0.6365122,-0.6306231,-0.6306231,-0.6379614,-0.6394413,-0.64092135,-0.6350322,-0.61884505,-0.6026578,-0.5982487,-0.61002684,-0.62473404,-0.6321031,-0.6306231,-0.61002684,-0.59528875,-0.5879506,-0.5820615,-0.5849906,-0.5908797,-0.59383965,-0.6041378,-0.6144359,-0.61147594,-0.61002684,-0.60854685,-0.6129559,-0.617365,-0.62177414,-0.62473404,-0.6276632,-0.6262141,-0.62177414,-0.6129559,-0.6026578,-0.6011778,-0.60706687,-0.60706687,-0.5996979,-0.5908797,-0.5864706,-0.5996979,-0.617365,-0.6291432,-0.6321031,-0.6262141,-0.6129559,-0.6011778,-0.59528875,-0.59676874,-0.61002684,-0.617365,-0.6129559,-0.6026578,-0.5864706,-0.58351064,-0.5908797,-0.5908797,-0.5879506,-0.58058155,-0.5688034,-0.5585053,-0.543798,-0.5305399,-0.51583266,-0.50405455,-0.49079645,-0.47020012,-0.44078565,-0.40986037,-0.38337493,-0.3701169,-0.37455684,-0.381895,-0.37455684,-0.34807146,-0.31566614,-0.2965498,-0.31566614,-0.38337493,-0.48197824,-0.5746925,-0.6379614,-0.6629976,-0.66003764,-0.6497395,-0.64681035,-0.64681035,-0.64829034,-0.6424013,-0.64092135,-0.64681035,-0.65710855,-0.67036664,-0.6777048,-0.66003764,-0.6276632,-0.56732345,-0.4481238,-0.24061912,0.06107974,0.387784,0.6629667,0.8189807,0.77775717,0.49227643,0.05663979,-0.4039713,-0.7571918,-0.8808004,-0.8072026,-0.6585885,-0.534949,-0.47608918,-0.46579105,-0.48638737,-0.5114236,-0.5261308,-0.5231708,-0.5128727,-0.49523634,-0.48049825,-0.47020012,-0.458422,-0.458422,-0.46727103,-0.47608918,-0.4731601,-0.45253295,-0.4201585,-0.38926405,-0.37455684,-0.3657078,-0.3583696,-0.35100055,-0.33922243,-0.33333337,-0.32451516,-0.3083279,-0.2936207,-0.28329176,-0.27888262,-0.27888262,-0.27154446,-0.25976628,-0.24650824,-0.23328102,-0.21561372,-0.1950174,-0.16850126,-0.15086484,-0.13467771,-0.119939625,-0.097863376,-0.06403977,-0.030185282,0.00073993206,0.033114433,0.06400883,0.09490323,0.11845958,0.12582862,0.13612676,0.14642489,0.16113222,0.17731929,0.19350648,0.20380473,0.20235562,0.18320847,0.13905585,0.07871604,0.013967276,-0.041963518,-0.0993433,-0.16409218,-0.23621011,-0.31566614,-0.3951531,-0.4731601,-0.542318,-0.5982487,-0.6350322,-0.65710855,-0.6747757,-0.702741,-0.7351155,-0.76308084,-0.77630806,-0.77630806,-0.771899,-0.7674899,-0.76453,-0.768939,-0.771899,-0.77630806,-0.77482814,-0.76453,-0.7513027,-0.7424537,-0.7439337,-0.7513027,-0.74541366,-0.73215556,-0.7159683,-0.70715016,-0.70715016,-0.7086301,-0.70126104,-0.6909629,-0.68655384,-0.68800294,-0.68800294,-0.6806648,-0.67329574,-0.6674067,-0.66888666,-0.67181575,-0.66003764,-0.64385045,-0.6321031,-0.6321031,-0.64092135,-0.6512195,-0.6585885,-0.6615176,-0.66003764,-0.65562856,-0.6497395,-0.64533037,-0.64533037,-0.65562856,-0.6615176,-0.6629976,-0.6615176,-0.65710855,-0.6541486,-0.6541486,-0.6526995,-0.6541486,-0.65710855,-0.6585885,-0.6541486,-0.64533037,-0.6350322,-0.64092135,-0.6526995,-0.66003764,-0.66003764,-0.65562856,-0.65710855,-0.6585885,-0.65562856,-0.64681035,-0.6379614,-0.6335523,-0.6394413,-0.6424013,-0.6365122,-0.6262141,-0.62032497,-0.62032497,-0.6158851,-0.61002684,-0.59235966,-0.57176334,-0.5526161,-0.53349984,-0.5099436,-0.4849074,-0.459902,-0.44078565,-0.42459846,-0.4201585,-0.41574943,-0.40104216,-0.3789659,-0.35392964,-0.3436315,-0.37748593,-0.458422,-0.56587434,-0.65710855,-0.71007925,-0.7277465,-0.72481734,-0.72333735,-0.72481734,-0.7144884,-0.70126104,-0.6894829,-0.68655384,-0.6924121,-0.69830114,-0.69978106,-0.69389206,-0.6659267,-0.6232541,-0.5629144,-0.4716801,-0.33040428,-0.13467771,0.068418026,0.24795723,0.34952056,0.3289243,0.14201581,-0.16705209,-0.5217217,-0.8204607,-0.9470293,-0.8969876,-0.7513027,-0.60706687,-0.5217217,-0.49375635,-0.49964547,-0.5055345,-0.50405455,-0.49079645,-0.47904915,-0.4746092,-0.47020012,-0.46431106,-0.4569729,-0.45549285,-0.45401293,-0.4481238,-0.4334166,-0.41134036,-0.3966331,-0.39074397,-0.381895,-0.3715968,-0.36129868,-0.34807146,-0.34218234,-0.33333337,-0.32155526,-0.31125712,-0.306848,-0.305368,-0.29506987,-0.27740264,-0.26121545,-0.25387728,-0.25387728,-0.24798816,-0.23328102,-0.21265382,-0.19353747,-0.18175936,-0.1655721,-0.14349586,-0.11849046,-0.09052515,-0.0684489,-0.049301744,-0.01988715,0.008078098,0.03900349,0.06693804,0.0846051,0.09934318,0.10816145,0.11109054,0.1169796,0.1302377,0.13905585,0.14053583,0.12875772,0.09345412,0.046341658,-0.018407226,-0.0993433,-0.19205749,-0.28773165,-0.3715968,-0.44519472,-0.5143527,-0.56732345,-0.6144359,-0.64681035,-0.67329574,-0.70126104,-0.73656464,-0.76160085,-0.77482814,-0.77630806,-0.7777881,-0.78660625,-0.7969044,-0.80279344,-0.8086825,-0.81605154,-0.8278297,-0.8351679,-0.8278297,-0.8086825,-0.78808624,-0.7851571,-0.7851571,-0.7821971,-0.768939,-0.7513027,-0.7380446,-0.73363554,-0.7262665,-0.7189283,-0.7056702,-0.69685197,-0.68800294,-0.6791848,-0.6674067,-0.65710855,-0.65562856,-0.65562856,-0.6526995,-0.6497395,-0.64829034,-0.6541486,-0.6674067,-0.68359387,-0.6821139,-0.6762248,-0.66888666,-0.66888666,-0.6747757,-0.6777048,-0.6806648,-0.6762248,-0.67329574,-0.67181575,-0.6674067,-0.6659267,-0.6762248,-0.6909629,-0.69978106,-0.69685197,-0.6806648,-0.6615176,-0.6497395,-0.6541486,-0.6659267,-0.6777048,-0.6806648,-0.6762248,-0.6674067,-0.65710855,-0.6512195,-0.64829034,-0.6424013,-0.6350322,-0.6321031,-0.6350322,-0.64092135,-0.64829034,-0.64533037,-0.6276632,-0.6129559,-0.60706687,-0.6144359,-0.6291432,-0.6394413,-0.64092135,-0.6394413,-0.6335523,-0.6144359,-0.59676874,-0.5746925,-0.5585053,-0.5467271,-0.5231708,-0.49227643,-0.46579105,-0.4481238,-0.4481238,-0.45401293,-0.44960386,-0.43193662,-0.40104216,-0.38337493,-0.3789659,-0.40986037,-0.4716801,-0.55409616,-0.6379614,-0.69389206,-0.71007925,-0.7056702,-0.68507385,-0.66888666,-0.6659267,-0.6674067,-0.67181575,-0.67329574,-0.6777048,-0.6777048,-0.6791848,-0.6747757,-0.6512195,-0.61884505,-0.5555761,-0.4363457,-0.25091726,0.0021891594,0.26121545,0.45990193,0.5540652,0.49520552,0.25091732,-0.103752375,-0.47904915,-0.76308084,-0.87050223,-0.8175316,-0.6894829,-0.57176334,-0.5055345,-0.48638737,-0.50257456,-0.53201985,-0.54524714,-0.53349984,-0.5128727,-0.49964547,-0.49227643,-0.4849074,-0.4746092,-0.4569729,-0.4466439,-0.44223475,-0.43930566,-0.4334166,-0.42311847,-0.40986037,-0.39074397,-0.3657078,-0.3436315,-0.32599515,-0.3201061,-0.32155526,-0.30980796,-0.29506987,-0.27595353,-0.2656554,-0.2685845,-0.2671045,-0.25976628,-0.23769003,-0.2141338,-0.19942653,-0.1891284,-0.18027931,-0.17439032,-0.16409218,-0.15086484,-0.12434876,-0.08904517,-0.05371076,-0.018407226,0.005149007,0.025745273,0.059599757,0.09197414,0.12286866,0.15083396,0.16850114,0.17879939,0.18027937,0.17291021,0.16554129,0.1626122,0.16554129,0.15672302,0.12434864,0.074306965,0.012487292,-0.056670666,-0.12141955,-0.19353747,-0.27154446,-0.34952056,-0.42311847,-0.49079645,-0.5511362,-0.5996979,-0.6365122,-0.65562856,-0.6747757,-0.69685197,-0.72481734,-0.74689364,-0.7571918,-0.74982274,-0.7424537,-0.7395246,-0.7395246,-0.74834275,-0.7571918,-0.7542318,-0.74834275,-0.7351155,-0.7189283,-0.71007925,-0.7086301,-0.7056702,-0.70126104,-0.68800294,-0.67181575,-0.6629976,-0.6644776,-0.67181575,-0.6747757,-0.66888666,-0.66003764,-0.64092135,-0.62177414,-0.6055869,-0.59528875,-0.5982487,-0.6041378,-0.6026578,-0.59383965,-0.5820615,-0.5776216,-0.5776216,-0.58058155,-0.5776216,-0.57176334,-0.5732125,-0.5776216,-0.57910156,-0.57910156,-0.58058155,-0.5879506,-0.6011778,-0.60706687,-0.6041378,-0.59383965,-0.5893997,-0.59235966,-0.59676874,-0.6011778,-0.5996979,-0.59528875,-0.58351064,-0.5732125,-0.57028335,-0.5761725,-0.59235966,-0.61147594,-0.6144359,-0.61002684,-0.6055869,-0.60854685,-0.6129559,-0.6129559,-0.6055869,-0.59528875,-0.59235966,-0.5996979,-0.6011778,-0.5982487,-0.5908797,-0.5820615,-0.5820615,-0.58058155,-0.5864706,-0.59383965,-0.5996979,-0.6026578,-0.59528875,-0.57910156,-0.56587434,-0.5614344,-0.5614344,-0.5585053,-0.55409616,-0.543798,-0.53201985,-0.51583266,-0.49964547,-0.47608918,-0.4466439,-0.4172294,-0.39367318,-0.3701169,-0.3583696,-0.36277866,-0.3715968,-0.3671878,-0.34952056,-0.32155526,-0.31421703,-0.34659147,-0.4216385,-0.5128727,-0.5864706,-0.6291432,-0.64681035,-0.6497395,-0.64829034,-0.64533037,-0.64681035,-0.64533037,-0.64385045,-0.64829034,-0.64533037,-0.64092135,-0.6394413,-0.6365122,-0.62177414,-0.5996979,-0.54524714,-0.40986037,-0.17587024,0.16113222,0.5069835,0.76745903,0.8778404,0.7718682,0.43782568,-0.0036999583,-0.4437148,-0.74689364,-0.8351679,-0.74834275,-0.60706687,-0.5084636,-0.47608918,-0.49227643,-0.5217217,-0.54524714,-0.55409616,-0.5482071,-0.534949,-0.5099436,-0.47904915,-0.4569729,-0.4481238,-0.45253295,-0.45549285,-0.45253295,-0.44078565,-0.42900747,-0.41870934,-0.40986037,-0.40104216,-0.39367318,-0.38926405,-0.37748593,-0.3583696,-0.3348133,-0.31566614,-0.30980796,-0.31273705,-0.306848,-0.29214078,-0.2685845,-0.24650824,-0.228841,-0.2141338,-0.19646657,-0.17735022,-0.15968305,-0.14497584,-0.12434876,-0.09345424,-0.0610798,-0.034594417,-0.00662905,0.024265409,0.04782164,0.07137787,0.0846051,0.08901429,0.10079229,0.11993945,0.14642489,0.17291021,0.19646657,0.21413362,0.22443187,0.21999192,0.19498646,0.1626122,0.1302377,0.09934318,0.059599757,-0.002219975,-0.08756518,-0.18323934,-0.27595353,-0.36277866,-0.44078565,-0.5128727,-0.5688034,-0.61002684,-0.6424013,-0.6747757,-0.7144884,-0.7527518,-0.779268,-0.78808624,-0.7851571,-0.7807172,-0.77041906,-0.76308084,-0.7586409,-0.7542318,-0.7542318,-0.7527518,-0.74689364,-0.7380446,-0.73656464,-0.7380446,-0.7410045,-0.7395246,-0.73215556,-0.72037745,-0.7144884,-0.70715016,-0.69685197,-0.68800294,-0.6762248,-0.6644776,-0.6512195,-0.6365122,-0.6335523,-0.64385045,-0.66003764,-0.6615176,-0.6526995,-0.6379614,-0.6306231,-0.64092135,-0.64829034,-0.64533037,-0.6350322,-0.6291432,-0.6350322,-0.64829034,-0.6615176,-0.66888666,-0.6674067,-0.66888666,-0.6674067,-0.6615176,-0.65710855,-0.65710855,-0.66003764,-0.6629976,-0.66003764,-0.6526995,-0.6497395,-0.6526995,-0.6541486,-0.6526995,-0.6512195,-0.64681035,-0.64092135,-0.6365122,-0.6306231,-0.6276632,-0.6350322,-0.64533037,-0.64681035,-0.6394413,-0.6291432,-0.62177414,-0.62473404,-0.62473404,-0.62177414,-0.62032497,-0.61884505,-0.62177414,-0.62032497,-0.6158851,-0.60706687,-0.6041378,-0.6041378,-0.5982487,-0.59383965,-0.59676874,-0.5982487,-0.6055869,-0.6041378,-0.59528875,-0.5879506,-0.5849906,-0.5908797,-0.59528875,-0.59528875,-0.5982487,-0.6041378,-0.61002684,-0.61002684,-0.6055869,-0.6011778,-0.5996979,-0.60854685,-0.6144359,-0.6144359,-0.6041378,-0.5820615,-0.55409616,-0.5246509,-0.4966855,-0.47608918,-0.459902,-0.44223475,-0.42311847,-0.40252215,-0.38485497,-0.38044584,-0.381895,-0.3671878,-0.34218234,-0.32451516,-0.32744426,-0.3701169,-0.45108378,-0.543798,-0.6158851,-0.6629976,-0.6791848,-0.6777048,-0.6762248,-0.6777048,-0.68655384,-0.6924121,-0.68507385,-0.67181575,-0.66003764,-0.66003764,-0.6615176,-0.64681035,-0.61147594,-0.56587434,-0.4878673,-0.3671878,-0.16850126,0.07578695,0.30095887,0.45990193,0.49227643,0.3421514,0.036043525,-0.33629334,-0.6747757,-0.8646132,-0.8660932,-0.7586409,-0.6424013,-0.5614344,-0.5246509,-0.5114236,-0.5099436,-0.5217217,-0.534949,-0.542318,-0.534949,-0.5143527,-0.49523634,-0.48197824,-0.4731601,-0.46727103,-0.4569729,-0.44519472,-0.42752755,-0.40986037,-0.39367318,-0.3789659,-0.3701169,-0.36129868,-0.35100055,-0.3348133,-0.31714612,-0.3024389,-0.2965498,-0.29214078,-0.28773165,-0.2803626,-0.2700644,-0.26121545,-0.25535727,-0.24650824,-0.23621011,-0.21709377,-0.19794661,-0.17587024,-0.15527397,-0.1376068,-0.117010534,-0.09641421,-0.07433784,-0.049301744,-0.016927242,0.009558082,0.028674483,0.043412566,0.058119774,0.07871604,0.103752375,0.12434864,0.13612676,0.14053583,0.14346504,0.1449449,0.13612676,0.11993945,0.10079229,0.07726693,0.04489243,-0.00662905,-0.07726699,-0.15527397,-0.23473006,-0.31125712,-0.38485497,-0.45549285,-0.52024174,-0.5761725,-0.62473404,-0.66888666,-0.70126104,-0.7130392,-0.71155924,-0.7144884,-0.72481734,-0.74541366,-0.76308084,-0.76308084,-0.7586409,-0.7571918,-0.7660099,-0.77337897,-0.77630806,-0.77482814,-0.77041906,-0.768939,-0.7660099,-0.7542318,-0.74689364,-0.7410045,-0.7395246,-0.7380446,-0.7292264,-0.7189283,-0.70126104,-0.68800294,-0.6821139,-0.6747757,-0.6791848,-0.68655384,-0.6924121,-0.6909629,-0.68507385,-0.6806648,-0.6791848,-0.6821139,-0.68507385,-0.6747757,-0.6644776,-0.65562856,-0.6497395,-0.64533037,-0.64092135,-0.6394413,-0.64092135,-0.6512195,-0.65710855,-0.65562856,-0.65562856,-0.65562856,-0.6629976,-0.67329574,-0.6806648,-0.68507385,-0.68359387,-0.6806648,-0.67036664,-0.66003764,-0.6541486,-0.65710855,-0.6659267,-0.67329574,-0.66888666,-0.6512195,-0.6424013,-0.6379614,-0.6379614,-0.6424013,-0.64681035,-0.6512195,-0.66003764,-0.6615176,-0.6512195,-0.64092135,-0.6350322,-0.6379614,-0.64681035,-0.6526995,-0.6541486,-0.65710855,-0.65710855,-0.6526995,-0.64829034,-0.64681035,-0.6512195,-0.66003764,-0.6615176,-0.6526995,-0.6306231,-0.61147594,-0.59676874,-0.5849906,-0.5732125,-0.5614344,-0.549687,-0.5393889,-0.5231708,-0.50112545,-0.4731601,-0.44519472,-0.4304567,-0.4216385,-0.41870934,-0.41282028,-0.40986037,-0.40986037,-0.4334166,-0.48197824,-0.55409616,-0.6335523,-0.69978106,-0.7292264,-0.72481734,-0.71007925,-0.695372,-0.695372,-0.69978106,-0.702741,-0.702741,-0.70715016,-0.71155924,-0.7174483,-0.702741,-0.66888666,-0.6262141,-0.56732345,-0.47904915,-0.33629334,-0.15086484,0.025745273,0.16850114,0.23473012,0.18320847,-0.021336317,-0.32744426,-0.65710855,-0.88961864,-0.94114023,-0.846946,-0.702741,-0.5879506,-0.5231708,-0.49964547,-0.5084636,-0.53201985,-0.55409616,-0.5614344,-0.5482071,-0.53349984,-0.5246509,-0.51876175,-0.5128727,-0.49964547,-0.4878673,-0.47904915,-0.47756916,-0.46872014,-0.4569729,-0.44519472,-0.4348966,-0.4348966,-0.43193662,-0.42459846,-0.41574943,-0.40693122,-0.39219314,-0.3715968,-0.35100055,-0.3377425,-0.3348133,-0.33629334,-0.32303518,-0.2965498,-0.2656554,-0.2420991,-0.23180097,-0.2273919,-0.21854287,-0.19794661,-0.17294115,-0.14349586,-0.117010534,-0.09641421,-0.078746974,-0.06403977,-0.04489261,-0.018407226,0.015447259,0.04782164,0.07282698,0.09345412,0.10520148,0.11553049,0.11993945,0.11845958,0.112570524,0.10227227,0.0860852,0.0537107,0.0021891594,-0.059599757,-0.1302377,-0.20235562,-0.27299362,-0.35248053,-0.42900747,-0.49523634,-0.5511362,-0.6026578,-0.6541486,-0.69978106,-0.7395246,-0.76308084,-0.7777881,-0.78808624,-0.79986435,-0.8101625,-0.8145716,-0.82194066,-0.8278297,-0.8307588,-0.82194066,-0.8057534,-0.7924953,-0.7821971,-0.7777881,-0.77337897,-0.76453,-0.7557118,-0.7513027,-0.74834275,-0.7395246,-0.7277465,-0.7159683,-0.7041902,-0.69830114,-0.68655384,-0.67181575,-0.6629976,-0.65710855,-0.65710855,-0.65710855,-0.6526995,-0.64681035,-0.64385045,-0.64533037,-0.64681035,-0.6497395,-0.6512195,-0.6541486,-0.65562856,-0.6541486,-0.64829034,-0.6424013,-0.6424013,-0.64533037,-0.64092135,-0.6335523,-0.6276632,-0.62473404,-0.6321031,-0.64092135,-0.64533037,-0.64681035,-0.64385045,-0.64092135,-0.6379614,-0.6365122,-0.6379614,-0.6379614,-0.6379614,-0.6321031,-0.62032497,-0.6144359,-0.6144359,-0.61884505,-0.61884505,-0.61002684,-0.6011778,-0.5996979,-0.6041378,-0.61002684,-0.60854685,-0.6026578,-0.5996979,-0.60706687,-0.6158851,-0.61884505,-0.6129559,-0.6041378,-0.5996979,-0.5982487,-0.5996979,-0.5982487,-0.5893997,-0.5761725,-0.5555761,-0.542318,-0.5379089,-0.5276108,-0.5143527,-0.49227643,-0.46431106,-0.44519472,-0.43782568,-0.42604756,-0.40986037,-0.39808226,-0.39074397,-0.38044584,-0.35981876,-0.3348133,-0.32303518,-0.35100055,-0.4201585,-0.5143527,-0.59528875,-0.6497395,-0.6762248,-0.68507385,-0.6821139,-0.6762248,-0.6629976,-0.65562856,-0.65562856,-0.67036664,-0.68359387,-0.68507385,-0.6806648,