-0.31054288,-0.3204761,-0.32441884,-0.31650287,-0.30064023,-0.28875095,-0.28578627,-0.28975958,-0.28975958,-0.28184354,-0.27291888,-0.27093232,-0.27291888,-0.27490562,-0.27291888,-0.26796764,-0.26796764,-0.26995426,-0.26796764,-0.26399434,-0.26102966,-0.2650029,-0.273897,-0.27588362,-0.2719103,-0.26399434,-0.2600516,-0.2600516,-0.26102966,-0.25705636,-0.2560783,-0.26102966,-0.26796764,-0.26995426,-0.26598096,-0.26102966,-0.25904298,-0.26102966,-0.2600516,-0.2560783,-0.2560783,-0.26200765,-0.273897,-0.27588362,-0.26796764,-0.26200765,-0.258065,-0.25506967,-0.252105,-0.24418902,-0.23923767,-0.24122429,-0.2471537,-0.24816227,-0.24516702,-0.24516702,-0.25011837,-0.25705636,-0.25904298,-0.25311363,-0.251127,-0.25409168,-0.25904298,-0.258065,-0.25011837,-0.24122429,-0.24021572,-0.24418902,-0.24321097,-0.23627299,-0.23132163,-0.22933501,-0.23327774,-0.23031306,-0.2164371,-0.20158315,-0.19268906,-0.18969381,-0.19070244,-0.19070244,-0.18969381,-0.18177783,-0.1599859,-0.1273132,-0.09659666,-0.088680685,-0.106499314,-0.12532651,-0.124317944,-0.10353464,-0.08470738,-0.09363192,-0.1332426,-0.18376446,-0.22536176,-0.25011837,-0.258065,-0.2560783,-0.251127,-0.24418902,-0.2422024,-0.24418902,-0.24617565,-0.24516702,-0.2422024,-0.24516702,-0.2560783,-0.26399434,-0.26598096,-0.258065,-0.24914032,-0.24418902,-0.24418902,-0.24418902,-0.2422024,-0.23923767,-0.2045784,-0.0827207,0.15402603,0.45715737,0.7394748,0.8702265,0.7870014,0.49279463,0.05298233,-0.3967327,-0.7503858,-0.9197701,-0.88312423,-0.7107446,-0.5106438,-0.36207336,-0.28480828,-0.2560783,-0.24516702,-0.23229969,-0.21943241,-0.20852113,-0.19663179,-0.18672913,-0.1827864,-0.18575114,-0.19168049,-0.18969381,-0.17979115,-0.1698885,-0.16692388,-0.17089719,-0.16594577,-0.15503454,-0.14216715,-0.13522923,-0.1332426,-0.1342206,-0.1332426,-0.13125592,-0.13125592,-0.12630463,-0.11542398,-0.09858334,-0.088680685,-0.08369869,-0.08073413,-0.07281804,-0.057964087,-0.044088125,-0.037150145,-0.03418547,-0.028225482,-0.015358269,-0.0005041957,0.016336322,0.03516364,0.061906934,0.09757483,0.1322341,0.16096401,0.18672931,0.2144506,0.24715376,0.28083503,0.31350768,0.34621096,0.38184822,0.4145515,0.43930817,0.44921076,0.44921076,0.4502194,0.45220602,0.44031668,0.40862215,0.3581003,0.2996317,0.23920727,0.17483997,0.1054908,0.03415513,-0.026269495,-0.07480472,-0.120375276,-0.1689105,-0.21842378,-0.2560783,-0.27689224,-0.28975958,-0.30363548,-0.3204761,-0.3343215,-0.3343215,-0.32738352,-0.32441884,-0.32640553,-0.33236545,-0.3333435,-0.3333435,-0.3402815,-0.3491755,-0.35314876,-0.34523273,-0.3343215,-0.32640553,-0.32839215,-0.32839215,-0.31946754,-0.3066002,-0.29568893,-0.28875095,-0.28679484,-0.28379965,-0.28184354,-0.2828216,-0.28578627,-0.2828216,-0.2719103,-0.2600516,-0.252105,-0.2471537,-0.24021572,-0.23229969,-0.22734839,-0.2263704,-0.23031306,-0.23031306,-0.22239703,-0.21744573,-0.21842378,-0.2263704,-0.23725104,-0.23725104,-0.23031306,-0.22438365,-0.22239703,-0.22239703,-0.22438365,-0.2263704,-0.23327774,-0.24321097,-0.25011837,-0.252105,-0.24816227,-0.24321097,-0.23627299,-0.2263704,-0.21545905,-0.21249443,-0.22239703,-0.23627299,-0.24516702,-0.2422024,-0.23725104,-0.23627299,-0.24122429,-0.24321097,-0.23526442,-0.22832644,-0.2263704,-0.23229969,-0.23825961,-0.23725104,-0.23229969,-0.23132163,-0.23229969,-0.23031306,-0.22832644,-0.2263704,-0.22933501,-0.23725104,-0.23627299,-0.22832644,-0.2204104,-0.2204104,-0.22933501,-0.23526442,-0.23627299,-0.23428637,-0.23526442,-0.23923767,-0.24122429,-0.23725104,-0.23132163,-0.22536176,-0.22239703,-0.21744573,-0.21448106,-0.21545905,-0.22141904,-0.23031306,-0.23031306,-0.22438365,-0.21744573,-0.21448106,-0.21545905,-0.2114858,-0.19366717,-0.1639592,-0.13125592,-0.11047256,-0.106499314,-0.11441529,-0.12233138,-0.12333995,-0.11542398,-0.10747731,-0.113437295,-0.14611,-0.19663179,-0.24816227,-0.2808349,-0.28480828,-0.2719103,-0.25904298,-0.25904298,-0.2650029,-0.27093232,-0.273897,-0.27291888,-0.26995426,-0.26598096,-0.26301628,-0.26102966,-0.26301628,-0.26796764,-0.2650029,-0.2560783,-0.24617565,-0.24122429,-0.2422024,-0.23725104,-0.20259178,-0.09262335,0.11539352,0.38484347,0.64732504,0.79393935,0.74836874,0.49875462,0.08767223,-0.3521707,-0.7107446,-0.9019515,-0.90094286,-0.7602885,-0.5681037,-0.40269262,-0.30064023,-0.25506967,-0.24418902,-0.23725104,-0.22239703,-0.2095297,-0.20259178,-0.20158315,-0.1956538,-0.18177783,-0.16594577,-0.15702122,-0.15601254,-0.15702122,-0.15405655,-0.15206987,-0.15405655,-0.1599859,-0.16295052,-0.15702122,-0.14910513,-0.14216715,-0.1381939,-0.1332426,-0.12630463,-0.12135327,-0.120375276,-0.12135327,-0.11441529,-0.10053933,-0.087672055,-0.08568537,-0.08470738,-0.07874745,-0.060928762,-0.038158715,-0.023274243,-0.012393534,-0.0014823079,0.017314434,0.043079615,0.06487155,0.08467686,0.10845554,0.14213681,0.17979133,0.2144506,0.2441585,0.27389717,0.3055917,0.33630824,0.3620429,0.38484347,0.40960014,0.4333787,0.44823277,0.44725466,0.4323702,0.41256487,0.3878082,0.35412693,0.3026271,0.23425603,0.16689336,0.10451281,0.044057608,-0.020309508,-0.087672055,-0.14910513,-0.19962704,-0.23923767,-0.27291888,-0.30461353,-0.32937014,-0.3422681,-0.3491755,-0.36008674,-0.36800277,-0.37099802,-0.36800277,-0.36207336,-0.3630514,-0.36901134,-0.3699894,-0.3660161,-0.3591087,-0.35810012,-0.3630514,-0.3630514,-0.36008674,-0.35611343,-0.35314876,-0.35314876,-0.34523273,-0.33037877,-0.31748086,-0.31353813,-0.3184895,-0.32145417,-0.3184895,-0.3145162,-0.3145162,-0.31552482,-0.3115515,-0.30164886,-0.29272425,-0.28875095,-0.28975958,-0.28875095,-0.2828216,-0.27588362,-0.27588362,-0.28184354,-0.28379965,-0.2788483,-0.27490562,-0.2778703,-0.28875095,-0.29471087,-0.28975958,-0.27985686,-0.27093232,-0.27490562,-0.2778703,-0.27689224,-0.26796764,-0.26102966,-0.26301628,-0.266959,-0.27093232,-0.273897,-0.2788483,-0.28578627,-0.28875095,-0.28480828,-0.2808349,-0.28184354,-0.28578627,-0.2828216,-0.27291888,-0.26399434,-0.26301628,-0.27093232,-0.27985686,-0.27985686,-0.27689224,-0.27588362,-0.2788483,-0.28184354,-0.2778703,-0.27291888,-0.26894563,-0.26796764,-0.266959,-0.26399434,-0.2600516,-0.266959,-0.27588362,-0.2808349,-0.27689224,-0.26995426,-0.26796764,-0.27291888,-0.27689224,-0.27588362,-0.26894563,-0.26796764,-0.27291888,-0.27689224,-0.27490562,-0.26894563,-0.26598096,-0.26796764,-0.26995426,-0.26796764,-0.266959,-0.26894563,-0.27490562,-0.2778703,-0.27291888,-0.2650029,-0.25904298,-0.25311363,-0.24816227,-0.23725104,-0.2204104,-0.19861847,-0.17386186,-0.15106124,-0.14018059,-0.14711857,-0.16197252,-0.1689105,-0.15900779,-0.13522923,-0.12233138,-0.14711857,-0.19861847,-0.25506967,-0.29174626,-0.3026269,-0.29568893,-0.28875095,-0.28578627,-0.28679484,-0.28975958,-0.29471087,-0.30164886,-0.3026269,-0.29966223,-0.2966975,-0.30064023,-0.30559158,-0.30559158,-0.29767555,-0.28875095,-0.28578627,-0.29073763,-0.29174626,-0.28578627,-0.258065,-0.17285317,0.017314434,0.30360508,0.62058175,0.8474258,0.872213,0.6721122,0.2788484,-0.18575114,-0.5988202,-0.8623103,-0.9247215,-0.81475306,-0.6235769,-0.45122784,-0.3432461,-0.30064023,-0.2828216,-0.266959,-0.24914032,-0.23725104,-0.23428637,-0.23825961,-0.23428637,-0.22536176,-0.21943241,-0.21943241,-0.21943241,-0.21448106,-0.21050775,-0.20754308,-0.2114858,-0.2164371,-0.21249443,-0.20555645,-0.20356977,-0.2045784,-0.20259178,-0.19366717,-0.18177783,-0.17187518,-0.17187518,-0.17187518,-0.16096395,-0.14611,-0.13522923,-0.13027793,-0.124317944,-0.113437295,-0.09956133,-0.08568537,-0.07679129,-0.06786674,-0.051026106,-0.032198906,-0.020309508,-0.008420289,0.01040709,0.04109311,0.077739,0.11637163,0.14809668,0.18275607,0.22536182,0.2679373,0.3055917,0.33630824,0.36402965,0.39275956,0.42048085,0.43732142,0.43732142,0.42741883,0.40761352,0.38383496,0.3511623,0.30953455,0.26298583,0.20852125,0.14015007,0.061906934,-0.018322945,-0.087672055,-0.1381939,-0.17881316,-0.2164371,-0.2560783,-0.29073763,-0.31650287,-0.33533013,-0.3491755,-0.36008674,-0.3630514,-0.3610648,-0.3591087,-0.3650381,-0.37692738,-0.38683003,-0.3848434,-0.37197608,-0.35712212,-0.3491755,-0.34621078,-0.35018408,-0.35712212,-0.36702472,-0.37692738,-0.38090068,-0.37197608,-0.35810012,-0.34523273,-0.3402815,-0.33927286,-0.33731675,-0.33731675,-0.3402815,-0.34422415,-0.34422415,-0.33236545,-0.31650287,-0.3026269,-0.29568893,-0.29073763,-0.2877729,-0.2877729,-0.2877729,-0.2877729,-0.2808349,-0.26796764,-0.25705636,-0.258065,-0.26301628,-0.2650029,-0.26598096,-0.26200765,-0.2650029,-0.27291888,-0.27588362,-0.27490562,-0.26995426,-0.266959,-0.26894563,-0.266959,-0.26102966,-0.25705636,-0.26102966,-0.27291888,-0.28379965,-0.28480828,-0.2778703,-0.26995426,-0.26399434,-0.2650029,-0.26301628,-0.26102966,-0.26301628,-0.26598096,-0.26894563,-0.2650029,-0.258065,-0.25409168,-0.25311363,-0.25506967,-0.25705636,-0.2600516,-0.266959,-0.2719103,-0.2719103,-0.26102966,-0.252105,-0.251127,-0.2600516,-0.26894563,-0.26894563,-0.26399434,-0.26200765,-0.266959,-0.27093232,-0.26796764,-0.25904298,-0.2560783,-0.2560783,-0.2560783,-0.251127,-0.24122429,-0.23526442,-0.23725104,-0.24021572,-0.23725104,-0.23725104,-0.24321097,-0.25506967,-0.26301628,-0.26399434,-0.25904298,-0.2560783,-0.2560783,-0.251127,-0.23923767,-0.22536176,-0.2164371,-0.21943241,-0.22239703,-0.2114858,-0.18575114,-0.15702122,-0.13917202,-0.1342206,-0.1381939,-0.13620728,-0.12630463,-0.11441529,-0.11145061,-0.119366646,-0.15008324,-0.19168049,-0.23229969,-0.26102966,-0.26796764,-0.26200765,-0.258065,-0.26301628,-0.2719103,-0.27689224,-0.27689224,-0.27689224,-0.27985686,-0.2808349,-0.2788483,-0.273897,-0.2719103,-0.27291888,-0.26995426,-0.26200765,-0.2560783,-0.258065,-0.26796764,-0.27490562,-0.25311363,-0.16197252,0.03910637,0.326375,0.6413957,0.86625314,0.89299643,0.6899309,0.28279126,-0.19663179,-0.6077448,-0.8533857,-0.8950135,-0.77612054,-0.5859529,-0.4115867,-0.29868418,-0.24816227,-0.23825961,-0.24321097,-0.24122429,-0.23031306,-0.22536176,-0.22734839,-0.23031306,-0.22337508,-0.20754308,-0.19168049,-0.18177783,-0.17584842,-0.17089719,-0.1649372,-0.16295052,-0.16594577,-0.17089719,-0.17285317,-0.17089719,-0.16790187,-0.16096395,-0.15106124,-0.13721591,-0.124317944,-0.120375276,-0.120375276,-0.120375276,-0.113437295,-0.10353464,-0.09858334,-0.094610035,-0.086694,-0.07379615,-0.055977404,-0.042101443,-0.037150145,-0.027247488,-0.0074421763,0.017314434,0.044057608,0.068844914,0.09457958,0.12630475,0.16392875,0.19663203,0.22236657,0.25308323,0.29171574,0.32937026,0.3620429,0.38679957,0.40761352,0.43139207,0.45220602,0.45813537,0.44921076,0.4323702,0.41256487,0.38285685,0.33529973,0.27191043,0.19861853,0.1302476,0.06982291,0.0074118376,-0.05894208,-0.119366646,-0.1649372,-0.19861847,-0.22832644,-0.25904298,-0.28975958,-0.31748086,-0.33630812,-0.35116214,-0.36406004,-0.37295407,-0.37099802,-0.36406004,-0.3610648,-0.36207336,-0.3610648,-0.35513544,-0.3472194,-0.34523273,-0.3521707,-0.36008674,-0.36008674,-0.35314876,-0.34523273,-0.3432461,-0.34125948,-0.33533013,-0.32937014,-0.32441884,-0.32441884,-0.32344085,-0.31650287,-0.3066002,-0.30164886,-0.3026269,-0.3026269,-0.2966975,-0.28578627,-0.27689224,-0.273897,-0.27588362,-0.27588362,-0.27291888,-0.2719103,-0.27291888,-0.27490562,-0.266959,-0.258065,-0.24816227,-0.24321097,-0.24321097,-0.2471537,-0.25311363,-0.26399434,-0.27689224,-0.2808349,-0.27291888,-0.258065,-0.25011837,-0.252105,-0.2600516,-0.26399434,-0.26399434,-0.26102966,-0.26102966,-0.2600516,-0.252105,-0.24321097,-0.24321097,-0.251127,-0.26200765,-0.26796764,-0.2650029,-0.26200765,-0.26200765,-0.26598096,-0.26995426,-0.26995426,-0.2719103,-0.27490562,-0.27588362,-0.2719103,-0.266959,-0.26399434,-0.26598096,-0.27093232,-0.27291888,-0.26894563,-0.26301628,-0.25506967,-0.24516702,-0.23627299,-0.23327774,-0.24021572,-0.25311363,-0.2560783,-0.24516702,-0.22933501,-0.21744573,-0.21943241,-0.22734839,-0.23428637,-0.23428637,-0.23725104,-0.24617565,-0.252105,-0.25011837,-0.23923767,-0.22734839,-0.21943241,-0.21545905,-0.20852113,-0.2006051,-0.19764042,-0.2006051,-0.20259178,-0.2006051,-0.19070244,-0.18177783,-0.1649372,-0.14018059,-0.11441529,-0.09558809,-0.09659666,-0.10747731,-0.10946399,-0.09757465,-0.08470738,-0.08965868,-0.120375276,-0.1639592,-0.19962704,-0.22239703,-0.23627299,-0.24418902,-0.2471537,-0.2422024,-0.23327774,-0.22933501,-0.22832644,-0.23229969,-0.23229969,-0.22832644,-0.22734839,-0.23428637,-0.2422024,-0.23923767,-0.23031306,-0.22239703,-0.22239703,-0.22734839,-0.23229969,-0.22832644,-0.21249443,-0.15900779,-0.018322945,0.21246397,0.48885202,0.72162557,0.79989934,0.68400156,0.38582158,-0.028225482,-0.4413252,-0.7563152,-0.89696956,-0.850421,-0.678072,-0.4809358,-0.32839215,-0.24321097,-0.2114858,-0.20555645,-0.20259178,-0.19366717,-0.18079984,-0.16692388,-0.15702122,-0.15503454,-0.15900779,-0.15900779,-0.15008324,-0.13721591,-0.12926936,-0.12926936,-0.1332426,-0.13027793,-0.12333995,-0.11542398,-0.112428725,-0.11047256,-0.10552132,-0.09757465,-0.09558809,-0.09757465,-0.094610035,-0.086694,-0.07184005,-0.05995077,-0.060928762,-0.06490207,-0.061906815,-0.05399078,-0.044088125,-0.033207476,-0.024282813,-0.008420289,0.011385083,0.031190395,0.04803109,0.06685829,0.09063685,0.12132287,0.15500414,0.1857208,0.21842396,0.25406122,0.29171574,0.32441902,0.35015368,0.37393224,0.3986889,0.4244541,0.4442594,0.460122,0.46507335,0.46803808,0.4690467,0.45614874,0.42842746,0.38679957,0.333313,0.27191043,0.19861853,0.119366765,0.04604435,-0.012393534,-0.05995077,-0.10451263,-0.15304792,-0.2006051,-0.24021572,-0.2650029,-0.2808349,-0.29568893,-0.3066002,-0.3145162,-0.3204761,-0.32441884,-0.33037877,-0.33236545,-0.33135682,-0.32441884,-0.32243222,-0.32441884,-0.32344085,-0.31650287,-0.31054288,-0.3095649,-0.31353813,-0.31748086,-0.31353813,-0.3026269,-0.29471087,-0.29174626,-0.29073763,-0.28578627,-0.27490562,-0.26796764,-0.26598096,-0.2650029,-0.25904298,-0.24914032,-0.23923767,-0.23428637,-0.23825961,-0.23627299,-0.23132163,-0.22438365,-0.21842378,-0.21545905,-0.20852113,-0.20158315,-0.19962704,-0.20555645,-0.21249443,-0.21347243,-0.20852113,-0.20653445,-0.21050775,-0.21943241,-0.22239703,-0.21943241,-0.21842378,-0.21842378,-0.21943241,-0.2164371,-0.20852113,-0.20653445,-0.21249443,-0.2204104,-0.22141904,-0.21744573,-0.20852113,-0.20653445,-0.20555645,-0.2045784,-0.2045784,-0.20555645,-0.2095297,-0.2095297,-0.2045784,-0.19962704,-0.2006051,-0.2095297,-0.21744573,-0.21744573,-0.21050775,-0.20259178,-0.19663179,-0.19168049,-0.18575114,-0.1827864,-0.18672913,-0.1956538,-0.20158315,-0.19962704,-0.19268906,-0.19070244,-0.19168049,-0.19464517,-0.19168049,-0.18474251,-0.18575114,-0.19366717,-0.19962704,-0.19764042,-0.18969381,-0.18474251,-0.18871582,-0.20259178,-0.21249443,-0.21347243,-0.20754308,-0.19861847,-0.18871582,-0.17483985,-0.1649372,-0.16295052,-0.16692388,-0.16790187,-0.14910513,-0.11441529,-0.0827207,-0.068844736,-0.07975602,-0.094610035,-0.09858334,-0.09063667,-0.075782716,-0.07184005,-0.08965868,-0.12532651,-0.17187518,-0.21545905,-0.24516702,-0.24914032,-0.23725104,-0.2263704,-0.22438365,-0.22832644,-0.23428637,-0.23526442,-0.23428637,-0.23428637,-0.23327774,-0.22832644,-0.22337508,-0.22337508,-0.2263704,-0.23031306,-0.22734839,-0.2204104,-0.2164371,-0.21842378,-0.21448106,-0.17187518,-0.038158715,0.19861853,0.48983002,0.75827146,0.8890536,0.818696,0.53836524,0.10151756,-0.35513544,-0.708758,-0.8692483,-0.8306157,-0.6661827,-0.47598445,-0.33236545,-0.252105,-0.22438365,-0.2204104,-0.21744573,-0.20754308,-0.19168049,-0.18079984,-0.17881316,-0.17881316,-0.17780459,-0.16790187,-0.15702122,-0.15206987,-0.14809656,-0.14216715,-0.13522923,-0.13125592,-0.13125592,-0.1332426,-0.13125592,-0.12829125,-0.12532651,-0.124317944,-0.12333995,-0.11640197,-0.10747731,-0.10353464,-0.10552132,-0.10252601,-0.087672055,-0.06588006,-0.04806143,-0.04112345,-0.038158715,-0.02923417,-0.011415541,0.0014823675,0.009398341,0.018323064,0.03415513,0.058942318,0.08269036,0.09855282,0.11738014,0.14412344,0.17979133,0.21542859,0.24715376,0.27389717,0.30757844,0.34816694,0.3878082,0.41852474,0.44227278,0.45813537,0.4710027,0.47497606,0.46409535,0.44227278,0.4135735,0.37689698,0.32044566,0.25210524,0.17878282,0.10845554,0.049039602,-0.008420289,-0.06588006,-0.120375276,-0.16692388,-0.20653445,-0.2422024,-0.27490562,-0.29966223,-0.3115515,-0.31650287,-0.32243222,-0.33236545,-0.33927286,-0.3402815,-0.33630812,-0.3343215,-0.34125948,-0.3491755,-0.3521707,-0.3472194,-0.3402815,-0.33927286,-0.33927286,-0.34125948,-0.33927286,-0.3343215,-0.32839215,-0.32344085,-0.3145162,-0.30858684,-0.30858684,-0.3115515,-0.31353813,-0.30559158,-0.29174626,-0.2808349,-0.2778703,-0.2778703,-0.27588362,-0.26894563,-0.26301628,-0.2650029,-0.26995426,-0.26796764,-0.25904298,-0.252105,-0.25409168,-0.25705636,-0.2560783,-0.2471537,-0.23725104,-0.23229969,-0.23327774,-0.23327774,-0.22933501,-0.23031306,-0.23725104,-0.24021572,-0.23229969,-0.2164371,-0.20158315,-0.2006051,-0.2095297,-0.21943241,-0.22734839,-0.23428637,-0.24321097,-0.251127,-0.251127,-0.24617565,-0.24418902,-0.2471537,-0.24816227,-0.24418902,-0.23725104,-0.23428637,-0.23923767,-0.251127,-0.25705636,-0.25409168,-0.24914032,-0.24418902,-0.2422024,-0.23627299,-0.23031306,-0.2263704,-0.2263704,-0.23031306,-0.22933501,-0.22239703,-0.21545905,-0.21347243,-0.21842378,-0.22438365,-0.22832644,-0.23229969,-0.23526442,-0.23825961,-0.23627299,-0.22734839,-0.2204104,-0.22141904,-0.22832644,-0.22933501,-0.22536176,-0.21943241,-0.21448106,-0.21545905,-0.21744573,-0.21448106,-0.2095297,-0.20754308,-0.20852113,-0.2045784,-0.19861847,-0.19464517,-0.19070244,-0.18871582,-0.18474251,-0.17584842,-0.17089719,-0.17285317,-0.17483985,-0.1599859,-0.1273132,-0.094610035,-0.08073413,-0.09164536,-0.10747731,-0.10946399,-0.09757465,-0.081742704,-0.07480472,-0.09063667,-0.12630463,-0.17386186,-0.21842378,-0.25011837,-0.2560783,-0.24617565,-0.23428637,-0.23327774,-0.23825961,-0.24122429,-0.24021572,-0.24321097,-0.2471537,-0.25311363,-0.25311363,-0.24516702,-0.23725104,-0.23526442,-0.23627299,-0.23132163,-0.22141904,-0.21842378,-0.2263704,-0.2422024,-0.22438365,-0.119366646,0.10845554,0.42246747,0.7394748,0.9356022,0.92074823,0.67605495,0.23920727,-0.24617565,-0.6453688,-0.85833704,-0.86032367,-0.70777994,-0.5106438,-0.35513544,-0.26598096,-0.23627299,-0.23526442,-0.23327774,-0.2164371,-0.1956538,-0.18575114,-0.18474251,-0.18672913,-0.18376446,-0.17285317,-0.16692388,-0.1698885,-0.17584842,-0.17386186,-0.16197252,-0.14711857,-0.14018059,-0.14711857,-0.15304792,-0.15405655,-0.15106124,-0.15206987,-0.15008324,-0.14115858,-0.1273132,-0.11145061,-0.10747731,-0.108486,-0.10552132,-0.09262335,-0.07679129,-0.068844736,-0.069853306,-0.06786674,-0.060928762,-0.049039423,-0.038158715,-0.025260925,-0.006433606,0.019301057,0.04210162,0.060898423,0.08269036,0.11340678,0.15500414,0.19761002,0.23327792,0.2600212,0.29272437,0.32937026,0.3610649,0.38484347,0.40364015,0.41852474,0.4412948,0.45813537,0.46409535,0.45220602,0.4244541,0.38184822,0.32441902,0.25803447,0.1857208,0.11637163,0.054968953,-0.0054555535,-0.06490207,-0.119366646,-0.1649372,-0.2006051,-0.23627299,-0.27093232,-0.29868418,-0.31252956,-0.31552482,-0.3145162,-0.31946754,-0.3333435,-0.3422681,-0.3402815,-0.33927286,-0.3402815,-0.3472194,-0.3491755,-0.34523273,-0.33630812,-0.33135682,-0.33135682,-0.33135682,-0.32839215,-0.32542747,-0.32640553,-0.32937014,-0.32542747,-0.31054288,-0.29767555,-0.29073763,-0.2877729,-0.28578627,-0.2808349,-0.273897,-0.273897,-0.28184354,-0.28184354,-0.27588362,-0.266959,-0.2600516,-0.25705636,-0.252105,-0.24816227,-0.24617565,-0.24816227,-0.25409168,-0.2560783,-0.24816227,-0.24122429,-0.23923767,-0.23825961,-0.23627299,-0.22933501,-0.22536176,-0.22536176,-0.23031306,-0.23031306,-0.22536176,-0.22239703,-0.22239703,-0.22832644,-0.23428637,-0.23526442,-0.24021572,-0.24617565,-0.252105,-0.251127,-0.24321097,-0.23923767,-0.23825961,-0.24021572,-0.23725104,-0.22832644,-0.21943241,-0.2204104,-0.22734839,-0.23132163,-0.23132163,-0.22933501,-0.22734839,-0.22438365,-0.21842378,-0.2164371,-0.22141904,-0.23526442,-0.24914032,-0.24914032,-0.23825961,-0.22536176,-0.22141904,-0.22438365,-0.22438365,-0.21744573,-0.2114858,-0.2114858,-0.22239703,-0.23031306,-0.22734839,-0.21943241,-0.21050775,-0.20158315,-0.19764042,-0.19366717,-0.19464517,-0.20356977,-0.21545905,-0.22239703,-0.21943241,-0.2164371,-0.2114858,-0.20852113,-0.20158315,-0.19070244,-0.18376446,-0.18474251,-0.19168049,-0.19366717,-0.18079984,-0.15008324,-0.11737996,-0.09164536,-0.0827207,-0.08568537,-0.09164536,-0.094610035,-0.09363192,-0.09063667,-0.10053933,-0.13125592,-0.17386186,-0.21943241,-0.24914032,-0.25904298,-0.25506967,-0.25311363,-0.252105,-0.2471537,-0.23923767,-0.23327774,-0.23725104,-0.24914032,-0.25705636,-0.25506967,-0.24617565,-0.23923767,-0.23923767,-0.23725104,-0.23031306,-0.2204104,-0.21249443,-0.20754308,-0.19962704,-0.16197252,-0.05499941,0.13620746,0.3779055,0.617617,0.75631547,0.72162557,0.49875462,0.11539352,-0.3095649,-0.6651741,-0.86726165,-0.8801595,-0.7503858,-0.56018764,-0.3897947,-0.28184354,-0.23627299,-0.22438365,-0.21744573,-0.19764042,-0.17483985,-0.16197252,-0.1599859,-0.16197252,-0.16295052,-0.15304792,-0.14513189,-0.1332426,-0.119366646,-0.108486,-0.10451263,-0.108486,-0.11838859,-0.124317944,-0.12233138,-0.119366646,-0.11640197,-0.11441529,-0.10747731,-0.09558809,-0.086694,-0.08470738,-0.088680685,-0.088680685,-0.08369869,-0.07480472,-0.068844736,-0.06786674,-0.061906815,-0.046074808,-0.032198906,-0.019331515,-0.002490878,0.017314434,0.044057608,0.07278764,0.09161484,0.10252619,0.12034476,0.14611006,0.18177795,0.22041059,0.25604784,0.29370248,0.331357,0.36699426,0.39572418,0.41653812,0.4343568,0.4502194,0.460122,0.46210873,0.45220602,0.4333787,0.40960014,0.37295425,0.31748104,0.25210524,0.18474269,0.11738014,0.052004337,-0.014380157,-0.07975602,-0.1322645,-0.1698885,-0.20158315,-0.23725104,-0.27490562,-0.30363548,-0.31946754,-0.32839215,-0.34125948,-0.35611343,-0.3660161,-0.3660161,-0.35712212,-0.3541574,-0.35611343,-0.35513544,-0.3472194,-0.33927286,-0.33630812,-0.33927286,-0.34125948,-0.33731675,-0.33037877,-0.32441884,-0.32542747,-0.32937014,-0.33037877,-0.32542747,-0.31946754,-0.3115515,-0.29868418,-0.28480828,-0.27588362,-0.273897,-0.27689224,-0.27689224,-0.2719103,-0.266959,-0.26796764,-0.2719103,-0.266959,-0.25409168,-0.24021572,-0.23825961,-0.24516702,-0.252105,-0.252105,-0.24617565,-0.24321097,-0.24418902,-0.24321097,-0.24021572,-0.23923767,-0.24321097,-0.251127,-0.2560783,-0.252105,-0.24516702,-0.24122429,-0.24122429,-0.24021572,-0.23526442,-0.23132163,-0.23725104,-0.24816227,-0.25705636,-0.25904298,-0.2560783,-0.25311363,-0.25506967,-0.2560783,-0.251127,-0.2471537,-0.24816227,-0.252105,-0.2560783,-0.25409168,-0.2471537,-0.2422024,-0.24122429,-0.23825961,-0.23132163,-0.22239703,-0.2204104,-0.22438365,-0.23031306,-0.23627299,-0.23825961,-0.2422024,-0.2471537,-0.24617565,-0.23923767,-0.23327774,-0.23725104,-0.24418902,-0.24516702,-0.23825961,-0.22933501,-0.22536176,-0.23132163,-0.23327774,-0.22536176,-0.21448106,-0.2095297,-0.21448106,-0.22337508,-0.22536176,-0.22337508,-0.2204104,-0.21744573,-0.21347243,-0.20754308,-0.2045784,-0.20754308,-0.2164371,-0.22536176,-0.2263704,-0.21545905,-0.18969381,-0.15702122,-0.12233138,-0.10353464,-0.106499314,-0.12233138,-0.1332426,-0.12630463,-0.10747731,-0.09063667,-0.10353464,-0.14415383,-0.19070244,-0.23031306,-0.25409168,-0.26301628,-0.26399434,-0.25904298,-0.25011837,-0.2422024,-0.24021572,-0.24914032,-0.25705636,-0.2600516,-0.26102966,-0.26200765,-0.26399434,-0.26200765,-0.2560783,-0.251127,-0.25011837,-0.25705636,-0.26399434,-0.26598096,-0.252105,-0.18474251,-0.018322945,0.2510965,0.5710684,0.83058524,0.91280174,0.7770988,0.4323702,-0.025260925,-0.46210855,-0.7721778,-0.8821156,-0.7998991,-0.61168754,-0.4294359,-0.31252956,-0.2650029,-0.25409168,-0.24617565,-0.23327774,-0.2263704,-0.22734839,-0.2263704,-0.21842378,-0.20555645,-0.19764042,-0.19268906,-0.18773782,-0.17682648,-0.16692388,-0.16790187,-0.17584842,-0.18177783,-0.18079984,-0.17285317,-0.16594577,-0.16295052,-0.15702122,-0.14415383,-0.1322645,-0.12829125,-0.13027793,-0.1332426,-0.12829125,-0.11838859,-0.11047256,-0.10451263,-0.09659666,-0.087672055,-0.07975602,-0.0777694,-0.07679129,-0.068844736,-0.049039423,-0.024282813,-0.0034688711,0.012363076,0.036141634,0.07083154,0.10946417,0.14611006,0.17383134,0.19861853,0.23226929,0.27288854,0.31152105,0.3422377,0.3680029,0.39178145,0.4145515,0.43041408,0.43930817,0.44031668,0.43732142,0.4234761,0.39474618,0.34520233,0.28279126,0.21940196,0.15699077,0.093601584,0.02721715,-0.04011488,-0.101548016,-0.15601254,-0.20356977,-0.24321097,-0.273897,-0.2966975,-0.31353813,-0.32738352,-0.3402815,-0.34621078,-0.34422415,-0.3402815,-0.33927286,-0.3432461,-0.3472194,-0.35018408,-0.35314876,-0.35513544,-0.35513544,-0.3491755,-0.33731675,-0.33135682,-0.3333435,-0.3382948,-0.33731675,-0.32937014,-0.3184895,-0.3145162,-0.31650287,-0.31650287,-0.3115515,-0.30559158,-0.3026269,-0.3026269,-0.29966223,-0.28975958,-0.27985686,-0.27689224,-0.2808349,-0.2828216,-0.2778703,-0.26796764,-0.25904298,-0.2560783,-0.25705636,-0.25904298,-0.25904298,-0.26301628,-0.26301628,-0.25904298,-0.25011837,-0.23526442,-0.22832644,-0.23031306,-0.23526442,-0.23825961,-0.23825961,-0.23825961,-0.23825961,-0.23825961,-0.23428637,-0.23031306,-0.23132163,-0.23923767,-0.2471537,-0.25011837,-0.2471537,-0.2471537,-0.2471537,-0.24516702,-0.24418902,-0.24321097,-0.24617565,-0.25011837,-0.25011837,-0.24321097,-0.23229969,-0.23031306,-0.23229969,-0.23526442,-0.23627299,-0.23825961,-0.24321097,-0.24914032,-0.252105,-0.24516702,-0.24021572,-0.23923767,-0.24122429,-0.24021572,-0.23031306,-0.21943241,-0.21744573,-0.22438365,-0.23031306,-0.23428637,-0.23428637,-0.23725104,-0.24122429,-0.23923767,-0.22933501,-0.2164371,-0.21347243,-0.21545905,-0.21744573,-0.21842378,-0.21545905,-0.21744573,-0.22438365,-0.22933501,-0.22832644,-0.22536176,-0.22438365,-0.2263704,-0.22536176,-0.2164371,-0.20653445,-0.19962704,-0.20158315,-0.2045784,-0.20259178,-0.19663179,-0.18871582,-0.18474251,-0.17483985,-0.15503454,-0.12333995,-0.10053933,-0.09659666,-0.10451263,-0.112428725,-0.10747731,-0.09164536,-0.07975602,-0.08568537,-0.11640197,-0.1599859,-0.20852113,-0.2471537,-0.2650029,-0.26102966,-0.24914032,-0.24321097,-0.2422024,-0.24122429,-0.23825961,-0.23627299,-0.24122429,-0.25904298,-0.273897,-0.27985686,-0.27689224,-0.26894563,-0.26301628,-0.25506967,-0.24617565,-0.24516702,-0.2471537,-0.25311363,-0.24418902,-0.17881316,-0.01636684,0.24715376,0.5601572,0.83159375,0.94153166,0.83159375,0.4997326,0.031190395,-0.4254626,-0.7503858,-0.8732215,-0.805859,-0.6334795,-0.45419258,-0.33236545,-0.27588362,-0.266959,-0.2719103,-0.26894563,-0.251127,-0.23132163,-0.22141904,-0.2263704,-0.23132163,-0.22832644,-0.21744573,-0.20356977,-0.19366717,-0.18474251,-0.17682648,-0.17187518,-0.17682648,-0.18773782,-0.19464517,-0.18871582,-0.17285317,-0.1639592,-0.16096395,-0.15799922,-0.14910513,-0.13620728,-0.12926936,-0.1322645,-0.13721591,-0.13721591,-0.13027793,-0.12135327,-0.11737996,-0.108486,-0.09164536,-0.07379615,-0.05499941,-0.04011488,-0.024282813,-0.002490878,0.019301057,0.03910637,0.05992031,0.08865023,0.12529612,0.1688801,0.20751262,0.23920727,0.2699238,0.30458307,0.33927298,0.36500776,0.38087022,0.39572418,0.4145515,0.43732142,0.45220602,0.45220602,0.43536544,0.40663552,0.3610649,0.2996317,0.23031318,0.15897739,0.09757483,0.04210162,-0.019331515,-0.087672055,-0.15008324,-0.19962704,-0.23825961,-0.27291888,-0.3066002,-0.33533013,-0.35314876,-0.3591087,-0.3630514,-0.36800277,-0.3739627,-0.3739627,-0.37295407,-0.37692738,-0.38090068,-0.38187873,-0.37494075,-0.36800277,-0.3660161,-0.37197608,-0.37989205,-0.37692738,-0.3699894,-0.3630514,-0.3610648,-0.3610648,-0.35513544,-0.35018408,-0.3472194,-0.35018408,-0.3491755,-0.34125948,-0.33135682,-0.32738352,-0.33135682,-0.3343215,-0.32937014,-0.3184895,-0.30858684,-0.3066002,-0.30757827,-0.30164886,-0.29272425,-0.28875095,-0.28875095,-0.29272425,-0.29174626,-0.2877729,-0.28679484,-0.28578627,-0.28184354,-0.27093232,-0.2560783,-0.24914032,-0.25705636,-0.26894563,-0.27490562,-0.27490562,-0.2719103,-0.26995426,-0.27093232,-0.27093232,-0.27093232,-0.27588362,-0.27985686,-0.2808349,-0.27490562,-0.26796764,-0.266959,-0.27588362,-0.28184354,-0.2778703,-0.26894563,-0.2600516,-0.25904298,-0.26200765,-0.2650029,-0.266959,-0.27291888,-0.2788483,-0.2808349,-0.2719103,-0.26102966,-0.25705636,-0.26301628,-0.27093232,-0.27490562,-0.2719103,-0.27093232,-0.273897,-0.27588362,-0.2719103,-0.2650029,-0.25705636,-0.25311363,-0.24816227,-0.2422024,-0.23825961,-0.24516702,-0.25705636,-0.26399434,-0.26200765,-0.2560783,-0.25311363,-0.258065,-0.2650029,-0.266959,-0.26301628,-0.25904298,-0.25904298,-0.25705636,-0.252105,-0.24617565,-0.24516702,-0.24914032,-0.24816227,-0.24021572,-0.22933501,-0.21943241,-0.21347243,-0.20653445,-0.19861847,-0.19268906,-0.19464517,-0.19464517,-0.17979115,-0.15304792,-0.1273132,-0.12135327,-0.1322645,-0.13721591,-0.12532651,-0.10252601,-0.088680685,-0.10451263,-0.14611,-0.19168049,-0.22933501,-0.251127,-0.25705636,-0.24914032,-0.23725104,-0.23132163,-0.24021572,-0.258065,-0.27490562,-0.27291888,-0.25904298,-0.24321097,-0.23526442,-0.23526442,-0.23825961,-0.24122429,-0.24321097,-0.24516702,-0.24418902,-0.23825961,-0.22933501,-0.21943241,-0.18376446,-0.06490207,0.1490748,0.41653812,0.6622094,0.7721474,0.6968689,0.43536544,0.031190395,-0.39774132,-0.7444259,-0.9197701,-0.8959915,-0.7374879,-0.53937376,-0.38187873,-0.2877729,-0.24122429,-0.2263704,-0.22141904,-0.21744573,-0.21249443,-0.2045784,-0.19168049,-0.18575114,-0.18575114,-0.18575114,-0.18079984,-0.17187518,-0.1649372,-0.1639592,-0.16197252,-0.15702122,-0.15206987,-0.15106124,-0.15503454,-0.15405655,-0.14513189,-0.1322645,-0.124317944,-0.12630463,-0.13027793,-0.12532651,-0.11542398,-0.11047256,-0.112428725,-0.11441529,-0.10946399,-0.09858334,-0.086694,-0.08073413,-0.07083142,-0.05399078,-0.02923417,-0.006433606,0.012363076,0.026239038,0.045066357,0.07083154,0.099530816,0.1302476,0.16295075,0.19861853,0.23822927,0.27288854,0.30360508,0.33529973,0.36898088,0.3967328,0.41852474,0.43139207,0.43732142,0.4432814,0.44227278,0.42741883,0.39572418,0.3511623,0.29767573,0.24318051,0.18177795,0.11340678,0.043079615,-0.025260925,-0.09063667,-0.15206987,-0.20555645,-0.24516702,-0.26894563,-0.28679484,-0.30858684,-0.33037877,-0.35018408,-0.35712212,-0.35712212,-0.36008674,-0.3660161,-0.3699894,-0.36702472,-0.36207336,-0.36207336,-0.36800277,-0.37295407,-0.37197608,-0.3660161,-0.36008674,-0.3610648,-0.3610648,-0.35611343,-0.34621078,-0.3382948,-0.33533013,-0.3343215,-0.3343215,-0.3333435,-0.33533013,-0.33630812,-0.3333435,-0.3204761,-0.30164886,-0.2877729,-0.28184354,-0.2788483,-0.2788483,-0.27588362,-0.27588362,-0.28184354,-0.28578627,-0.28379965,-0.27588362,-0.2719103,-0.26796764,-0.2650029,-0.258065,-0.25311363,-0.25506967,-0.26598096,-0.2788483,-0.2808349,-0.27291888,-0.2650029,-0.26200765,-0.26102966,-0.26301628,-0.2600516,-0.2600516,-0.26301628,-0.2650029,-0.26200765,-0.258065,-0.258065,-0.26598096,-0.27291888,-0.27490562,-0.27291888,-0.27093232,-0.27291888,-0.27490562,-0.27490562,-0.27291888,-0.27291888,-0.27490562,-0.2719103,-0.2600516,-0.24418902,-0.23428637,-0.23428637,-0.24122429,-0.24816227,-0.251127,-0.25506967,-0.26200765,-0.26399434,-0.25904298,-0.251127,-0.24617565,-0.25011837,-0.2560783,-0.25705636,-0.25409168,-0.251127,-0.25409168,-0.258065,-0.25705636,-0.25311363,-0.251127,-0.258065,-0.26301628,-0.26200765,-0.25705636,-0.25409168,-0.26102966,-0.26796764,-0.26995426,-0.266959,-0.26301628,-0.26301628,-0.26200765,-0.25409168,-0.24321097,-0.24021572,-0.2471537,-0.25311363,-0.24914032,-0.23526442,-0.22239703,-0.21943241,-0.22239703,-0.22438365,-0.22438365,-0.22141904,-0.2095297,-0.18474251,-0.14910513,-0.119366646,-0.11737996,-0.1342206,-0.14216715,-0.1332426,-0.10946399,-0.09858334,-0.12135327,-0.17386186,-0.22734839,-0.2650029,-0.28679484,-0.28875095,-0.2788483,-0.2650029,-0.25409168,-0.25311363,-0.26102966,-0.27093232,-0.27689224,-0.2808349,-0.28578627,-0.28975958,-0.28875095,-0.28184354,-0.27093232,-0.26598096,-0.2719103,-0.27689224,-0.27490562,-0.26598096,-0.24914032,-0.19070244,-0.03617215,0.2233752,0.54035187,0.80384195,0.8989564,0.77810717,0.4511974,0.0014823675,-0.44428986,-0.7711692,-0.8959915,-0.8187264,-0.63149285,-0.44627655,-0.33135682,-0.28578627,-0.27291888,-0.26200765,-0.2471537,-0.23428637,-0.22734839,-0.22239703,-0.2204104,-0.22141904,-0.2164371,-0.2095297,-0.19861847,-0.18575114,-0.18575114,-0.19464517,-0.19764042,-0.18969381,-0.17584842,-0.16692388,-0.1698885,-0.17483985,-0.17285317,-0.16295052,-0.15702122,-0.15304792,-0.15106124,-0.14216715,-0.12829125,-0.12233138,-0.12333995,-0.12233138,-0.11047256,-0.09262335,-0.07184005,-0.05995077,-0.05301279,-0.042101443,-0.027247488,-0.013371527,-0.0014823079,0.011385083,0.029203653,0.056955576,0.08767223,0.118358135,0.1490748,0.18969405,0.22930455,0.2679373,0.30064046,0.32937026,0.3581003,0.38979483,0.41852474,0.43536544,0.4442594,0.4502194,0.44823277,0.43139207,0.3986889,0.35412693,0.3026271,0.2501185,0.1886853,0.12034476,0.050017595,-0.015358269,-0.069853306,-0.119366646,-0.1689105,-0.21448106,-0.24914032,-0.27291888,-0.29174626,-0.30858684,-0.32441884,-0.3382948,-0.34523273,-0.3491755,-0.35116214,-0.35018408,-0.34523273,-0.33630812,-0.33135682,-0.3333435,-0.33630812,-0.33630812,-0.3343215,-0.33630812,-0.34125948,-0.34621078,-0.3472194,-0.3382948,-0.33533013,-0.33630812,-0.3382948,-0.33236545,-0.32145417,-0.30858684,-0.30363548,-0.3066002,-0.30858684,-0.3066002,-0.3026269,-0.29966223,-0.29767555,-0.29174626,-0.28184354,-0.27588362,-0.27490562,-0.27689224,-0.2719103,-0.26102966,-0.24914032,-0.24418902,-0.2471537,-0.25011837,-0.2471537,-0.24418902,-0.24516702,-0.252105,-0.25506967,-0.252105,-0.2471537,-0.24321097,-0.24122429,-0.24021572,-0.23725104,-0.23627299,-0.23923767,-0.24321097,-0.24321097,-0.23923767,-0.23725104,-0.24122429,-0.24516702,-0.24516702,-0.24122429,-0.23923767,-0.2422024,-0.24617565,-0.24816227,-0.24021572,-0.23428637,-0.23428637,-0.23825961,-0.23923767,-0.24122429,-0.24516702,-0.25311363,-0.26200765,-0.2600516,-0.24914032,-0.23526442,-0.23031306,-0.23327774,-0.23825961,-0.23923767,-0.23627299,-0.23327774,-0.23031306,-0.2263704,-0.22438365,-0.2263704,-0.23229969,-0.23327774,-0.23031306,-0.22438365,-0.22141904,-0.2263704,-0.22832644,-0.22337508,-0.21545905,-0.21050775,-0.21744573,-0.22536176,-0.22337508,-0.21842378,-0.21744573,-0.22141904,-0.2263704,-0.22337508,-0.21545905,-0.2095297,-0.2095297,-0.21448106,-0.21249443,-0.2045784,-0.2006051,-0.20259178,-0.20555645,-0.20653445,-0.20653445,-0.20754308,-0.21249443,-0.21347243,-0.20259178,-0.18575114,-0.17386186,-0.17285317,-0.17979115,-0.18474251,-0.17386186,-0.15008324,-0.124317944,-0.10252601,-0.09558809,-0.101548016,-0.11441529,-0.11441529,-0.09858334,-0.0777694,-0.06588006,-0.09164536,-0.14513189,-0.2006051,-0.23627299,-0.24617565,-0.2422024,-0.23825961,-0.23825961,-0.23725104,-0.23428637,-0.23725104,-0.2471537,-0.2600516,-0.26796764,-0.26796764,-0.26796764,-0.26796764,-0.266959,-0.25705636,-0.2422024,-0.23031306,-0.22933501,-0.23627299,-0.24418902,-0.23132163,-0.15702122,0.03415513,0.32937026,0.66716075,0.9197397,0.96729696,0.77413404,0.37096763,-0.11640197,-0.54432505,-0.81475306,-0.8781729,-0.7662178,-0.5730549,-0.40269262,-0.29966223,-0.26200765,-0.258065,-0.25311363,-0.23627299,-0.2164371,-0.20653445,-0.20158315,-0.19764042,-0.19070244,-0.18376446,-0.18474251,-0.18575114,-0.1827864,-0.17682648,-0.17386186,-0.17187518,-0.1639592,-0.14809656,-0.1322645,-0.12532651,-0.1322645,-0.14415383,-0.14415383,-0.1332426,-0.12135327,-0.11542398,-0.11441529,-0.113437295,-0.10552132,-0.09659666,-0.088680685,-0.0827207,-0.07184005,-0.05894208,-0.050048113,-0.042101443,-0.032198906,-0.014380157,0.01040709,0.03415513,0.052004337,0.061906934,0.081712365,0.111420274,0.14213681,0.17581809,0.21148598,0.24910986,0.28972912,0.33034837,0.36402965,0.39077294,0.4175161,0.44031668,0.45318413,0.45715737,0.45715737,0.45416224,0.4442594,0.42048085,0.3779055,0.32142377,0.2590431,0.19464529,0.12630475,0.054968953,-0.014380157,-0.07379615,-0.12333995,-0.17089719,-0.21347243,-0.251127,-0.26995426,-0.27689224,-0.2828216,-0.29966223,-0.3204761,-0.33630812,-0.3422681,-0.3432461,-0.3432461,-0.3472194,-0.3472194,-0.34125948,-0.3382948,-0.3422681,-0.34621078,-0.3432461,-0.3343215,-0.32738352,-0.32738352,-0.33236545,-0.33236545,-0.32441884,-0.31353813,-0.3095649,-0.31252956,-0.3145162,-0.3145162,-0.31552482,-0.31650287,-0.3145162,-0.30363548,-0.29174626,-0.2877729,-0.28875095,-0.29568893,-0.29174626,-0.27985686,-0.26796764,-0.26200765,-0.26399434,-0.26399434,-0.258065,-0.251127,-0.24516702,-0.24418902,-0.24321097,-0.2422024,-0.24321097,-0.24816227,-0.25506967,-0.2560783,-0.25409168,-0.25409168,-0.25705636,-0.26200765,-0.26102966,-0.25409168,-0.25011837,-0.25409168,-0.26399434,-0.27490562,-0.27490562,-0.26796764,-0.25705636,-0.251127,-0.24617565,-0.2471537,-0.25311363,-0.26102966,-0.26598096,-0.26399434,-0.26102966,-0.26200765,-0.26894563,-0.27490562,-0.2719103,-0.26399434,-0.25904298,-0.2650029,-0.27689224,-0.28184354,-0.27588362,-0.266959,-0.26200765,-0.26301628,-0.26301628,-0.26102966,-0.26399434,-0.27291888,-0.2788483,-0.2788483,-0.27093232,-0.2600516,-0.25904298,-0.26301628,-0.25904298,-0.252105,-0.2471537,-0.24617565,-0.252105,-0.25506967,-0.252105,-0.251127,-0.25311363,-0.25904298,-0.26301628,-0.2600516,-0.2600516,-0.26399434,-0.26796764,-0.26598096,-0.258065,-0.25311363,-0.25705636,-0.26399434,-0.2560783,-0.23627299,-0.2164371,-0.2045784,-0.20555645,-0.21050775,-0.21050775,-0.2006051,-0.18177783,-0.15405655,-0.12233138,-0.10053933,-0.10252601,-0.11640197,-0.124317944,-0.11838859,-0.101548016,-0.09659666,-0.12333995,-0.1698885,-0.21347243,-0.24418902,-0.2600516,-0.26598096,-0.26894563,-0.26995426,-0.26399434,-0.25705636,-0.2560783,-0.2560783,-0.2560783,-0.25311363,-0.24914032,-0.251127,-0.251127,-0.25011837,-0.2471537,-0.24516702,-0.25011837,-0.25904298,-0.26200765,-0.25506967,-0.23327774,-0.16790187,-0.012393534,0.23226929,0.52054656,0.75631547,0.82862926,0.6978469,0.37494087,-0.061906815,-0.49380314,-0.81377506,-0.9395755,-0.8682702,-0.6770634,-0.4779712,-0.34422415,-0.28379965,-0.2650029,-0.25506967,-0.24122429,-0.22933501,-0.22141904,-0.21448106,-0.2045784,-0.19464517,-0.18871582,-0.18672913,-0.18177783,-0.17285317,-0.1649372,-0.1639592,-0.1698885,-0.17483985,-0.17483985,-0.17187518,-0.16790187,-0.1649372,-0.1599859,-0.15405655,-0.14611,-0.14415383,-0.13721591,-0.12630463,-0.11441529,-0.106499314,-0.10451263,-0.10552132,-0.09956133,-0.087672055,-0.07679129,-0.06688875,-0.057964087,-0.043110132,-0.023274243,-0.0034688711,0.013371706,0.030212283,0.056955576,0.08767223,0.11738014,0.14314532,0.16493738,0.19464529,0.23327792,0.2709018,0.3065697,0.33826435,0.37295425,0.40862215,0.43833005,0.45220602,0.45220602,0.45220602,0.44823277,0.43536544,0.41057813,0.36898088,0.31748104,0.25803447,0.19265866,0.12330961,0.05399096,-0.0054555535,-0.057964087,-0.11047256,-0.1639592,-0.2164371,-0.2560783,-0.28480828,-0.31054288,-0.33533013,-0.34819746,-0.34819746,-0.3382948,-0.33037877,-0.33135682,-0.3382948,-0.33927286,-0.3343215,-0.3333435,-0.3402815,-0.35018408,-0.35314876,-0.34621078,-0.33927286,-0.33731675,-0.34125948,-0.3432461,-0.3382948,-0.33135682,-0.32441884,-0.31946754,-0.3115515,-0.30164886,-0.29471087,-0.29471087,-0.29471087,-0.29471087,-0.2877729,-0.27985686,-0.27490562,-0.27093232,-0.26102966,-0.251127,-0.24418902,-0.24617565,-0.252105,-0.25311363,-0.24816227,-0.24122429,-0.23526442,-0.23725104,-0.23923767,-0.23627299,-0.23627299,-0.23825961,-0.24122429,-0.24021572,-0.23627299,-0.23526442,-0.24021572,-0.24418902,-0.2471537,-0.24122429,-0.23627299,-0.23627299,-0.24021572,-0.2422024,-0.23923767,-0.24021572,-0.24617565,-0.258065,-0.26102966,-0.25011837,-0.23627299,-0.2263704,-0.2263704,-0.23327774,-0.23923767,-0.24418902,-0.24816227,-0.24914032,-0.2471537,-0.23825961,-0.23229969,-0.23428637,-0.24122429,-0.24516702,-0.24122429,-0.23627299,-0.23526442,-0.23526442,-0.23229969,-0.22438365,-0.22141904,-0.22536176,-0.23132163,-0.23132163,-0.2263704,-0.2204104,-0.2263704,-0.23229969,-0.23327774,-0.22438365,-0.2114858,-0.20653445,-0.20754308,-0.20653445,-0.20356977,-0.20356977,-0.2114858,-0.22141904,-0.22438365,-0.22141904,-0.21545905,-0.21249443,-0.2164371,-0.21943241,-0.2164371,-0.21545905,-0.2164371,-0.21842378,-0.21744573,-0.2095297,-0.20158315,-0.19962704,-0.19663179,-0.18969381,-0.17979115,-0.17089719,-0.15799922,-0.1381939,-0.10946399,-0.081742704,-0.07184005,-0.07975602,-0.087672055,-0.081742704,-0.062915385,-0.0520041,-0.068844736,-0.11441529,-0.1639592,-0.2045784,-0.22933501,-0.23825961,-0.23923767,-0.23526442,-0.23229969,-0.23327774,-0.24321097,-0.251127,-0.251127,-0.24516702,-0.24021572,-0.2422024,-0.24617565,-0.24418902,-0.23725104,-0.23428637,-0.24021572,-0.24816227,-0.24816227,-0.23923767,-0.22734839,-0.19168049,-0.081742704,0.15005279,0.46409535,0.77511203,0.945505,0.8949832,0.62654173,0.19067204,-0.2828216,-0.67409873,-0.8841022,-0.88113755,-0.71869123,-0.51363903,-0.35712212,-0.27689224,-0.24816227,-0.24021572,-0.23526442,-0.23327774,-0.23725104,-0.23627299,-0.22536176,-0.2114858,-0.2006051,-0.19464517,-0.18871582,-0.17979115,-0.17187518,-0.17089719,-0.17682648,-0.17780459,-0.1698885,-0.15503454,-0.13917202,-0.12630463,-0.11640197,-0.113437295,-0.11838859,-0.12532651,-0.13125592,-0.12630463,-0.113437295,-0.10252601,-0.101548016,-0.10451263,-0.10451263,-0.094610035,-0.08369869,-0.07480472,-0.068844736,-0.056955516,-0.037150145,-0.015358269,0.0024603605,0.017314434,0.03516364,0.0658803,0.09855282,0.1302476,0.16194212,0.19464529,0.24119389,0.2867645,0.325397,0.35412693,0.3788836,0.40168417,0.42148948,0.43732142,0.44624615,0.45813537,0.46409535,0.45614874,0.43139207,0.3878082,0.33728635,0.2867645,0.22731805,0.15699077,0.09063685,0.030212283,-0.019331515,-0.06688875,-0.12532651,-0.18474251,-0.23327774,-0.26598096,-0.29174626,-0.3145162,-0.33927286,-0.35116214,-0.35116214,-0.35018408,-0.34819746,-0.35116214,-0.35314876,-0.3472194,-0.34422415,-0.3491755,-0.3521707,-0.3521707,-0.35018408,-0.34819746,-0.34621078,-0.3422681,-0.3333435,-0.31946754,-0.31748086,-0.32344085,-0.32839215,-0.32640553,-0.31650287,-0.31054288,-0.31252956,-0.3184895,-0.3204761,-0.31054288,-0.29966223,-0.29272425,-0.29073763,-0.28578627,-0.27985686,-0.27490562,-0.27689224,-0.28184354,-0.2808349,-0.26894563,-0.25506967,-0.25011837,-0.25409168,-0.25409168,-0.24418902,-0.23327774,-0.22734839,-0.23229969,-0.24321097,-0.251127,-0.25705636,-0.26200765,-0.27093232,-0.27689224,-0.27689224,-0.27490562,-0.2719103,-0.26598096,-0.258065,-0.24914032,-0.2471537,-0.2560783,-0.266959,-0.27291888,-0.26894563,-0.26301628,-0.26301628,-0.26995426,-0.27291888,-0.266959,-0.258065,-0.252105,-0.25409168,-0.25904298,-0.25904298,-0.26102966,-0.26102966,-0.26200765,-0.26399434,-0.258065,-0.25311363,-0.251127,-0.24816227,-0.24418902,-0.23825961,-0.23923767,-0.24617565,-0.2560783,-0.2600516,-0.25311363,-0.24321097,-0.23923767,-0.23923767,-0.24021572,-0.23627299,-0.22832644,-0.22438365,-0.22141904,-0.2164371,-0.21347243,-0.21448106,-0.21943241,-0.22438365,-0.22337508,-0.2164371,-0.21448106,-0.22337508,-0.23132163,-0.23327774,-0.22438365,-0.21347243,-0.2114858,-0.21943241,-0.22933501,-0.23132163,-0.23031306,-0.22337508,-0.21943241,-0.2095297,-0.18773782,-0.17187518,-0.16692388,-0.17584842,-0.18672913,-0.1956538,-0.19464517,-0.18474251,-0.16692388,-0.13917202,-0.112428725,-0.10053933,-0.11145061,-0.1273132,-0.1273132,-0.112428725,-0.09757465,-0.108486,-0.15206987,-0.19861847,-0.23825961,-0.26200765,-0.27291888,-0.27490562,-0.26598096,-0.25011837,-0.23526442,-0.23327774,-0.24122429,-0.252105,-0.25904298,-0.26200765,-0.26796764,-0.27291888,-0.27291888,-0.26894563,-0.26598096,-0.266959,-0.27093232,-0.26598096,-0.2471537,-0.22734839,-0.19962704,-0.13027793,0.032199025,0.2709018,0.5334139,0.7196388,0.7345233,0.56315243,0.22236657,-0.2006051,-0.5968336,-0.86133224,-0.92768615,-0.82071304,-0.6255635,-0.4413252,-0.32344085,-0.2650029,-0.2422024,-0.23526442,-0.22832644,-0.2204104,-0.2095297,-0.19464517,-0.18474251,-0.18376446,-0.18474251,-0.18474251,-0.17881316,-0.17089719,-0.16692388,-0.1698885,-0.17187518,-0.16790187,-0.16096395,-0.15405655,-0.14711857,-0.13917202,-0.1332426,-0.13125592,-0.1342206,-0.1381939,-0.13522923,-0.12630463,-0.11838859,-0.11542398,-0.11542398,-0.112428725,-0.10353464,-0.09558809,-0.08965868,-0.07679129,-0.05499941,-0.026269495,0.00047385693,0.013371706,0.017314434,0.023274302,0.04109311,0.0658803,0.09063685,0.12132287,0.15897739,0.20256126,0.24119389,0.27191043,0.29468048,0.31845903,0.35015368,0.38285685,0.40960014,0.42546272,0.43634343,0.4432814,0.43930817,0.42148948,0.3878082,0.3422377,0.29767573,0.24516726,0.18373406,0.11637163,0.04705298,-0.021318078,-0.08568537,-0.14809656,-0.2045784,-0.24914032,-0.2788483,-0.30064023,-0.31946754,-0.33927286,-0.35116214,-0.3541574,-0.35611343,-0.3610648,-0.3660161,-0.36800277,-0.36406004,-0.36008674,-0.3591087,-0.3610648,-0.3630514,-0.3591087,-0.36008674,-0.3630514,-0.3630514,-0.35712212,-0.34621078,-0.33533013,-0.3343215,-0.33927286,-0.33927286,-0.33236545,-0.32839215,-0.33135682,-0.33135682,-0.32738352,-0.31748086,-0.30757827,-0.30164886,-0.29767555,-0.2877729,-0.2719103,-0.25904298,-0.25904298,-0.26598096,-0.26894563,-0.26796764,-0.266959,-0.27093232,-0.26894563,-0.25904298,-0.24021572,-0.2263704,-0.22832644,-0.24122429,-0.25011837,-0.251127,-0.25011837,-0.2560783,-0.266959,-0.27093232,-0.2650029,-0.2560783,-0.25409168,-0.2560783,-0.258065,-0.25409168,-0.252105,-0.25904298,-0.27093232,-0.27985686,-0.2778703,-0.2719103,-0.26995426,-0.27291888,-0.27689224,-0.273897,-0.266959,-0.25705636,-0.25011837,-0.24617565,-0.24418902,-0.24617565,-0.252105,-0.25904298,-0.26301628,-0.26301628,-0.26102966,-0.26399434,-0.266959,-0.26598096,-0.26301628,-0.26102966,-0.26399434,-0.26796764,-0.26796764,-0.26301628,-0.26102966,-0.266959,-0.27291888,-0.27588362,-0.27093232,-0.25409168,-0.24021572,-0.23229969,-0.22734839,-0.23031306,-0.24021572,-0.25011837,-0.258065,-0.25705636,-0.252105,-0.251127,-0.25506967,-0.2650029,-0.26399434,-0.25311363,-0.23923767,-0.23132163,-0.22933501,-0.23031306,-0.22832644,-0.2263704,-0.22438365,-0.21050775,-0.18177783,-0.14611,-0.124317944,-0.12233138,-0.13125592,-0.1273132,-0.106499314,-0.08568537,-0.088680685,-0.12630463,-0.18079984,-0.23229969,-0.26894563,-0.29073763,-0.29868418,-0.29272425,-0.27985686,-0.26995426,-0.266959,-0.2719103,-0.2808349,-0.28379965,-0.2877729,-0.29373282,-0.2966975,-0.29272425,-0.2828216,-0.27291888,-0.2719103,-0.27689224,-0.27291888,-0.25904298,-0.24418902,-0.22438365,-0.1639592,-0.006433606,0.2590431,0.5700599,0.8177179,0.88706696,0.74641275,0.40663552,-0.04506612,-0.47995776,-0.7910051,-0.89996487,-0.8157617,-0.63149285,-0.45419258,-0.34422415,-0.29471087,-0.27588362,-0.2650029,-0.25409168,-0.24914032,-0.24816227,-0.24418902,-0.23923767,-0.23327774,-0.22536176,-0.21842378,-0.2095297,-0.2006051,-0.19764042,-0.1956538,-0.18969381,-0.18177783,-0.17584842,-0.18079984,-0.18773782,-0.18773782,-0.18079984,-0.16692388,-0.15900779,-0.1599859,-0.1599859,-0.15503454,-0.14711857,-0.14314526,-0.14018059,-0.1332426,-0.124317944,-0.12135327,-0.113437295,-0.10451263,-0.08470738,-0.055977404,-0.035163462,-0.026269495,-0.020309508,-0.0054555535,0.018323064,0.043079615,0.062885046,0.07874751,0.10350418,0.14213681,0.1877073,0.2312913,0.2709018,0.30855644,0.34422433,0.37494087,0.39275956,0.40067554,0.4056269,0.40960014,0.41158676,0.39572418,0.3699895,0.33728635,0.29865372,0.2501185,0.18474269,0.10350418,0.022265792,-0.046074808,-0.10053933,-0.15206987,-0.19962704,-0.24516702,-0.2828216,-0.3115515,-0.3343215,-0.35018408,-0.3591087,-0.3630514,-0.36702472,-0.37295407,-0.37790543,-0.38090068,-0.38090068,-0.38187873,-0.3848434,-0.38683003,-0.38187873,-0.37197608,-0.36702472,-0.36901134,-0.38090068,-0.38090068,-0.37197608,-0.35810012,-0.3472194,-0.3491755,-0.3541574,-0.3541574,-0.3491755,-0.3432461,-0.33630812,-0.32839215,-0.3204761,-0.31552482,-0.31946754,-0.32441884,-0.32344085,-0.3145162,-0.30461353,-0.29966223,-0.3026269,-0.30363548,-0.29966223,-0.29373282,-0.28975958,-0.28975958,-0.28875095,-0.28875095,-0.2877729,-0.28875095,-0.28875095,-0.28480828,-0.2808349,-0.28379965,-0.28975958,-0.28875095,-0.27588362,-0.2600516,-0.25011837,-0.258065,-0.273897,-0.27985686,-0.27588362,-0.27093232,-0.27490562,-0.2828216,-0.29174626,-0.29568893,-0.29272425,-0.28875095,-0.28679484,-0.2788483,-0.26894563,-0.26399434,-0.266959,-0.27588362,-0.2808349,-0.2788483,-0.273897,-0.26894563,-0.26598096,-0.2650029,-0.258065,-0.25011837,-0.251127,-0.25506967,-0.2600516,-0.26102966,-0.26301628,-0.26598096,-0.27093232,-0.26995426,-0.26102966,-0.25311363,-0.252105,-0.2560783,-0.26301628,-0.2600516,-0.251127,-0.24816227,-0.25311363,-0.26102966,-0.26399434,-0.26102966,-0.25904298,-0.25506967,-0.24816227,-0.23725104,-0.22933501,-0.23229969,-0.24617565,-0.25904298,-0.25904298,-0.24816227,-0.23428637,-0.22734839,-0.22832644,-0.23132163,-0.23327774,-0.23428637,-0.23627299,-0.23825961,-0.24021572,-0.24021572,-0.23526442,-0.23229969,-0.22438365,-0.2164371,-0.21249443,-0.21448106,-0.21050775,-0.19168049,-0.15799922,-0.12233138,-0.10552132,-0.11640197,-0.13522923,-0.13917202,-0.124317944,-0.10353464,-0.094610035,-0.112428725,-0.15405655,-0.19663179,-0.23627299,-0.258065,-0.258065,-0.24617565,-0.23923767,-0.24021572,-0.24617565,-0.24914032,-0.24816227,-0.252105,-0.26200765,-0.273897,-0.27588362,-0.26796764,-0.2600516,-0.2600516,-0.26796764,-0.26995426,-0.26200765,-0.25705636,-0.25904298,-0.26894563,-0.2560783,-0.1649372,0.04705298,0.3511623,0.6701256,0.8900318,0.9068724,0.7077497,0.30757844,-0.17089719,-0.5898956,-0.841527,-0.8791509,-0.7523725,-0.56018764,-0.39871937,-0.30363548,-0.26301628,-0.24914032,-0.24321097,-0.23327774,-0.22438365,-0.22141904,-0.22438365,-0.23031306,-0.22933501,-0.22141904,-0.20852113,-0.20356977,-0.20158315,-0.19962704,-0.19070244,-0.18177783,-0.17881316,-0.18474251,-0.18474251,-0.17682648,-0.16197252,-0.14910513,-0.14513189,-0.14314526,-0.1381939,-0.1322645,-0.12829125,-0.1273132,-0.124317944,-0.11640197,-0.10946399,-0.108486,-0.10747731,-0.101548016,-0.086694,-0.07083142,-0.05894208,-0.049039423,-0.03418547,-0.006433606,0.023274302,0.04803109,0.07278764,0.09757483,0.1302476,0.167902,0.20256126,0.23822927,0.2758838,0.31549442,0.35510492,0.38582158,0.4135735,0.43930817,0.46409535,0.4789493,0.4789493,0.46507335,0.44227278,0.4135735,0.37494087,0.32142377,0.25604784,0.1877073,0.12330961,0.05793357,-0.011415541,-0.08073413,-0.13917202,-0.18177783,-0.2164371,-0.252105,-0.28480828,-0.30757827,-0.31650287,-0.31748086,-0.32441884,-0.33630812,-0.3472194,-0.34819746,-0.34422415,-0.3491755,-0.35611343,-0.35611343,-0.3472194,-0.3333435,-0.32441884,-0.33135682,-0.34422415,-0.35018408,-0.34819746,-0.34422415,-0.3382948,-0.32839215,-0.3184895,-0.31252956,-0.31252956,-0.31946754,-0.32243222,-0.3204761,-0.31650287,-0.31552482,-0.3184895,-0.31252956,-0.29767555,-0.27985686,-0.2719103,-0.27689224,-0.27985686,-0.2828216,-0.28679484,-0.29174626,-0.29373282,-0.28379965,-0.2600516,-0.23526442,-0.22536176,-0.23428637,-0.24617565,-0.25409168,-0.25311363,-0.25409168,-0.25506967,-0.25904298,-0.26102966,-0.258065,-0.2600516,-0.26399434,-0.2600516,-0.25506967,-0.24914032,-0.25011837,-0.25904298,-0.26995426,-0.27588362,-0.2778703,-0.28379965,-0.28578627,-0.27588362,-0.2600516,-0.24418902,-0.23825961,-0.24914032,-0.26102966,-0.26598096,-0.266959,-0.266959,-0.26796764,-0.26894563,-0.26200765,-0.25506967,-0.2560783,-0.26399434,-0.26894563,-0.26995426,-0.26301628,-0.25705636,-0.2560783,-0.2560783,-0.25506967,-0.25409168,-0.258065,-0.26399434,-0.26894563,-0.27093232,-0.27689224,-0.28184354,-0.2828216,-0.27490562,-0.258065,-0.24617565,-0.24914032,-0.26102966,-0.26894563,-0.26796764,-0.26399434,-0.26301628,-0.26399434,-0.26200765,-0.252105,-0.24321097,-0.24321097,-0.24914032,-0.25506967,-0.25311363,-0.24914032,-0.24914032,-0.25506967,-0.26301628,-0.26399434,-0.25705636,-0.24914032,-0.24021572,-0.23229969,-0.22337508,-0.2204104,-0.22141904,-0.21943241,-0.2095297,-0.19464517,-0.17979115,-0.16096395,-0.14314526,-0.12532651,-0.11047256,-0.11047256,-0.124317944,-0.1332426,-0.12532651,-0.112428725,-0.113437295,-0.14314526,-0.18969381,-0.22933501,-0.24418902,-0.23725104,-0.22536176,-0.22438365,-0.22832644,-0.23132163,-0.23725104,-0.24516702,-0.25409168,-0.258065,-0.25506967,-0.252105,-0.25705636,-0.266959,-0.2719103,-0.26200765,-0.24816227,-0.24122429,-0.24418902,-0.24816227,-0.24321097,-0.21744573,-0.13125592,0.052004337,0.31252968,0.59185183,0.7860234,0.79097474,0.5958251,0.23031318,-0.20555645,-0.5988202,-0.8553723,-0.92175674,-0.8157617,-0.6255635,-0.44526792,-0.33135682,-0.28184354,-0.26200765,-0.24122429,-0.21448106,-0.19268906,-0.18672913,-0.18871582,-0.19268906,-0.18871582,-0.18079984,-0.17187518,-0.1599859,-0.14711857,-0.13917202,-0.14115858,-0.14809656,-0.15206987,-0.15008324,-0.14513189,-0.14513189,-0.14910513,-0.15206987,-0.14809656,-0.14314526,-0.14115858,-0.14216715,-0.1342206,-0.12135327,-0.11047256,-0.108486,-0.11640197,-0.11737996,-0.10552132,-0.07975602,-0.05301279,-0.035163462,-0.021318078,-0.0054555535,0.008420348,0.019301057,0.031190395,0.04803109,0.07676089,0.11340678,0.14708805,0.17581809,0.20057464,0.22633994,0.25705647,0.2877425,0.31946766,0.35314894,0.38679957,0.41653812,0.4323702,0.43634343,0.43634343,0.43139207,0.41950285,0.39474618,0.35314894,0.3026271,0.24813187,0.1886853,0.12034476,0.044057608,-0.031220794,-0.09558809,-0.14910513,-0.19764042,-0.23725104,-0.26894563,-0.29272425,-0.3115515,-0.33135682,-0.3521707,-0.36406004,-0.3660161,-0.3650381,-0.37099802,-0.378914,-0.38187873,-0.37494075,-0.36406004,-0.36008674,-0.36406004,-0.36901134,-0.3650381,-0.3541574,-0.3491755,-0.35314876,-0.3541574,-0.35116214,-0.34523273,-0.3422681,-0.3472194,-0.35116214,-0.35018408,-0.3432461,-0.33731675,-0.3333435,-0.32640553,-0.3145162,-0.30757827,-0.31054288,-0.32145417,-0.32738352,-0.3204761,-0.3026269,-0.28975958,-0.28379965,-0.28480828,-0.28379965,-0.28184354,-0.2778703,-0.273897,-0.26598096,-0.25506967,-0.24816227,-0.252105,-0.2600516,-0.26102966,-0.25705636,-0.25409168,-0.25904298,-0.26995426,-0.27689224,-0.2719103,-0.26301628,-0.26301628,-0.27093232,-0.2808349,-0.28480828,-0.27985686,-0.27689224,-0.2719103,-0.26796764,-0.26200765,-0.2560783,-0.25311363,-0.25409168,-0.25311363,-0.25311363,-0.25705636,-0.26399434,-0.273897,-0.27588362,-0.26796764,-0.25904298,-0.25506967,-0.2600516,-0.26399434,-0.2650029,-0.26399434,-0.26399434,-0.26598096,-0.2650029,-0.25705636,-0.24914032,-0.2471537,-0.24914032,-0.24617565,-0.23725104,-0.22933501,-0.22933501,-0.23725104,-0.2422024,-0.24122429,-0.23526442,-0.23031306,-0.23428637,-0.23923767,-0.2422024,-0.24321097,-0.24516702,-0.24617565,-0.24321097,-0.22933501,-0.21545905,-0.2114858,-0.21249443,-0.21249443,-0.2095297,-0.20259178,-0.18969381,-0.17285317,-0.15106124,-0.1273132,-0.112428725,-0.11838859,-0.12829125,-0.12630463,-0.113437295,-0.10053933,-0.10353464,-0.13620728,-0.18079984,-0.21744573,-0.24122429,-0.25311363,-0.2560783,-0.2560783,-0.25409168,-0.25705636,-0.2600516,-0.26399434,-0.26399434,-0.2600516,-0.2600516,-0.26995426,-0.2808349,-0.28379965,-0.27588362,-0.2650029,-0.2560783,-0.25506967,-0.25311363,-0.251127,-0.25506967,-0.24418902,-0.1698885,0.023274302,0.31748104,0.63843095,0.85732853,0.8731911,0.67507696,0.29171574,-0.16692388,-0.5799929,-0.8464783,-0.90589416,-0.7840671,-0.5898956,-0.4214893,-0.33037877,-0.29767555,-0.28379965,-0.26301628,-0.23627299,-0.21448106,-0.2045784,-0.20555645,-0.20653445,-0.20852113,-0.20754308,-0.20158315,-0.19070244,-0.18575114,-0.18474251,-0.18773782,-0.18969381,-0.18575114,-0.18079984,-0.1827864,-0.18474251,-0.18376446,-0.17483985,-0.16692388,-0.16197252,-0.16197252,-0.15601254,-0.14711857,-0.13917202,-0.13620728,-0.13721591,-0.1342206,-0.12135327,-0.10747731,-0.09858334,-0.08965868,-0.07679129,-0.055977404,-0.03418547,-0.017344832,-0.0074421763,0.0054250956,0.026239038,0.05099559,0.077739,0.1064688,0.14314532,0.18969405,0.23725116,0.27389717,0.30161846,0.32738364,0.36005628,0.39178145,0.41653812,0.42741883,0.43139207,0.43732142,0.43634343,0.42246747,0.39275956,0.3511623,0.29865372,0.24119389,0.17581809,0.10451281,0.036141634,-0.025260925,-0.08073413,-0.13721591,-0.19070244,-0.23132163,-0.26200765,-0.28975958,-0.31650287,-0.34422415,-0.3630514,-0.37197608,-0.3699894,-0.37197608,-0.378914,-0.378914,-0.3699894,-0.35611343,-0.3472194,-0.3472194,-0.35116214,-0.35116214,-0.3472194,-0.3432461,-0.34523273,-0.34819746,-0.35116214,-0.3521707,-0.35513544,-0.35712212,-0.35513544,-0.3472194,-0.33731675,-0.33533013,-0.33630812,-0.33630812,-0.32937014,-0.31748086,-0.3066002,-0.29868418,-0.29471087,-0.29471087,-0.29373282,-0.29568893,-0.29373282,-0.27985686,-0.26102966,-0.24816227,-0.24816227,-0.26200765,-0.27490562,-0.2788483,-0.27588362,-0.2719103,-0.27291888,-0.27588362,-0.273897,-0.27093232,-0.27093232,-0.2719103,-0.26796764,-0.25904298,-0.25409168,-0.25904298,-0.2719103,-0.28184354,-0.2788483,-0.266959,-0.2560783,-0.252105,-0.258065,-0.26200765,-0.2650029,-0.26796764,-0.27291888,-0.2719103,-0.27093232,-0.27093232,-0.273897,-0.2788483,-0.2788483,-0.273897,-0.26995426,-0.2719103,-0.2788483,-0.28379965,-0.2778703,-0.26995426,-0.266959,-0.2650029,-0.26301628,-0.2600516,-0.25409168,-0.2560783,-0.26399434,-0.2650029,-0.258065,-0.25011837,-0.2471537,-0.25311363,-0.26102966,-0.26102966,-0.25409168,-0.25011837,-0.252105,-0.25904298,-0.26200765,-0.26102966,-0.25904298,-0.2560783,-0.24914032,-0.23825961,-0.23031306,-0.23428637,-0.24021572,-0.23725104,-0.22337508,-0.20653445,-0.20158315,-0.21448106,-0.23327774,-0.24516702,-0.2422024,-0.23627299,-0.23627299,-0.23526442,-0.23428637,-0.22734839,-0.22239703,-0.21842378,-0.21545905,-0.21545905,-0.21050775,-0.19962704,-0.17483985,-0.1381939,-0.10451263,-0.09659666,-0.124317944,-0.15405655,-0.15503454,-0.119366646,-0.07184005,-0.049039423,-0.07480472,-0.13027793,-0.18969381,-0.23229969,-0.25506967,-0.26301628,-0.25904298,-0.25311363,-0.25011837,-0.25409168,-0.26102966,-0.2650029,-0.26301628,-0.25904298,-0.26301628,-0.273897,-0.27588362,-0.26894563,-0.2600516,-0.25311363,-0.2560783,-0.26102966,-0.25705636,-0.25311363,-0.252105,-0.23132163,-0.13620728,0.08269036,0.39373755,0.7127315,0.9157971,0.91084576,0.68497956,0.2699238,-0.20653445,-0.6166389,-0.8553723,-0.87618625,-0.73849654,-0.550285,-0.401684,-0.31252956,-0.26796764,-0.2422024,-0.22438365,-0.21545905,-0.21448106,-0.21249443,-0.21050775,-0.21050775,-0.20852113,-0.20259178,-0.19268906,-0.18376446,-0.18177783,-0.18871582,-0.18871582,-0.17881316,-0.1649372,-0.15405655,-0.15304792,-0.15702122,-0.15799922,-0.15601254,-0.15601254,-0.15106124,-0.14216715,-0.12532651,-0.11047256,-0.10552132,-0.10946399,-0.11047256,-0.10252601,-0.08965868,-0.08073413,-0.07975602,-0.07480472,-0.05995077,-0.04112345,-0.024282813,-0.01636684,-0.006433606,0.013371706,0.03910637,0.067836404,0.09262347,0.11738014,0.15699077,0.20751262,0.25705647,0.2996317,0.33432162,0.3590783,0.37989223,0.39572418,0.40862215,0.42741883,0.4502194,0.46705997,0.46705997,0.44725466,0.41158676,0.3680029,0.32044566,0.26099932,0.19265866,0.12330961,0.056955576,-0.0074421763,-0.07083142,-0.12926936,-0.17682648,-0.2114858,-0.23627299,-0.2600516,-0.29073763,-0.3145162,-0.32839215,-0.33533013,-0.3402815,-0.3472194,-0.35611343,-0.35810012,-0.3521707,-0.34621078,-0.34125948,-0.33731675,-0.33236545,-0.33135682,-0.33533013,-0.3432461,-0.35018408,-0.34422415,-0.3333435,-0.32441884,-0.32344085,-0.32542747,-0.32542747,-0.32542747,-0.32145417,-0.3184895,-0.31252956,-0.3026269,-0.2966975,-0.2966975,-0.30461353,-0.3066002,-0.30064023,-0.29272425,-0.29471087,-0.29966223,-0.30164886,-0.29174626,-0.2719103,-0.2560783,-0.25011837,-0.24816227,-0.25011837,-0.25506967,-0.26399434,-0.2719103,-0.273897,-0.266959,-0.2560783,-0.252105,-0.25705636,-0.26102966,-0.258065,-0.2560783,-0.25409168,-0.258065,-0.26102966,-0.258065,-0.252105,-0.25011837,-0.25409168,-0.2560783,-0.25409168,-0.24617565,-0.24516702,-0.24816227,-0.25311363,-0.251127,-0.24516702,-0.24122429,-0.2422024,-0.2471537,-0.25011837,-0.25409168,-0.2600516,-0.26200765,-0.26102966,-0.25311363,-0.24418902,-0.24418902,-0.2471537,-0.24816227,-0.24021572,-0.22933501,-0.22734839,-0.23132163,-0.23327774,-0.22933501,-0.21842378,-0.21249443,-0.2114858,-0.21347243,-0.2114858,-0.20754308,-0.21347243,-0.2263704,-0.23627299,-0.23428637,-0.22933501,-0.22536176,-0.22536176,-0.22337508,-0.21842378,-0.2095297,-0.20259178,-0.20555645,-0.20754308,-0.20259178,-0.20158315,-0.20259178,-0.21050775,-0.21842378,-0.21448106,-0.20653445,-0.19663179,-0.19168049,-0.18969381,-0.18575114,-0.18376446,-0.18871582,-0.19663179,-0.1956538,-0.1827864,-0.16692388,-0.1599859,-0.16295052,-0.15503454,-0.12532651,-0.08568537,-0.060928762,-0.061906815,-0.07679129,-0.087672055,-0.08568537,-0.07975602,-0.081742704,-0.09956133,-0.12926936,-0.16295052,-0.19861847,-0.22141904,-0.2263704,-0.21744573,-0.20356977,-0.19861847,-0.20653445,-0.21545905,-0.2204104,-0.22337508,-0.22438365,-0.23132163,-0.23627299,-0.23428637,-0.2263704,-0.21943241,-0.21448106,-0.21744573,-0.22337508,-0.23132163,-0.23327774,-0.2263704,-0.18177783,-0.056955516,0.15897739,0.4244541,0.6790502,0.8087933,0.75729334,0.5086572,0.10151756,-0.3402815,-0.6968993,-0.8791509,-0.86331886,-0.71175325,-0.5245197,-0.3699894,-0.273897,-0.23229969,-0.22536176,-0.23031306,-0.22832644,-0.21744573,-0.20158315,-0.19070244,-0.18672913,-0.18575114,-0.18177783,-0.18177783,-0.18079984,-0.1827864,-0.17483985,-0.15601254,-0.13721591,-0.12926936,-0.13620728,-0.14611,-0.15106124,-0.15503454,-0.15900779,-0.1599859,-0.15206987,-0.1342206,-0.11441529,-0.10451263,-0.10747731,-0.113437295,-0.10946399,-0.09659666,-0.08369869,-0.07679129,-0.07281804,-0.06588006,-0.049039423,-0.028225482,-0.0074421763,0.015358329,0.036141634,0.055947065,0.07180953,0.08865023,0.11539352,0.15500414,0.19861853,0.23725116,0.2669592,0.29272437,0.3234104,0.3581003,0.38679957,0.40960014,0.42842746,0.44624615,0.460122,0.45911336,0.44526803,0.42148948,0.3878082,0.34422433,0.29073775,0.2233752,0.15601277,0.093601584,0.031190395,-0.033207476,-0.094610035,-0.14415383,-0.18376446,-0.21943241,-0.25409168,-0.29073763,-0.31650287,-0.32640553,-0.32839215,-0.3343215,-0.3472194,-0.36008674,-0.36406004,-0.3610648,-0.35810012,-0.3610648,-0.36008674,-0.36008674,-0.35611343,-0.35018408,-0.34422415,-0.33731675,-0.32640553,-0.31748086,-0.3204761,-0.33135682,-0.3333435,-0.33037877,-0.32441884,-0.31946754,-0.32542747,-0.33037877,-0.32738352,-0.31650287,-0.30559158,-0.29966223,-0.30064023,-0.30064023,-0.29272425,-0.2828216,-0.273897,-0.26598096,-0.2560783,-0.24816227,-0.24418902,-0.24418902,-0.24418902,-0.24122429,-0.23627299,-0.23725104,-0.24418902,-0.25311363,-0.26102966,-0.26200765,-0.26102966,-0.2600516,-0.25311363,-0.2471537,-0.24516702,-0.24914032,-0.26200765,-0.26995426,-0.26598096,-0.25705636,-0.25409168,-0.25506967,-0.25705636,-0.2600516,-0.2600516,-0.26102966,-0.2650029,-0.26399434,-0.26102966,-0.25904298,-0.26399434,-0.27588362,-0.28679484,-0.28480828,-0.27490562,-0.26301628,-0.25506967,-0.251127,-0.25409168,-0.25705636,-0.26102966,-0.26598096,-0.266959,-0.26399434,-0.258065,-0.25506967,-0.252105,-0.24816227,-0.24321097,-0.24122429,-0.2471537,-0.25409168,-0.25705636,-0.251127,-0.2422024,-0.23923767,-0.24418902,-0.24816227,-0.24816227,-0.2471537,-0.24816227,-0.2560783,-0.25705636,-0.25011837,-0.23627299,-0.22438365,-0.22141904,-0.22536176,-0.23132163,-0.23526442,-0.23725104,-0.23825961,-0.23428637,-0.22438365,-0.21943241,-0.22239703,-0.23428637,-0.24321097,-0.23923767,-0.22337508,-0.20653445,-0.19663179,-0.19464517,-0.19962704,-0.20259178,-0.19764042,-0.18177783,-0.15304792,-0.12532651,-0.112428725,-0.11640197,-0.124317944,-0.11640197,-0.09363192,-0.07480472,-0.08369869,-0.12926936,-0.18177783,-0.22337508,-0.24816227,-0.2560783,-0.25506967,-0.25311363,-0.24321097,-0.23132163,-0.23031306,-0.24122429,-0.2560783,-0.26598096,-0.27490562,-0.27588362,-0.27291888,-0.26399434,-0.24418902,-0.22536176,-0.21744573,-0.22141904,-0.23031306,-0.23923767,-0.24021572,-0.2164371,-0.12532651,0.081712365,0.38184822,0.70182014,0.91876173,0.9326377,0.72856355,0.32738364,-0.14910513,-0.5730549,-0.8385317,-0.8890536,-0.7573238,-0.55324966,-0.38585198,-0.28975958,-0.258065,-0.251127,-0.23627299,-0.21943241,-0.20653445,-0.19764042,-0.19464517,-0.19268906,-0.19268906,-0.19268906,-0.18969381,-0.18177783,-0.17386186,-0.17386186,-0.18177783,-0.1827864,-0.17780459,-0.16594577,-0.15900779,-0.16197252,-0.16790187,-0.16790187,-0.1649372,-0.1639592,-0.16692388,-0.16594577,-0.15503454,-0.1381939,-0.12532651,-0.11737996,-0.11441529,-0.108486,-0.101548016,-0.09858334,-0.09558809,-0.0827207,-0.062915385,-0.04011488,-0.02229619,-0.013371527,-0.0014823079,0.018323064,0.04705298,0.077739,0.10252619,0.13816357,0.18373406,0.23327792,0.27982652,0.31748104,0.34621096,0.37591887,0.4046489,0.42644072,0.43930817,0.44725466,0.45416224,0.45517075,0.4412948,0.40960014,0.36601627,0.3145163,0.2510965,0.17979133,0.09855282,0.020309687,-0.042101443,-0.09164536,-0.13721591,-0.18079984,-0.2263704,-0.26102966,-0.28679484,-0.3066002,-0.32441884,-0.3422681,-0.3541574,-0.36207336,-0.36702472,-0.37099802,-0.37099802,-0.3660161,-0.35810012,-0.35611343,-0.3650381,-0.37594932,-0.38585198,-0.38585198,-0.37989205,-0.3660161,-0.35116214,-0.33630812,-0.32640553,-0.32839215,-0.33731675,-0.34422415,-0.34523273,-0.34125948,-0.33533013,-0.33037877,-0.32145417,-0.3066002,-0.29471087,-0.29073763,-0.2966975,-0.30363548,-0.30559158,-0.29272425,-0.28379965,-0.27689224,-0.2719103,-0.27291888,-0.26796764,-0.266959,-0.266959,-0.26301628,-0.25705636,-0.252105,-0.251127,-0.25705636,-0.2600516,-0.2600516,-0.25311363,-0.2471537,-0.24516702,-0.23923767,-0.23327774,-0.23327774,-0.23725104,-0.24516702,-0.2471537,-0.24516702,-0.2422024,-0.24816227,-0.25904298,-0.26796764,-0.26995426,-0.266959,-0.26598096,-0.2719103,-0.27291888,-0.266959,-0.258065,-0.25311363,-0.25409168,-0.2600516,-0.26102966,-0.25409168,-0.24914032,-0.2471537,-0.24516702,-0.24617565,-0.2471537,-0.251127,-0.258065,-0.258065,-0.24816227,-0.24021572,-0.24122429,-0.25011837,-0.25705636,-0.25409168,-0.24321097,-0.23725104,-0.23923767,-0.24516702,-0.24516702,-0.23825961,-0.23725104,-0.24122429,-0.23923767,-0.23526442,-0.22438365,-0.21842378,-0.21943241,-0.22239703,-0.2164371,-0.21050775,-0.2095297,-0.2164371,-0.22239703,-0.22438365,-0.2204104,-0.21842378,-0.22141904,-0.22536176,-0.2204104,-0.2114858,-0.20852113,-0.21249443,-0.21744573,-0.21943241,-0.21448106,-0.21249443,-0.2204104,-0.21943241,-0.2114858,-0.19962704,-0.18871582,-0.18672913,-0.18773782,-0.1827864,-0.17584842,-0.17780459,-0.1827864,-0.17285317,-0.14216715,-0.10252601,-0.08369869,-0.09363192,-0.11145061,-0.11441529,-0.094610035,-0.07480472,-0.075782716,-0.10747731,-0.15799922,-0.20555645,-0.24021572,-0.25506967,-0.252105,-0.2422024,-0.23132163,-0.22933501,-0.23132163,-0.23031306,-0.22734839,-0.22536176,-0.23229969,-0.24516702,-0.258065,-0.26200765,-0.26200765,-0.2600516,-0.258065,-0.252105,-0.24122429,-0.22933501,-0.2204104,-0.2164371,-0.17682648,-0.04506612,0.17979133,0.4502194,0.6889529,0.7899965,0.70182014,0.42741883,0.015358329,-0.41259527,-0.7503858,-0.90589416,-0.8682702,-0.7018506,-0.50670105,-0.3541574,-0.2650029,-0.23031306,-0.22933501,-0.23031306,-0.22239703,-0.20653445,-0.19168049,-0.18376446,-0.18079984,-0.17780459,-0.17187518,-0.1639592,-0.1599859,-0.16197252,-0.16096395,-0.15601254,-0.15106124,-0.15304792,-0.15702122,-0.15503454,-0.14115858,-0.12233138,-0.112428725,-0.11542398,-0.12233138,-0.12532651,-0.120375276,-0.113437295,-0.11145061,-0.10946399,-0.10053933,-0.08568537,-0.07184005,-0.0638935,-0.056955516,-0.04705286,-0.03418547,-0.023274243,-0.015358269,-0.008420289,0.0064337254,0.02822566,0.05399096,0.08073425,0.11441553,0.15699077,0.204548,0.24715376,0.2788484,0.3065697,0.33630824,0.3680029,0.39572418,0.4175161,0.4343568,0.44921076,0.46308672,0.47201133,0.46705997,0.44823277,0.4145515,0.36402965,0.29767573,0.2233752,0.15601277,0.09757483,0.04604435,-0.0054555535,-0.0638935,-0.12233138,-0.17584842,-0.22438365,-0.26598096,-0.29767555,-0.31552482,-0.3184895,-0.31650287,-0.3184895,-0.32937014,-0.33731675,-0.3382948,-0.3343215,-0.33533013,-0.33731675,-0.34422415,-0.3472194,-0.33630812,-0.32937014,-0.32243222,-0.31650287,-0.31552482,-0.31650287,-0.32145417,-0.32937014,-0.33037877,-0.32344085,-0.31054288,-0.30164886,-0.30164886,-0.30559158,-0.30858684,-0.30559158,-0.3026269,-0.29868418,-0.29568893,-0.28975958,-0.28184354,-0.2808349,-0.28679484,-0.28379965,-0.27588362,-0.2650029,-0.25311363,-0.25311363,-0.25311363,-0.2471537,-0.23923767,-0.23825961,-0.24914032,-0.2600516,-0.26399434,-0.258065,-0.24914032,-0.24418902,-0.23923767,-0.23526442,-0.22734839,-0.22141904,-0.2263704,-0.23428637,-0.24021572,-0.24516702,-0.24914032,-0.25409168,-0.2560783,-0.25011837,-0.23923767,-0.23327774,-0.23031306,-0.22933501,-0.22536176,-0.22337508,-0.22832644,-0.23923767,-0.24914032,-0.25011837,-0.2422024,-0.23428637,-0.22933501,-0.22536176,-0.2204104,-0.2204104,-0.22536176,-0.23627299,-0.24816227,-0.25409168,-0.25311363,-0.25011837,-0.24617565,-0.24021572,-0.23526442,-0.23526442,-0.23825961,-0.23825961,-0.23428637,-0.22337508,-0.21448106,-0.21842378,-0.23229969,-0.2422024,-0.24122429,-0.23428637,-0.23327774,-0.23229969,-0.23428637,-0.23229969,-0.22536176,-0.22536176,-0.23327774,-0.24122429,-0.24122429,-0.23825961,-0.23627299,-0.23526442,-0.22933501,-0.21050775,-0.18969381,-0.17780459,-0.18177783,-0.18773782,-0.1827864,-0.1599859,-0.13125592,-0.10946399,-0.10451263,-0.10747731,-0.108486,-0.101548016,-0.09164536,-0.081742704,-0.08073413,-0.101548016,-0.14216715,-0.18773782,-0.22536176,-0.23923767,-0.23627299,-0.2263704,-0.22438365,-0.22832644,-0.23428637,-0.23923767,-0.2422024,-0.24321097,-0.24418902,-0.2422024,-0.24516702,-0.25506967,-0.26598096,-0.26995426,-0.26200765,-0.24516702,-0.23428637,-0.23428637,-0.24021572,-0.23428637,-0.18474251,-0.04011488,0.20653462,0.5126306,0.7860234,0.90488577,0.8068373,0.4858873,0.031190395,-0.41555995,-0.7394746,-0.8682702,-0.8068371,-0.6344881,-0.45617914,-0.33236545,-0.27490562,-0.25904298,-0.24914032,-0.23229969,-0.21347243,-0.2045784,-0.20754308,-0.21050775,-0.20259178,-0.18871582,-0.17584842,-0.1698885,-0.1698885,-0.1689105,-0.16790187,-0.1689105,-0.17483985,-0.17979115,-0.17682648,-0.1698885,-0.16295052,-0.16096395,-0.16096395,-0.15799922,-0.15601254,-0.15206987,-0.14711857,-0.13721591,-0.12233138,-0.10946399,-0.10747731,-0.113437295,-0.119366646,-0.11145061,-0.09558809,-0.08073413,-0.06786674,-0.057964087,-0.046074808,-0.028225482,-0.010406852,0.0024603605,0.020309687,0.04210162,0.07676089,0.11637163,0.15601277,0.19363678,0.23327792,0.27288854,0.30360508,0.331357,0.35611367,0.38979483,0.42148948,0.44227278,0.44725466,0.43930817,0.42842746,0.4135735,0.37989223,0.326375,0.25705647,0.18275607,0.11441553,0.049039602,-0.013371527,-0.069853306,-0.120375276,-0.16790187,-0.21842378,-0.266959,-0.30559158,-0.32937014,-0.3402815,-0.3491755,-0.3610648,-0.37197608,-0.37295407,-0.3660161,-0.3610648,-0.36008674,-0.3591087,-0.35513544,-0.35018408,-0.3521707,-0.3610648,-0.36702472,-0.3650381,-0.35810012,-0.3541574,-0.3591087,-0.3660161,-0.36406004,-0.35314876,-0.34621078,-0.3472194,-0.35116214,-0.35611343,-0.3521707,-0.34422415,-0.33731675,-0.32542747,-0.31252956,-0.30559158,-0.3026269,-0.3095649,-0.31552482,-0.31353813,-0.30363548,-0.2966975,-0.29174626,-0.28875095,-0.28480828,-0.27490562,-0.266959,-0.2650029,-0.26399434,-0.26399434,-0.25705636,-0.25011837,-0.24914032,-0.24816227,-0.2471537,-0.2471537,-0.25011837,-0.258065,-0.266959,-0.27093232,-0.2719103,-0.26894563,-0.26796764,-0.2650029,-0.25705636,-0.251127,-0.2600516,-0.27093232,-0.27985686,-0.2778703,-0.26598096,-0.26102966,-0.26598096,-0.266959,-0.26301628,-0.25311363,-0.24617565,-0.25011837,-0.26102966,-0.26598096,-0.26598096,-0.26598096,-0.26894563,-0.27093232,-0.26894563,-0.26102966,-0.25506967,-0.25311363,-0.251127,-0.2471537,-0.2422024,-0.24418902,-0.251127,-0.25409168,-0.24816227,-0.23526442,-0.23031306,-0.23627299,-0.24816227,-0.25011837,-0.24418902,-0.23327774,-0.2263704,-0.22734839,-0.23132163,-0.23526442,-0.24021572,-0.24418902,-0.24021572,-0.23031306,-0.2263704,-0.22832644,-0.23923767,-0.2471537,-0.2422024,-0.23132163,-0.22438365,-0.22438365,-0.22832644,-0.22438365,-0.21448106,-0.20555645,-0.2045784,-0.2045784,-0.2045784,-0.19861847,-0.19168049,-0.17979115,-0.15702122,-0.124317944,-0.101548016,-0.09659666,-0.10552132,-0.11047256,-0.10053933,-0.0827207,-0.0777694,-0.10353464,-0.15304792,-0.20158315,-0.24021572,-0.2560783,-0.258065,-0.24516702,-0.23132163,-0.22536176,-0.22933501,-0.23923767,-0.24914032,-0.24914032,-0.24617565,-0.2471537,-0.25311363,-0.25506967,-0.251127,-0.24617565,-0.24321097,-0.24321097,-0.24321097,-0.24122429,-0.23229969,-0.2263704,-0.19070244,-0.06786674,0.17383134,0.48983002,0.7899965,0.9435184,0.8801291,0.60077643,0.16295075,-0.29868418,-0.6701255,-0.85735893,-0.835567,-0.6731207,-0.4839005,-0.35018408,-0.28379965,-0.25904298,-0.24617565,-0.23229969,-0.22337508,-0.22141904,-0.22141904,-0.21545905,-0.20158315,-0.18672913,-0.17187518,-0.16096395,-0.15900779,-0.16197252,-0.16594577,-0.1649372,-0.15799922,-0.15106124,-0.15206987,-0.15900779,-0.15900779,-0.14513189,-0.12630463,-0.113437295,-0.113437295,-0.124317944,-0.12532651,-0.119366646,-0.10946399,-0.10252601,-0.09558809,-0.08369869,-0.06688875,-0.05399078,-0.049039423,-0.043110132,-0.030212224,-0.009428859,0.011385083,0.02822566,0.03910637,0.055947065,0.07676089,0.09855282,0.1223315,0.15402603,0.19464529,0.23920727,0.2768618,0.31054306,0.3432157,0.38087022,0.41950285,0.44921076,0.46705997,0.48289204,0.49875462,0.5076792,0.497746,0.46803808,0.43139207,0.38979483,0.3432157,0.28379977,0.20357001,0.11441553,0.032199025,-0.03617215,-0.09659666,-0.14415383,-0.17682648,-0.19861847,-0.21744573,-0.24021572,-0.27291888,-0.3026269,-0.31946754,-0.32640553,-0.33135682,-0.33731675,-0.3422681,-0.34621078,-0.3432461,-0.34125948,-0.3402815,-0.3382948,-0.32839215,-0.32145417,-0.31946754,-0.32145417,-0.32441884,-0.3204761,-0.31353813,-0.30858684,-0.3095649,-0.3095649,-0.30164886,-0.29073763,-0.28379965,-0.2828216,-0.28679484,-0.28975958,-0.28679484,-0.28578627,-0.28578627,-0.28875095,-0.28975958,-0.28480828,-0.2808349,-0.2788483,-0.26995426,-0.25904298,-0.25409168,-0.25409168,-0.25506967,-0.25409168,-0.24418902,-0.23327774,-0.23327774,-0.24516702,-0.258065,-0.26301628,-0.2600516,-0.2560783,-0.25311363,-0.25011837,-0.24321097,-0.23923767,-0.24122429,-0.24816227,-0.25409168,-0.24816227,-0.23627299,-0.22734839,-0.23132163,-0.24122429,-0.24617565,-0.2471537,-0.24617565,-0.25311363,-0.25506967,-0.24914032,-0.23725104,-0.22734839,-0.22933501,-0.23923767,-0.2471537,-0.251127,-0.25311363,-0.258065,-0.26301628,-0.26301628,-0.25311363,-0.2422024,-0.23428637,-0.23031306,-0.23031306,-0.23229969,-0.23526442,-0.23725104,-0.23526442,-0.22536176,-0.21744573,-0.2164371,-0.2263704,-0.23526442,-0.23428637,-0.22734839,-0.22438365,-0.22832644,-0.23725104,-0.2422024,-0.24021572,-0.23725104,-0.23627299,-0.23923767,-0.23725104,-0.23031306,-0.22734839,-0.23428637,-0.24021572,-0.23825961,-0.23031306,-0.21943241,-0.2114858,-0.2095297,-0.21050775,-0.20754308,-0.20852113,-0.21347243,-0.21842378,-0.20852113,-0.19366717,-0.1827864,-0.17682648,-0.1689105,-0.15008324,-0.11838859,-0.09063667,-0.087672055,-0.101548016,-0.11145061,-0.10552132,-0.09063667,-0.07975602,-0.08965868,-0.12135327,-0.1599859,-0.19764042,-0.22933501,-0.24816227,-0.24816227,-0.23923767,-0.23132163,-0.23132163,-0.24021572,-0.251127,-0.26102966,-0.2650029,-0.2650029,-0.2600516,-0.25409168,-0.24914032,-0.2471537,-0.25011837,-0.25011837,-0.24122429,-0.23428637,-0.23428637,-0.23428637,-0.2164371,-0.13620728,0.04705298,0.30458307,0.57403314,0.76621807,0.79393935,0.6344577,0.2867645,-0.15304792,-0.56712556,-0.84449166,-0.9197701,-0.8177483,-0.6265415,-0.44428986,-0.31946754,-0.2560783,-0.23428637,-0.2263704,-0.21448106,-0.19464517,-0.17386186,-0.1639592,-0.1639592,-0.1639592,-0.15900779,-0.15106124,-0.14115858,-0.1342206,-0.1332426,-0.12630463,-0.120375276,-0.12135327,-0.13027793,-0.13620728,-0.13522923,-0.12829125,-0.119366646,-0.11047256,-0.101548016,-0.08470738,-0.069853306,-0.06490207,-0.07083142,-0.075782716,-0.07281804,-0.060928762,-0.050048113,-0.04806143,-0.044088125,-0.031220794,-0.012393534,0.0044471025,0.015358329,0.024252415,0.040115,0.061906934,0.08467686,0.1054908,0.12926948,0.16096401,0.19861853,0.2312913,0.26497245,0.3026271,0.35015368,0.40266216,0.44031668,0.45911336,0.46507335,0.47399795,0.4878434,0.49875462,0.49478137,0.4789493,0.44823277,0.41158676,0.36305153,0.30064046,0.23327792,0.167902,0.10350418,0.03516364,-0.03418547,-0.10053933,-0.15304792,-0.18871582,-0.22832644,-0.26200765,-0.2877729,-0.30559158,-0.3115515,-0.3184895,-0.33135682,-0.3432461,-0.34523273,-0.3382948,-0.33236545,-0.33037877,-0.32937014,-0.32542747,-0.3204761,-0.32344085,-0.33037877,-0.33533013,-0.32738352,-0.31252956,-0.29966223,-0.29767555,-0.3026269,-0.30461353,-0.3026269,-0.30363548,-0.3026269,-0.30363548,-0.29373282,-0.27689224,-0.2650029,-0.26200765,-0.26301628,-0.2650029,-0.2650029,-0.26399434,-0.26796764,-0.26598096,-0.25506967,-0.24021572,-0.23229969,-0.23327774,-0.23923767,-0.2422024,-0.23923767,-0.23627299,-0.23627299,-0.23526442,-0.2263704,-0.21347243,-0.2114858,-0.21943241,-0.23327774,-0.24617565,-0.25011837,-0.24516702,-0.23923767,-0.23327774,-0.22536176,-0.21943241,-0.2204104,-0.22832644,-0.23923767,-0.24617565,-0.24816227,-0.24914032,-0.25311363,-0.25409168,-0.25311363,-0.2471537,-0.24617565,-0.24914032,-0.25311363,-0.25311363,-0.24516702,-0.23923767,-0.2422024,-0.24816227,-0.25311363,-0.24914032,-0.24321097,-0.23825961,-0.23428637,-0.23132163,-0.23031306,-0.23526442,-0.24617565,-0.25311363,-0.25311363,-0.24816227,-0.2471537,-0.251127,-0.251127,-0.24321097,-0.22933501,-0.22239703,-0.22832644,-0.23923767,-0.24321097,-0.23923767,-0.23229969,-0.22734839,-0.22141904,-0.21448106,-0.21050775,-0.21448106,-0.22337508,-0.22832644,-0.22536176,-0.21448106,-0.21050775,-0.2095297,-0.2114858,-0.20653445,-0.19366717,-0.17483985,-0.15304792,-0.13027793,-0.11640197,-0.11640197,-0.12829125,-0.13721591,-0.13125592,-0.10946399,-0.088680685,-0.09363192,-0.12926936,-0.17584842,-0.21545905,-0.23526442,-0.2422024,-0.2422024,-0.24321097,-0.23923767,-0.23229969,-0.2263704,-0.22832644,-0.23627299,-0.24516702,-0.252105,-0.25904298,-0.26102966,-0.25705636,-0.24418902,-0.23031306,-0.2263704,-0.23229969,-0.2422024,-0.24516702,-0.23327774,-0.18672913,-0.05399078,0.18474269,0.48885202,0.7701608,0.8949832,0.8068373,0.5086572,0.06982291,-0.37295407,-0.715696,-0.8791509,-0.84348303,-0.6751073,-0.4779712,-0.33236545,-0.258065,-0.23725104,-0.22933501,-0.21943241,-0.21050775,-0.20754308,-0.20754308,-0.20356977,-0.19268906,-0.18376446,-0.17682648,-0.17682648,-0.17682648,-0.17584842,-0.17285317,-0.17187518,-0.16790187,-0.1599859,-0.15405655,-0.15601254,-0.1639592,-0.16692388,-0.1599859,-0.14910513,-0.14314526,-0.14513189,-0.14910513,-0.14809656,-0.14018059,-0.13125592,-0.12630463,-0.12233138,-0.11145061,-0.09659666,-0.07975602,-0.068844736,-0.056955516,-0.042101443,-0.024282813,-0.012393534,0.0054250956,0.026239038,0.05992031,0.100539565,0.13519883,0.1579994,0.18474269,0.21741533,0.25705647,0.29272437,0.3234104,0.34718895,0.37591887,0.40960014,0.4343568,0.4432814,0.44624615,0.4432814,0.44031668,0.42741883,0.39771092,0.3511623,0.2966671,0.23725116,0.16591537,0.08865023,0.022265792,-0.03418547,-0.08073413,-0.12333995,-0.17285317,-0.22337508,-0.2600516,-0.28480828,-0.30461353,-0.3204761,-0.33236545,-0.33236545,-0.32937014,-0.33135682,-0.3402815,-0.3491755,-0.35116214,-0.34422415,-0.33533013,-0.33533013,-0.33236545,-0.32441884,-0.3145162,-0.30757827,-0.31054288,-0.31946754,-0.3184895,-0.30858684,-0.29966223,-0.2966975,-0.30064023,-0.3066002,-0.3115515,-0.3095649,-0.30858684,-0.30164886,-0.28480828,-0.26598096,-0.258065,-0.26102966,-0.26995426,-0.2719103,-0.2650029,-0.25506967,-0.2471537,-0.24321097,-0.23825961,-0.23526442,-0.23923767,-0.24816227,-0.2600516,-0.25904298,-0.2422024,-0.22337508,-0.20852113,-0.20356977,-0.20754308,-0.21249443,-0.2204104,-0.22734839,-0.22933501,-0.22337508,-0.21943241,-0.2204104,-0.22832644,-0.23627299,-0.24021572,-0.23627299,-0.22734839,-0.22734839,-0.22438365,-0.22239703,-0.21842378,-0.21842378,-0.22239703,-0.22734839,-0.23229969,-0.23132163,-0.22438365,-0.21943241,-0.21050775,-0.20259178,-0.1956538,-0.19663179,-0.20653445,-0.21842378,-0.2263704,-0.23031306,-0.22832644,-0.2263704,-0.22438365,-0.21842378,-0.21545905,-0.21448106,-0.21943241,-0.22141904,-0.21545905,-0.20754308,-0.20158315,-0.2045784,-0.21347243,-0.21943241,-0.22141904,-0.21943241,-0.21744573,-0.21249443,-0.20653445,-0.20555645,-0.21347243,-0.22536176,-0.23031306,-0.2263704,-0.21448106,-0.2095297,-0.21249443,-0.21842378,-0.21744573,-0.20852113,-0.20356977,-0.20555645,-0.2095297,-0.20754308,-0.19861847,-0.19070244,-0.18871582,-0.19070244,-0.18969381,-0.18474251,-0.18079984,-0.18474251,-0.1827864,-0.16197252,-0.12233138,-0.08568537,-0.068844736,-0.075782716,-0.08965868,-0.09164536,-0.08568537,-0.07874745,-0.08568537,-0.11542398,-0.15503454,-0.1956538,-0.22734839,-0.23825961,-0.23428637,-0.22438365,-0.21842378,-0.22337508,-0.23229969,-0.23923767,-0.24418902,-0.24914032,-0.251127,-0.24914032,-0.24021572,-0.23132163,-0.22734839,-0.23132163,-0.23825961,-0.23031306,-0.21448106,-0.20259178,-0.2006051,-0.18969381,-0.11640197,0.077739,0.3699895,0.6889529,0.91478837,0.94947815,0.76719606,0.38285685,-0.09262335,-0.521555,-0.7929611,-0.850421,-0.73058057,-0.5403823,-0.37692738,-0.2778703,-0.23627299,-0.22734839,-0.2263704,-0.21943241,-0.20555645,-0.18871582,-0.17979115,-0.17682648,-0.17584842,-0.17187518,-0.1639592,-0.15900779,-0.16295052,-0.16790187,-0.17089719,-0.17187518,-0.1639592,-0.15702122,-0.14910513,-0.13620728,-0.1273132,-0.12630463,-0.1322645,-0.13721591,-0.13522923,-0.12630463,-0.12135327,-0.120375276,-0.12135327,-0.119366646,-0.112428725,-0.10451263,-0.094610035,-0.08470738,-0.07083142,-0.05399078,-0.042101443,-0.03617215,-0.02923417,-0.009428859,0.017314434,0.045066357,0.07180953,0.100539565,0.13519883,0.17184484,0.20256126,0.23327792,0.26399446,0.30458307,0.3491757,0.38383496,0.40663552,0.4244541,0.44526803,0.46605134,0.47497606,0.4690467,0.4502194,0.42246747,0.3788836,0.32441902,0.25604784,0.18672931,0.1322341,0.07874751,0.018323064,-0.04806143,-0.11145061,-0.1599859,-0.19070244,-0.2204104,-0.258065,-0.29272425,-0.31748086,-0.32640553,-0.32937014,-0.33533013,-0.33927286,-0.3382948,-0.33630812,-0.33731675,-0.34819746,-0.3591087,-0.3591087,-0.34819746,-0.33731675,-0.3343215,-0.3422681,-0.35116214,-0.3472194,-0.33731675,-0.32344085,-0.31054288,-0.30164886,-0.29966223,-0.3066002,-0.31552482,-0.3204761,-0.31252956,-0.29868418,-0.28679484,-0.28480828,-0.28679484,-0.2877729,-0.27985686,-0.2719103,-0.2719103,-0.27689224,-0.27985686,-0.27490562,-0.266959,-0.26301628,-0.25904298,-0.258065,-0.26102966,-0.26200765,-0.26598096,-0.2650029,-0.25311363,-0.23327774,-0.22438365,-0.22933501,-0.24122429,-0.252105,-0.25506967,-0.25311363,-0.25409168,-0.258065,-0.2600516,-0.25506967,-0.251127,-0.25011837,-0.252105,-0.25311363,-0.25011837,-0.25011837,-0.25011837,-0.25011837,-0.2471537,-0.23526442,-0.22832644,-0.22832644,-0.23031306,-0.22832644,-0.22438365,-0.22536176,-0.23428637,-0.24816227,-0.251127,-0.24516702,-0.23825961,-0.23627299,-0.2422024,-0.2471537,-0.2471537,-0.2422024,-0.24021572,-0.2422024,-0.23923767,-0.23031306,-0.22734839,-0.23132163,-0.24321097,-0.25506967,-0.25506967,-0.251127,-0.24816227,-0.25011837,-0.25409168,-0.25506967,-0.25011837,-0.24914032,-0.2422024,-0.23229969,-0.21943241,-0.2095297,-0.20754308,-0.21448106,-0.22337508,-0.22832644,-0.22933501,-0.23327774,-0.23627299,-0.23229969,-0.22438365,-0.21842378,-0.21943241,-0.22141904,-0.21842378,-0.21050775,-0.2045784,-0.20754308,-0.21347243,-0.21347243,-0.20653445,-0.19464517,-0.18575114,-0.17285317,-0.14809656,-0.120375276,-0.10451263,-0.106499314,-0.11737996,-0.11640197,-0.09757465,-0.07874745,-0.07679129,-0.10451263,-0.14711857,-0.18969381,-0.2263704,-0.24617565,-0.251127,-0.24617565,-0.23627299,-0.23327774,-0.23725104,-0.24122429,-0.23923767,-0.23031306,-0.22933501,-0.23923767,-0.25311363,-0.25904298,-0.25904298,-0.2560783,-0.24914032,-0.24617565,-0.23428637,-0.2164371,-0.20555645,-0.19366717,-0.13917202,0.0074118376,0.23327792,0.4878434,0.68497956,0.73055017,0.60276306,0.3065697,-0.09956133,-0.5056925,-0.81178844,-0.9296728,-0.85833704,-0.6800586,-0.4878738,-0.35018408,-0.27490562,-0.24021572,-0.2263704,-0.2164371,-0.2095297,-0.2006051,-0.19663179,-0.19464517,-0.18969381,-0.17682648,-0.15503454,-0.1342206,-0.12926936,-0.14314526,-0.15799922,-0.16295052,-0.15405655,-0.14611,-0.14513189,-0.15304792,-0.15799922,-0.15601254,-0.15405655,-0.15304792,-0.15106124,-0.14216715,-0.12829125,-0.11737996,-0.112428725,-0.11145061,-0.10451263,-0.09262335,-0.0827207,-0.08073413,-0.0777694,-0.068844736,-0.05499941,-0.035163462,-0.017344832,0.0024603605,0.02721715,0.055947065,0.07874751,0.09558821,0.11044216,0.13620746,0.17086673,0.20949924,0.24614525,0.28181314,0.32044566,0.3590783,0.38979483,0.40862215,0.4155295,0.42644072,0.43930817,0.44526803,0.43930817,0.41653812,0.37989223,0.33034837,0.2709018,0.19663203,0.11637163,0.049039602,-0.0044775605,-0.04806143,-0.088680685,-0.13620728,-0.18773782,-0.23627299,-0.27588362,-0.3066002,-0.32441884,-0.3343215,-0.3402815,-0.35018408,-0.3610648,-0.37099802,-0.37197608,-0.3660161,-0.3610648,-0.36008674,-0.36207336,-0.3630514,-0.3610648,-0.36406004,-0.36406004,-0.36406004,-0.3521707,-0.33533013,-0.32937014,-0.3333435,-0.3432461,-0.34819746,-0.3382948,-0.32344085,-0.31252956,-0.3066002,-0.30164886,-0.29868418,-0.29868418,-0.29868418,-0.29767555,-0.29174626,-0.28578627,-0.28379965,-0.28480828,-0.28379965,-0.26995426,-0.25506967,-0.251127,-0.25705636,-0.27093232,-0.27291888,-0.26399434,-0.252105,-0.24816227,-0.24914032,-0.25409168,-0.25705636,-0.26102966,-0.26796764,-0.26796764,-0.26102966,-0.24914032,-0.2422024,-0.24914032,-0.2600516,-0.26598096,-0.26200765,-0.25705636,-0.2600516,-0.2650029,-0.26598096,-0.25904298,-0.25311363,-0.25506967,-0.26399434,-0.27291888,-0.27689224,-0.26894563,-0.26102966,-0.25506967,-0.251127,-0.24816227,-0.25409168,-0.2600516,-0.2600516,-0.26200765,-0.26200765,-0.2600516,-0.26102966,-0.258065,-0.24617565,-0.23526442,-0.23327774,-0.24122429,-0.2560783,-0.2650029,-0.26102966,-0.252105,-0.24321097,-0.23825961,-0.23627299,-0.23923767,-0.2471537,-0.25705636,-0.26102966,-0.2560783,-0.24816227,-0.2422024,-0.24816227,-0.2560783,-0.25904298,-0.25409168,-0.25011837,-0.24516702,-0.23725104,-0.2263704,-0.21545905,-0.2114858,-0.2164371,-0.22438365,-0.2204104,-0.19861847,-0.17386186,-0.15106124,-0.14513189,-0.15106124,-0.15206987,-0.15008324,-0.14314526,-0.1381939,-0.14216715,-0.17089719,-0.21249443,-0.2560783,-0.29174626,-0.30164886,-0.29471087,-0.28679484,-0.28480828,-0.29272425,-0.29373282,-0.29272425,-0.29373282,-0.30064023,-0.31252956,-0.32243222,-0.32344085,-0.32243222,-0.32145417,-0.31650287,-0.3095649,-0.30363548,-0.30363548,-0.3095649,-0.3145162,-0.28875095,-0.18969381,0.014349818,0.2996317,0.60178506,0.8078153,0.825634,0.623577,0.22138858,-0.252105,-0.6592447,-0.89696956,-0.9286947,-0.7959564,-0.60474956,-0.4413252,-0.3402815,-0.30164886,-0.2966975,-0.29868418,-0.29073763,-0.27291888,-0.258065,-0.251127,-0.24816227,-0.2422024,-0.23327774,-0.22239703,-0.2164371,-0.21249443,-0.20754308,-0.20356977,-0.20158315,-0.20356977,-0.20259178,-0.19663179,-0.18672913,-0.18079984,-0.1827864,-0.18575114,-0.18079984,-0.17386186,-0.16594577,-0.1639592,-0.1599859,-0.14910513,-0.13125592,-0.11542398,-0.10946399,-0.10946399,-0.10451263,-0.094610035,-0.081742704,-0.07480472,-0.0638935,-0.046074808,-0.021318078,0.0044471025,0.024252415,0.04803109,0.077739,0.11441553,0.14510155,0.17581809,0.20852125,0.2510965,0.3026271,0.34621096,0.37194562,0.38979483,0.40663552,0.42842746,0.4442594,0.44823277,0.43732142,0.41852474,0.39178145,0.3511623,0.29468048,0.22731805,0.16096401,0.099530816,0.03910637,-0.025260925,-0.09063667,-0.14216715,-0.17979115,-0.21050775,-0.23327774,-0.2560783,-0.27689224,-0.29272425,-0.31054288,-0.3333435,-0.35018408,-0.35513544,-0.3491755,-0.34422415,-0.34523273,-0.35314876,-0.35611343,-0.35018408,-0.3432461,-0.33927286,-0.33731675,-0.3333435,-0.32542747,-0.32344085,-0.32738352,-0.3333435,-0.33533013,-0.32542747,-0.31054288,-0.3066002,-0.30757827,-0.3095649,-0.3115515,-0.3115515,-0.3115515,-0.3115515,-0.30757827,-0.30164886,-0.30164886,-0.30858684,-0.31252956,-0.30559158,-0.28975958,-0.2719103,-0.26598096,-0.26894563,-0.2719103,-0.26995426,-0.26598096,-0.2650029,-0.26399434,-0.26102966,-0.25011837,-0.24321097,-0.23923767,-0.24321097,-0.2471537,-0.24914032,-0.252105,-0.26200765,-0.273897,-0.2808349,-0.2808349,-0.27985686,-0.27985686,-0.2788483,-0.266959,-0.251127,-0.2422024,-0.24418902,-0.25705636,-0.26894563,-0.26995426,-0.26796764,-0.26995426,-0.26995426,-0.26200765,-0.24914032,-0.23923767,-0.24021572,-0.24914032,-0.2560783,-0.258065,-0.2560783,-0.258065,-0.2600516,-0.25506967,-0.24816227,-0.24516702,-0.251127,-0.26102966,-0.26894563,-0.26399434,-0.2560783,-0.25011837,-0.24617565,-0.24914032,-0.25506967,-0.2600516,-0.26301628,-0.26301628,-0.2560783,-0.2422024,-0.23825961,-0.2422024,-0.24914032,-0.25409168,-0.25011837,-0.2422024,-0.24122429,-0.24418902,-0.24914032,-0.24914032,-0.24516702,-0.2422024,-0.24021572,-0.23526442,-0.22832644,-0.2204104,-0.21545905,-0.20754308,-0.1827864,-0.14809656,-0.12532651,-0.12333995,-0.1342206,-0.14115858,-0.13125592,-0.11047256,-0.10053933,-0.112428725,-0.15106124,-0.19366717,-0.23627299,-0.27093232,-0.28379965,-0.2788483,-0.266959,-0.26102966,-0.2650029,-0.27291888,-0.2788483,-0.27291888,-0.266959,-0.26796764,-0.2719103,-0.27689224,-0.27985686,-0.28184354,-0.28480828,-0.2877729,-0.27985686,-0.2650029,-0.251127,-0.2422024,-0.22438365,-0.15008324,0.029203653,0.2956891,0.5789845,0.7830585,0.8167399,0.65527165,0.30161846,-0.15206987,-0.5810015,-0.8712349,-0.9534514,-0.84944296,-0.6542934,-0.46806848,-0.3432461,-0.27588362,-0.25311363,-0.24914032,-0.24418902,-0.23229969,-0.21842378,-0.20852113,-0.20356977,-0.20158315,-0.1956538,-0.18575114,-0.17187518,-0.1649372,-0.15799922,-0.15106124,-0.14910513,-0.15206987,-0.16295052,-0.17187518,-0.16790187,-0.15900779,-0.15106124,-0.15206987,-0.16096395,-0.1639592,-0.1599859,-0.15206987,-0.14314526,-0.13027793,-0.11542398,-0.09956133,-0.09363192,-0.09757465,-0.101548016,-0.094610035,-0.075782716,-0.049039423,-0.028225482,-0.012393534,0.0054250956,0.02128768,0.037150264,0.05099559,0.067836404,0.09656632,0.13718545,0.18076932,0.22236657,0.2590431,0.29171574,0.325397,0.3511623,0.36601627,0.37591887,0.39474618,0.41852474,0.43732142,0.44031668,0.42246747,0.38582158,0.34718895,0.29370248,0.2312913,0.16591537,0.099530816,0.032199025,-0.032198906,-0.09956133,-0.15799922,-0.20158315,-0.23132163,-0.25705636,-0.28975958,-0.3204761,-0.3422681,-0.35712212,-0.36702472,-0.38090068,-0.3897947,-0.38683003,-0.3739627,-0.36406004,-0.3650381,-0.37494075,-0.38187873,-0.37790543,-0.3699894,-0.36406004,-0.36008674,-0.34819746,-0.33731675,-0.3333435,-0.3402815,-0.35314876,-0.35810012,-0.35018408,-0.33630812,-0.33236545,-0.33236545,-0.33135682,-0.32441884,-0.31650287,-0.31552482,-0.32145417,-0.32243222,-0.31252956,-0.29868418,-0.28480828,-0.28379965,-0.2808349,-0.27490562,-0.26796764,-0.2600516,-0.25506967,-0.25011837,-0.24418902,-0.24418902,-0.24914032,-0.2600516,-0.26796764,-0.2650029,-0.25705636,-0.24914032,-0.24516702,-0.24321097,-0.2422024,-0.24816227,-0.25904298,-0.26894563,-0.27093232,-0.26796764,-0.26301628,-0.266959,-0.27093232,-0.2650029,-0.25311363,-0.23627299,-0.2263704,-0.22438365,-0.22832644,-0.23327774,-0.24321097,-0.2600516,-0.27689224,-0.2778703,-0.27093232,-0.25904298,-0.25506967,-0.25904298,-0.2600516,-0.25904298,-0.258065,-0.26102966,-0.26598096,-0.26399434,-0.25705636,-0.251127,-0.25311363,-0.26301628,-0.26102966,-0.25011837,-0.23725104,-0.23428637,-0.24418902,-0.25409168,-0.25705636,-0.25904298,-0.25904298,-0.2600516,-0.258065,-0.2471537,-0.23428637,-0.22933501,-0.23526442,-0.23627299,-0.23132163,-0.22239703,-0.2045784,-0.17682648,-0.14910513,-0.13027793,-0.1322645,-0.15304792,-0.1689105,-0.15799922,-0.12630463,-0.10053933,-0.10451263,-0.14711857,-0.19861847,-0.23725104,-0.25904298,-0.2600516,-0.25705636,-0.25409168,-0.252105,-0.25705636,-0.266959,-0.2788483,-0.28578627,-0.28578627,-0.28184354,-0.28480828,-0.28875095,-0.28975958,-0.2808349,-0.2719103,-0.26598096,-0.26598096,-0.26102966,-0.2471537,-0.23132163,-0.19962704,-0.11441529,0.06982291,0.33432162,0.6086924,0.7870014,0.7790854,0.5789845,0.20852125,-0.22832644,-0.62061214,-0.8692483,-0.9148188,-0.78999645,-0.59386885,-0.42647123,-0.32839215,-0.28679484,-0.26894563,-0.252105,-0.23627299,-0.21943241,-0.20356977,-0.19168049,-0.1827864,-0.18575114,-0.19764042,-0.20555645,-0.19861847,-0.18672913,-0.17285317,-0.16594577,-0.16295052,-0.15900779,-0.15702122,-0.15900779,-0.1599859,-0.15900779,-0.15405655,-0.14910513,-0.14809656,-0.14611,-0.13522923,-0.120375276,-0.11145061,-0.10747731,-0.113437295,-0.10946399,-0.101548016,-0.09262335,-0.08369869,-0.07975602,-0.06688875,-0.049039423,-0.030212224,-0.012393534,0.0044471025,0.026239038,0.050017595,0.07083154,0.08865023,0.10845554,0.14213681,0.1886853,0.23624253,0.2709018,0.30161846,0.33432162,0.36898088,0.3986889,0.42246747,0.43536544,0.4442594,0.45416224,0.45318413,0.43139207,0.39572418,0.3521403,0.2996317,0.23526454,0.16096401,0.081712365,0.012363076,-0.04506612,-0.09558809,-0.14314526,-0.18969381,-0.23031306,-0.26200765,-0.29174626,-0.31748086,-0.33630812,-0.34621078,-0.35116214,-0.35712212,-0.36901134,-0.37494075,-0.3739627,-0.3591087,-0.3422681,-0.33731675,-0.33927286,-0.34125948,-0.3402815,-0.33927286,-0.3402815,-0.3432461,-0.33927286,-0.32839215,-0.32145417,-0.3145162,-0.31552482,-0.31552482,-0.31054288,-0.30757827,-0.3115515,-0.31946754,-0.32145417,-0.31650287,-0.31054288,-0.30757827,-0.30757827,-0.30461353,-0.2966975,-0.28975958,-0.27985686,-0.27093232,-0.25705636,-0.2422024,-0.23725104,-0.24418902,-0.2560783,-0.26301628,-0.25904298,-0.25506967,-0.2560783,-0.2600516,-0.26102966,-0.2600516,-0.258065,-0.25506967,-0.25311363,-0.24418902,-0.23428637,-0.23327774,-0.24321097,-0.2560783,-0.26102966,-0.24914032,-0.23725104,-0.22933501,-0.23132163,-0.23825961,-0.2422024,-0.24617565,-0.24914032,-0.251127,-0.2471537,-0.23825961,-0.23526442,-0.23825961,-0.24418902,-0.24418902,-0.24021572,-0.23627299,-0.23725104,-0.24021572,-0.23725104,-0.23132163,-0.22832644,-0.23428637,-0.24321097,-0.24617565,-0.24418902,-0.24321097,-0.251127,-0.26200765,-0.26301628,-0.25705636,-0.252105,-0.25506967,-0.25705636,-0.25409168,-0.2422024,-0.23031306,-0.22832644,-0.23923767,-0.24321097,-0.24122429,-0.23825961,-0.2422024,-0.24816227,-0.2471537,-0.23825961,-0.22536176,-0.2204104,-0.21744573,-0.2164371,-0.21249443,-0.20754308,-0.2095297,-0.2114858,-0.2114858,-0.20259178,-0.1827864,-0.15601254,-0.124317944,-0.09558809,-0.08470738,-0.09558809,-0.108486,-0.11047256,-0.09659666,-0.07679129,-0.0777694,-0.108486,-0.15405655,-0.19962704,-0.22933501,-0.24617565,-0.252105,-0.25409168,-0.25011837,-0.2422024,-0.23825961,-0.24516702,-0.2560783,-0.2650029,-0.2650029,-0.26102966,-0.25311363,-0.24418902,-0.23428637,-0.22536176,-0.22239703,-0.23031306,-0.24516702,-0.24914032,-0.2422024,-0.21347243,-0.12829125,0.060898423,0.34621096,0.66716075,0.9068724,0.953421,0.77511203,0.39178145,-0.0827207,-0.5146171,-0.7979125,-0.8682702,-0.7513639,-0.550285,-0.37692738,-0.2828216,-0.25409168,-0.25506967,-0.2560783,-0.24617565,-0.23725104,-0.22933501,-0.21249443,-0.1956538,-0.18474251,-0.18672913,-0.1956538,-0.1956538,-0.18376446,-0.1698885,-0.16790187,-0.17584842,-0.18672913,-0.18773782,-0.18474251,-0.18177783,-0.18079984,-0.17682648,-0.1649372,-0.15008324,-0.13917202,-0.1332426,-0.1322645,-0.13125592,-0.1273132,-0.120375276,-0.11047256,-0.09659666,-0.08470738,-0.07679129,-0.07480472,-0.07083142,-0.05995077,-0.04011488,-0.017344832,0.0034691095,0.022265792,0.040115,0.062885046,0.086663604,0.111420274,0.13917208,0.17979133,0.23226929,0.28379977,0.326375,0.35611367,0.38087022,0.40761352,0.4323702,0.4511974,0.46507335,0.47497606,0.48289204,0.47399795,0.43833005,0.38383496,0.3234104,0.26099932,0.19663203,0.13422072,0.068844914,0.011385083,-0.039136827,-0.09262335,-0.14809656,-0.19861847,-0.23825961,-0.26399434,-0.28578627,-0.30757827,-0.32542747,-0.33135682,-0.33135682,-0.3333435,-0.33731675,-0.33927286,-0.33037877,-0.3145162,-0.30461353,-0.3066002,-0.31946754,-0.32839215,-0.32542747,-0.31650287,-0.31353813,-0.31252956,-0.3095649,-0.3095649,-0.3066002,-0.30858684,-0.3115515,-0.30858684,-0.30164886,-0.2966975,-0.2966975,-0.29767555,-0.29471087,-0.28480828,-0.27588362,-0.2778703,-0.28480828,-0.28975958,-0.28975958,-0.28875095,-0.28578627,-0.2788483,-0.26894563,-0.25311363,-0.24816227,-0.251127,-0.258065,-0.258065,-0.251127,-0.2422024,-0.23923767,-0.23923767,-0.23627299,-0.23132163,-0.23132163,-0.24021572,-0.25311363,-0.25904298,-0.25506967,-0.252105,-0.251127,-0.25011837,-0.24617565,-0.23825961,-0.23132163,-0.23132163,-0.23825961,-0.23725104,-0.23031306,-0.22734839,-0.23428637,-0.2422024,-0.24816227,-0.2471537,-0.24021572,-0.24122429,-0.24617565,-0.2471537,-0.24021572,-0.23428637,-0.23229969,-0.23825961,-0.2422024,-0.23825961,-0.23428637,-0.23526442,-0.24021572,-0.24021572,-0.23327774,-0.2263704,-0.22337508,-0.23229969,-0.24122429,-0.2422024,-0.23526442,-0.22933501,-0.22536176,-0.22141904,-0.2164371,-0.21545905,-0.21545905,-0.21744573,-0.21943241,-0.21545905,-0.21249443,-0.21050775,-0.20555645,-0.19764042,-0.18969381,-0.18575114,-0.18773782,-0.19366717,-0.19764042,-0.19168049,-0.17483985,-0.14809656,-0.12333995,-0.09956133,-0.09558809,-0.101548016,-0.11047256,-0.113437295,-0.10552132,-0.09363192,-0.10353464,-0.13620728,-0.17979115,-0.21744573,-0.23725104,-0.2422024,-0.24122429,-0.24321097,-0.24021572,-0.23229969,-0.22734839,-0.23327774,-0.24816227,-0.26102966,-0.26796764,-0.2650029,-0.258065,-0.25011837,-0.24021572,-0.22933501,-0.22438365,-0.22734839,-0.23526442,-0.23526442,-0.22734839,-0.19464517,-0.09956133,0.08962834,0.35015368,0.617617,0.7830585,0.7602581,0.5423386,0.16392875,-0.26796764,-0.64041746,-0.86726165,-0.89696956,-0.7701912,-0.5720769,-0.39278996,-0.2828216,-0.23725104,-0.22239703,-0.2164371,-0.20852113,-0.2006051,-0.19764042,-0.19366717,-0.18575114,-0.17881316,-0.17584842,-0.18079984,-0.1827864,-0.17682648,-0.1689105,-0.16295052,-0.1649372,-0.1639592,-0.1599859,-0.15702122,-0.15601254,-0.15799922,-0.15503454,-0.14711857,-0.13917202,-0.13522923,-0.1332426,-0.12233138,-0.10353464,-0.088680685,-0.08568537,-0.09262335,-0.09757465,-0.09363192,-0.07874745,-0.062915385,-0.051026106,-0.039136827,-0.028225482,-0.010406852,0.009398341,0.03317702,0.06487155,0.09757483,0.12826085,0.1579994,0.18672931,0.22041059,0.2590431,0.2966671,0.33034837,0.3590783,0.38679957,0.4175161,0.44823277,0.46605134,0.4710027,0.47201133,0.46705997,0.45416224,0.42644072,0.3788836,0.31549442,0.2441585,0.17184484,0.10252619,0.037150264,-0.019331515,-0.07184005,-0.12630463,-0.1827864,-0.23327774,-0.27689224,-0.30164886,-0.31252956,-0.3184895,-0.32243222,-0.32344085,-0.32839215,-0.3382948,-0.3472194,-0.3521707,-0.35116214,-0.34819746,-0.34621078,-0.3472194,-0.35018408,-0.34621078,-0.33630812,-0.33533013,-0.3432461,-0.35712212,-0.3630514,-0.3541574,-0.33927286,-0.32542747,-0.31946754,-0.3184895,-0.31552482,-0.3115515,-0.31252956,-0.31252956,-0.30858684,-0.29966223,-0.29272425,-0.29272425,-0.29767555,-0.2966975,-0.28679484,-0.27588362,-0.26796764,-0.26598096,-0.2650029,-0.258065,-0.24816227,-0.2422024,-0.24122429,-0.2422024,-0.24418902,-0.24914032,-0.25311363,-0.25904298,-0.26102966,-0.25409168,-0.24321097,-0.23526442,-0.23031306,-0.22832644,-0.22536176,-0.2263704,-0.23132163,-0.23825961,-0.24321097,-0.24418902,-0.24321097,-0.24617565,-0.24914032,-0.2471537,-0.24122429,-0.23825961,-0.24418902,-0.25011837,-0.25311363,-0.24816227,-0.24321097,-0.24617565,-0.251127,-0.25409168,-0.24516702,-0.23627299,-0.23229969,-0.23526442,-0.23725104,-0.23132163,-0.22239703,-0.22141904,-0.22536176,-0.23428637,-0.24122429,-0.24122429,-0.24122429,-0.2422024,-0.2422024,-0.23229969,-0.2204104,-0.21448106,-0.2204104,-0.23031306,-0.24122429,-0.24516702,-0.23923767,-0.22832644,-0.21347243,-0.2006051,-0.19663179,-0.19861847,-0.1956538,-0.17386186,-0.13620728,-0.10946399,-0.108486,-0.11640197,-0.11640197,-0.10252601,-0.086694,-0.087672055,-0.112428725,-0.15799922,-0.2006051,-0.23627299,-0.26301628,-0.27689224,-0.273897,-0.26301628,-0.25705636,-0.26102966,-0.273897,-0.28379965,-0.28679484,-0.2877729,-0.2877729,-0.2877729,-0.28679484,-0.28184354,-0.27588362,-0.27291888,-0.273897,-0.26796764,-0.258065,-0.251127,-0.25011837,-0.24516702,-0.18871582,-0.02923417,0.22832656,0.5254979,0.76520944,0.8434832,0.7196388,0.39572418,-0.05301279,-0.4918471,-0.8038724,-0.9108455,-0.828629,-0.64833343,-0.47399783,-0.35810012,-0.30064023,-0.2808349,-0.2778703,-0.26995426,-0.258065,-0.24122429,-0.2263704,-0.22141904,-0.2204104,-0.21448106,-0.21050775,-0.20754308,-0.2114858,-0.2164371,-0.21347243,-0.20356977,-0.19464517,-0.19268906,-0.19764042,-0.19764042,-0.18871582,-0.17979115,-0.17682648,-0.18079984,-0.18079984,-0.17187518,-0.15702122,-0.14711857,-0.14314526,-0.14115858,-0.13721591,-0.13125592,-0.13125592,-0.1332426,-0.13027793,-0.113437295,-0.08369869,-0.05399078,-0.031220794,-0.01636684,-0.0034688711,0.012363076,0.032199025,0.054968953,0.08467686,0.12132287,0.1579994,0.19562328,0.2312913,0.2709018,0.31350768,0.3491757,0.37096763,0.38679957,0.40168417,0.41852474,0.4343568,0.4333787,0.41653812,0.38285685,0.3422377,0.29171574,0.22930455,0.15897739,0.086663604,0.015358329,-0.0520041,-0.11441529,-0.17089719,-0.21347243,-0.2471537,-0.2778703,-0.31054288,-0.33927286,-0.3541574,-0.3610648,-0.3630514,-0.3660161,-0.37494075,-0.37790543,-0.37295407,-0.36901134,-0.36800277,-0.37295407,-0.37594932,-0.37099802,-0.36702472,-0.37197608,-0.3699894,-0.36207336,-0.3491755,-0.33533013,-0.33135682,-0.33533013,-0.33927286,-0.3343215,-0.32937014,-0.33135682,-0.33731675,-0.3402815,-0.3382948,-0.33630812,-0.33731675,-0.3422681,-0.34125948,-0.32839215,-0.3115515,-0.3066002,-0.3095649,-0.31054288,-0.3066002,-0.29767555,-0.29073763,-0.28578627,-0.2778703,-0.26399434,-0.25011837,-0.24816227,-0.25705636,-0.26598096,-0.26995426,-0.26894563,-0.2719103,-0.28184354,-0.28379965,-0.27985686,-0.27291888,-0.26598096,-0.266959,-0.2719103,-0.27985686,-0.28578627,-0.29174626,-0.29471087,-0.29073763,-0.2808349,-0.273897,-0.273897,-0.28184354,-0.28875095,-0.2808349,-0.2719103,-0.26301628,-0.26102966,-0.26200765,-0.26399434,-0.2650029,-0.273897,-0.28379965,-0.2877729,-0.28379965,-0.27689224,-0.27093232,-0.27093232,-0.27093232,-0.266959,-0.2650029,-0.26796764,-0.273897,-0.27291888,-0.266959,-0.26301628,-0.2600516,-0.26301628,-0.26102966,-0.25311363,-0.24516702,-0.24122429,-0.24516702,-0.24914032,-0.24914032,-0.24816227,-0.24914032,-0.251127,-0.2471537,-0.24021572,-0.23229969,-0.22832644,-0.22832644,-0.2263704,-0.22141904,-0.20754308,-0.18969381,-0.16790187,-0.14314526,-0.12532651,-0.124317944,-0.1332426,-0.13620728,-0.12630463,-0.11047256,-0.10946399,-0.1332426,-0.17979115,-0.22239703,-0.2471537,-0.2560783,-0.2600516,-0.2650029,-0.266959,-0.26894563,-0.26995426,-0.26995426,-0.27588362,-0.28184354,-0.2828216,-0.2828216,-0.28480828,-0.28480828,-0.2808349,-0.2719103,-0.266959,-0.26796764,-0.2719103,-0.27490562,-0.27093232,-0.26598096,-0.258065,-0.21050775,-0.060928762,0.20852125,0.54035187,0.8276206,0.94153166,0.83159375,0.4997326,0.030212283,-0.43337864,-0.7721778,-0.89895624,-0.8197044,-0.6265415,-0.44230318,-0.32839215,-0.2828216,-0.26796764,-0.26301628,-0.25409168,-0.24321097,-0.23526442,-0.23031306,-0.22832644,-0.22734839,-0.22438365,-0.2164371,-0.20653445,-0.20158315,-0.2045784,-0.2045784,-0.19764042,-0.18575114,-0.17881316,-0.1827864,-0.18871582,-0.18672913,-0.17682648,-0.1689105,-0.16790187,-0.1698885,-0.16594577,-0.15503454,-0.14314526,-0.13721591,-0.14018059,-0.14018059,-0.13027793,-0.11441529,-0.10053933,-0.09063667,-0.08073413,-0.068844736,-0.057964087,-0.04506612,-0.027247488,-0.002490878,0.032199025,0.07083154,0.100539565,0.12728274,0.15897739,0.19363678,0.22930455,0.26200783,0.28875113,0.31946766,0.35412693,0.38582158,0.40663552,0.42246747,0.4412948,0.460122,0.4710027,0.45813537,0.41852474,0.36699426,0.31152105,0.25308323,0.1857208,0.10845554,0.032199025,-0.032198906,-0.087672055,-0.14115858,-0.18871582,-0.22734839,-0.2600516,-0.2877729,-0.3184895,-0.35018408,-0.36702472,-0.37197608,-0.3650381,-0.3591087,-0.36207336,-0.36207336,-0.3610648,-0.36008674,-0.3610648,-0.36702472,-0.3699894,-0.36406004,-0.35712212,-0.35513544,-0.35712212,-0.35712212,-0.35314876,-0.34523273,-0.34125948,-0.34621078,-0.35116214,-0.35314876,-0.35018408,-0.3472194,-0.3432461,-0.33630812,-0.32542747,-0.31650287,-0.31552482,-0.32344085,-0.33135682,-0.33135682,-0.32640553,-0.3184895,-0.30858684,-0.29868418,-0.28875095,-0.2828216,-0.2828216,-0.28578627,-0.29073763,-0.28379965,-0.27093232,-0.26200765,-0.258065,-0.2560783,-0.258065,-0.26200765,-0.26598096,-0.26894563,-0.266959,-0.26200765,-0.26200765,-0.26995426,-0.28679484,-0.29568893,-0.29272425,-0.2778703,-0.26301628,-0.2560783,-0.24914032,-0.24516702,-0.24418902,-0.24914032,-0.25904298,-0.2650029,-0.2650029,-0.26301628,-0.26301628,-0.26598096,-0.26598096,-0.26399434,-0.26399434,-0.26796764,-0.27093232,-0.26796764,-0.2600516,-0.25506967,-0.258065,-0.2650029,-0.27093232,-0.26598096,-0.26102966,-0.26301628,-0.26796764,-0.26796764,-0.26102966,-0.251127,-0.25011837,-0.2560783,-0.2600516,-0.2600516,-0.2560783,-0.2560783,-0.258065,-0.25409168,-0.24321097,-0.23031306,-0.2263704,-0.2263704,-0.22438365,-0.2164371,-0.20754308,-0.20555645,-0.20852113,-0.19962704,-0.1698885,-0.1381939,-0.11640197,-0.11542398,-0.12829125,-0.13027793,-0.11838859,-0.10053933,-0.09363192,-0.10353464,-0.13522923,-0.17881316,-0.22141904,-0.25506967,-0.266959,-0.2600516,-0.24914032,-0.24816227,-0.25011837,-0.25311363,-0.24914032,-0.24418902,-0.24418902,-0.251127,-0.2560783,-0.25311363,-0.24816227,-0.24617565,-0.24418902,-0.2422024,-0.23428637,-0.22438365,-0.22141904,-0.22438365,-0.22141904,-0.19366717,-0.09363192,0.1064688,0.3699895,0.63940895,0.8058286,0.7830585,0.55621445,0.15699077,-0.28875095,-0.6651741,-0.87716424,-0.89996487,-0.7701912,-0.57800627,-0.40565735,-0.29373282,-0.2471537,-0.24617565,-0.24914032,-0.23725104,-0.21050775,-0.1827864,-0.16295052,-0.15304792,-0.14910513,-0.15008324,-0.15702122,-0.1649372,-0.16790187,-0.1639592,-0.15900779,-0.15702122,-0.15601254,-0.15206987,-0.14513189,-0.13721591,-0.13917202,-0.14513189,-0.14115858,-0.12532651,-0.10552132,-0.08965868,-0.088680685,-0.09063667,-0.088680685,-0.0827207,-0.07679129,-0.07679129,-0.07480472,-0.06688875,-0.05499941,-0.044088125,-0.03418547,-0.020309508,-0.0054555535,0.014349818,0.03415513,0.05298233,0.08467686,0.1223315,0.1579994,0.1886853,0.20949924,0.24516726,0.29073775,0.34422433,0.39572418,0.4343568,0.460122,0.4769627,0.4858873,0.48191404,0.4690467,0.45416224,0.44031668,0.4145515,0.36601627,0.29865372,0.22236657,0.1490748,0.08269036,0.017314434,-0.04806143,-0.10451263,-0.15206987,-0.19464517,-0.23428637,-0.27291888,-0.29966223,-0.30757827,-0.30757827,-0.31252956,-0.32145417,-0.33236545,-0.3382948,-0.33731675,-0.33731675,-0.34125948,-0.3432461,-0.34422415,-0.34523273,-0.34819746,-0.35513544,-0.3541574,-0.3472194,-0.33927286,-0.33630812,-0.3402815,-0.34125948,-0.33731675,-0.3343215,-0.33236545,-0.33630812,-0.32839215,-0.31054288,-0.29272425,-0.2808349,-0.27985686,-0.2828216,-0.27985686,-0.27689224,-0.2808349,-0.28975958,-0.29373282,-0.28679484,-0.26894563,-0.25705636,-0.25311363,-0.2471537,-0.24321097,-0.23132163,-0.2204104,-0.2204104,-0.22438365,-0.22933501,-0.24122429,-0.2560783,-0.2600516,-0.24914032,-0.23229969,-0.21744573,-0.21744573,-0.23229969,-0.24321097,-0.24122429,-0.23825961,-0.23725104,-0.23825961,-0.24021572,-0.24122429,-0.24021572,-0.2471537,-0.25705636,-0.258065,-0.25409168,-0.24914032,-0.25011837,-0.25904298,-0.26598096,-0.266959,-0.26200765,-0.25904298,-0.25705636,-0.252105,-0.24617565,-0.2422024,-0.24321097,-0.24914032,-0.25506967,-0.25311363,-0.24816227,-0.24418902,-0.24617565,-0.24516702,-0.2422024,-0.24021572,-0.2422024,-0.2471537,-0.24914032,-0.24516702,-0.24021572,-0.22734839,-0.22141904,-0.21347243,-0.20259178,-0.1956538,-0.1956538,-0.19861847,-0.2006051,-0.19962704,-0.19464517,-0.19366717,-0.18871582,-0.17285317,-0.14611,-0.12135327,-0.11441529,-0.12532651,-0.13620728,-0.13027793,-0.10946399,-0.09558809,-0.10747731,-0.14216715,-0.18969381,-0.23526442,-0.266959,-0.27588362,-0.2650029,-0.24122429,-0.22239703,-0.22438365,-0.23825961,-0.25011837,-0.25409168,-0.25409168,-0.25409168,-0.25904298,-0.258065,-0.2471537,-0.23428637,-0.23031306,-0.23327774,-0.23229969,-0.22536176,-0.21842378,-0.22141904,-0.22832644,-0.19070244,-0.05301279,0.19464529,0.49279463,0.7493775,0.8513992,0.75729334,0.4690467,0.044057608,-0.38683003,-0.7196692,-0.86628354,-0.82269967,-0.6612314,-0.4809358,-0.35116214,-0.28184354,-0.25705636,-0.24914032,-0.23923767,-0.2204104,-0.20356977,-0.19861847,-0.20852113,-0.22536176,-0.23229969,-0.22141904,-0.20158315,-0.18376446,-0.17881316,-0.18177783,-0.18575114,-0.18575114,-0.18575114,-0.18773782,-0.18177783,-0.17483985,-0.17285317,-0.17285317,-0.17386186,-0.1698885,-0.15405655,-0.14018059,-0.13721591,-0.14216715,-0.14711857,-0.14018059,-0.12926936,-0.119366646,-0.112428725,-0.106499314,-0.09757465,-0.08073413,-0.06588006,-0.049039423,-0.02923417,-0.006433606,0.013371706,0.03415513,0.056955576,0.08962834,0.1312561,0.17086673,0.20256126,0.23226929,0.26399446,0.2996317,0.331357,0.3581003,0.38184822,0.4056269,0.42940545,0.44031668,0.42741883,0.40168417,0.3680029,0.33826435,0.30161846,0.24715376,0.17483997,0.093601584,0.014349818,-0.05499941,-0.11640197,-0.1689105,-0.21050775,-0.24516702,-0.27588362,-0.30461353,-0.33135682,-0.34621078,-0.35018408,-0.35314876,-0.3630514,-0.3739627,-0.38187873,-0.37692738,-0.3660161,-0.3610648,-0.36800277,-0.37494075,-0.37692738,-0.37197608,-0.36008674,-0.35314876,-0.34523273,-0.33533013,-0.33533013,-0.3422681,-0.3491755,-0.35116214,-0.3432461,-0.33236545,-0.33037877,-0.34125948,-0.3491755,-0.34819746,-0.33731675,-0.32344085,-0.31650287,-0.30858684,-0.3026269,-0.29868418,-0.29966223,-0.30164886,-0.29966223,-0.29073763,-0.2788483,-0.27689224,-0.27689224,-0.2719103,-0.26200765,-0.25011837,-0.24914032,-0.25705636,-0.26399434,-0.26200765,-0.258065,-0.252105,-0.252105,-0.251127,-0.24816227,-0.24617565,-0.24617565,-0.252105,-0.25311363,-0.24914032,-0.24617565,-0.2471537,-0.252105,-0.258065,-0.26102966,-0.25705636,-0.25011837,-0.2471537,-0.24321097,-0.23825961,-0.2422024,-0.25011837,-0.2600516,-0.26598096,-0.26399434,-0.258065,-0.258065,-0.26301628,-0.26200765,-0.25409168,-0.2471537,-0.23825961,-0.24321097,-0.24418902,-0.24321097,-0.24122429,-0.24418902,-0.24617565,-0.24914032,-0.24122429,-0.23229969,-0.23229969,-0.23923767,-0.24617565,-0.24516702,-0.24122429,-0.23923767,-0.2471537,-0.25311363,-0.25011837,-0.2422024,-0.23229969,-0.23229969,-0.23627299,-0.23725104,-0.23627299,-0.23428637,-0.23725104,-0.24122429,-0.24321097,-0.24418902,-0.24914032,-0.2560783,-0.2560783,-0.24914032,-0.23132163,-0.21050775,-0.19663179,-0.18969381,-0.18871582,-0.19268906,-0.19168049,-0.17780459,-0.14415383,-0.10252601,-0.08073413,-0.08568537,-0.106499314,-0.119366646,-0.11145061,-0.09164536,-0.088680685,-0.113437295,-0.15702122,-0.19861847,-0.23031306,-0.24617565,-0.25011837,-0.2471537,-0.23923767,-0.23428637,-0.23725104,-0.24516702,-0.251127,-0.251127,-0.24617565,-0.24516702,-0.24816227,-0.251127,-0.251127,-0.24816227,-0.252105,-0.2560783,-0.2560783,-0.2471537,-0.23132163,-0.22337508,-0.20356977,-0.124317944,0.07083154,0.36500776,0.6869663,0.90885913,0.9356022,0.7454041,0.35314894,-0.124317944,-0.551263,-0.8108104,-0.85439426,-0.7216559,-0.528493,-0.37197608,-0.28184354,-0.23923767,-0.22141904,-0.21448106,-0.21448106,-0.21545905,-0.21347243,-0.20754308,-0.20259178,-0.2006051,-0.18969381,-0.17285317,-0.15405655,-0.14216715,-0.14314526,-0.14513189,-0.14314526,-0.14018059,-0.14711857,-0.16096395,-0.17187518,-0.1698885,-0.15405655,-0.14115858,-0.13620728,-0.1381939,-0.1381939,-0.1342206,-0.12829125,-0.12233138,-0.112428725,-0.09757465,-0.081742704,-0.075782716,-0.0777694,-0.075782716,-0.060928762,-0.037150145,-0.015358269,-0.0034688711,0.0034691095,0.013371706,0.03516364,0.061906934,0.09161484,0.1223315,0.15500414,0.1886853,0.21643722,0.24516726,0.2788484,0.31748104,0.35412693,0.38383496,0.40266216,0.41653812,0.43139207,0.43930817,0.4343568,0.41256487,0.38679957,0.35314894,0.30757844,0.25406122,0.1877073,0.1223315,0.062885046,0.0014823675,-0.062915385,-0.12829125,-0.18773782,-0.23229969,-0.26399434,-0.29073763,-0.3145162,-0.32839215,-0.33731675,-0.34125948,-0.35116214,-0.36702472,-0.37692738,-0.37494075,-0.3630514,-0.35018408,-0.34621078,-0.3491755,-0.35116214,-0.34819746,-0.34621078,-0.3472194,-0.34621078,-0.34523273,-0.3422681,-0.3402815,-0.3422681,-0.3402815,-0.33533013,-0.32937014,-0.32243222,-0.31748086,-0.31054288,-0.29767555,-0.28975958,-0.29174626,-0.29966223,-0.30363548,-0.29767555,-0.28679484,-0.2808349,-0.2828216,-0.28379965,-0.27985686,-0.2719103,-0.26399434,-0.2650029,-0.26995426,-0.26894563,-0.26102966,-0.25506967,-0.251127,-0.2471537,-0.24122429,-0.23825961,-0.23825961,-0.24321097,-0.2471537,-0.24516702,-0.23923767,-0.23825961,-0.24516702,-0.25409168,-0.25409168,-0.25011837,-0.24418902,-0.24516702,-0.24321097,-0.23526442,-0.22438365,-0.21448106,-0.21842378,-0.22734839,-0.23327774,-0.23627299,-0.24122429,-0.24914032,-0.251127,-0.24914032,-0.2422024,-0.24122429,-0.2471537,-0.252105,-0.24617565,-0.23428637,-0.22933501,-0.23229969,-0.23627299,-0.23725104,-0.23725104,-0.24021572,-0.24321097,-0.24122429,-0.22734839,-0.2114858,-0.20653445,-0.21347243,-0.22337508,-0.2263704,-0.22536176,-0.22337508,-0.22141904,-0.2164371,-0.2095297,-0.20653445,-0.21744573,-0.23327774,-0.23725104,-0.22832644,-0.2114858,-0.20555645,-0.21545905,-0.23132163,-0.23627299,-0.2263704,-0.21347243,-0.20653445,-0.20555645,-0.20555645,-0.20356977,-0.20259178,-0.20259178,-0.2006051,-0.19070244,-0.16295052,-0.12926936,-0.106499314,-0.10053933,-0.106499314,-0.11441529,-0.112428725,-0.10451263,-0.09858334,-0.10747731,-0.13917202,-0.1827864,-0.22239703,-0.24617565,-0.24516702,-0.23627299,-0.23627299,-0.24516702,-0.252105,-0.24617565,-0.23132163,-0.2204104,-0.22239703,-0.22933501,-0.23428637,-0.23327774,-0.23229969,-0.24122429,-0.24516702,-0.24321097,-0.23327774,-0.22141904,-0.21347243,-0.20852113,-0.18969381,-0.12630463,0.020309687,0.24021578,0.49279463,0.6998335,0.7553067,0.624555,0.30953455,-0.10747731,-0.5076791,-0.7959564,-0.90491617,-0.8395403,-0.6651741,-0.4700551,-0.32542747,-0.251127,-0.23526442,-0.24021572,-0.22141904,-0.19168049,-0.16096395,-0.14809656,-0.15206987,-0.16096395,-0.16096395,-0.15405655,-0.14513189,-0.1332426,-0.12630463,-0.12333995,-0.12630463,-0.13721591,-0.14216715,-0.1381939,-0.1273132,-0.120375276,-0.119366646,-0.120375276,-0.11838859,-0.11145061,-0.106499314,-0.10353464,-0.09956133,-0.09363192,-0.086694,-0.08470738,-0.08568537,-0.08073413,-0.0638935,-0.043110132,-0.031220794,-0.02923417,-0.032198906,-0.018322945,0.009398341,0.043079615,0.07676089,0.107477546,0.14015007,0.17285335,0.20158327,0.22236657,0.24021578,0.2689458,0.3065697,0.34621096,0.3788836,0.4056269,0.42546272,0.44526803,0.45911336,0.46803808,0.46803808,0.45813537,0.4343568,0.3887862,0.32836175,0.26298583,0.19861853,0.13816357,0.07874751,0.014349818,-0.04705286,-0.10252601,-0.15405655,-0.20555645,-0.251127,-0.28379965,-0.3026269,-0.31054288,-0.31946754,-0.33037877,-0.33927286,-0.3432461,-0.3422681,-0.34422415,-0.3491755,-0.35611343,-0.3610648,-0.36207336,-0.3650381,-0.36702472,-0.36207336,-0.34819746,-0.3382948,-0.33533013,-0.34523273,-0.3541574,-0.3541574,-0.34621078,-0.3382948,-0.33630812,-0.33630812,-0.32937014,-0.31650287,-0.3115515,-0.31252956,-0.3145162,-0.31252956,-0.30363548,-0.28975958,-0.2808349,-0.27689224,-0.27291888,-0.27291888,-0.27291888,-0.27490562,-0.2719103,-0.26399434,-0.2560783,-0.252105,-0.25506967,-0.258065,-0.26200765,-0.25904298,-0.2600516,-0.2650029,-0.266959,-0.26200765,-0.25506967,-0.25011837,-0.25409168,-0.2600516,-0.26200765,-0.2600516,-0.25705636,-0.258065,-0.25506967,-0.25011837,-0.24617565,-0.24914032,-0.25705636,-0.2600516,-0.25409168,-0.24021572,-0.23428637,-0.23923767,-0.2471537,-0.252105,-0.25011837,-0.2471537,-0.24816227,-0.251127,-0.251127,-0.252105,-0.25506967,-0.2600516,-0.26796764,-0.26796764,-0.26102966,-0.25311363,-0.24516702,-0.24122429,-0.23923767,-0.24418902,-0.2560783,-0.27291888,-0.2808349,-0.273897,-0.258065,-0.24418902,-0.24122429,-0.24816227,-0.25705636,-0.26102966,-0.26399434,-0.26796764,-0.26894563,-0.2600516,-0.24617565,-0.23428637,-0.23031306,-0.23229969,-0.23627299,-0.23031306,-0.20852113,-0.17682648,-0.14216715,-0.11737996,-0.11640197,-0.1322645,-0.14513189,-0.14216715,-0.12333995,-0.10747731,-0.119366646,-0.1639592,-0.21545905,-0.251127,-0.2650029,-0.26399434,-0.26301628,-0.26598096,-0.26894563,-0.2650029,-0.2650029,-0.27093232,-0.2828216,-0.29174626,-0.29568893,-0.28875095,-0.2778703,-0.26796764,-0.25705636,-0.251127,-0.25311363,-0.26102966,-0.266959,-0.26399434,-0.258065,-0.23725104,-0.16295052,0.014349818,0.28972912,0.5987898,0.8246559,0.85931516,0.68400156,0.3224324,-0.12630463,-0.53937376,-0.8187264,-0.8959915,-0.78703177,-0.5898956,-0.41852462,-0.31650287,-0.2788483,-0.2650029,-0.24914032,-0.23526442,-0.22832644,-0.22734839,-0.2263704,-0.2204104,-0.21545905,-0.2164371,-0.2164371,-0.21050775,-0.19962704,-0.1956538,-0.19764042,-0.19962704,-0.19764042,-0.18969381,-0.18474251,-0.18376446,-0.18079984,-0.17089719,-0.1599859,-0.15702122,-0.1639592,-0.17089719,-0.16790187,-0.15601254,-0.14611,-0.14711857,-0.14711857,-0.14216715,-0.12630463,-0.10747731,-0.09164536,-0.07975602,-0.06588006,-0.049039423,-0.038158715,-0.033207476,-0.027247488,-0.009428859,0.020309687,0.055947065,0.09063685,0.12630475,0.16591537,0.20949924,0.2510965,0.2867645,0.31647253,0.34718895,0.37591887,0.39771092,0.40862215,0.4155295,0.41852474,0.41653812,0.40168417,0.3699895,0.32836175,0.27982652,0.22633994,0.1579994,0.07874751,0.0034691095,-0.05894208,-0.106499314,-0.15206987,-0.20555645,-0.2560783,-0.29568893,-0.3184895,-0.32937014,-0.3402815,-0.3491755,-0.3541574,-0.35712212,-0.36207336,-0.37295407,-0.38585198,-0.39080334,-0.38285673,-0.37295407,-0.3650381,-0.3610648,-0.36207336,-0.3610648,-0.36207336,-0.3650381,-0.3650381,-0.35810012,-0.3472194,-0.3402815,-0.3402815,-0.3432461,-0.34125948,-0.3343215,-0.32839215,-0.33135682,-0.3343215,-0.3333435,-0.32738352,-0.32243222,-0.32542747,-0.33037877,-0.32344085,-0.30858684,-0.29272425,-0.2808349,-0.27985686,-0.2778703,-0.27588362,-0.27490562,-0.27689224,-0.2808349,-0.2788483,-0.273897,-0.2719103,-0.273897,-0.27588362,-0.27490562,-0.266959,-0.26399434,-0.26894563,-0.2719103,-0.27093232,-0.26399434,-0.25705636,-0.25705636,-0.2560783,-0.258065,-0.25904298,-0.26399434,-0.2719103,-0.27490562,-0.27093232,-0.26200765,-0.25705636,-0.25904298,-0.26102966,-0.258065,-0.252105,-0.251127,-0.2560783,-0.26102966,-0.26200765,-0.2560783,-0.2560783,-0.26102966,-0.26301628,-0.258065,-0.24816227,-0.23825961,-0.23526442,-0.24021572,-0.24516702,-0.24617565,-0.25311363,-0.252105,-0.24816227,-0.23627299,-0.22239703,-0.22141904,-0.23229969,-0.24617565,-0.251127,-0.24321097,-0.23526442,-0.23229969,-0.23327774,-0.23725104,-0.23725104,-0.2422024,-0.252105,-0.258065,-0.252105,-0.23526442,-0.22337508,-0.21943241,-0.22141904,-0.22337508,-0.21744573,-0.21545905,-0.22141904,-0.22832644,-0.22933501,-0.22239703,-0.22141904,-0.22438365,-0.21050775,-0.17979115,-0.13721591,-0.10353464,-0.10252601,-0.120375276,-0.12926936,-0.11838859,-0.09659666,-0.08470738,-0.09659666,-0.1322645,-0.17881316,-0.22536176,-0.258065,-0.26598096,-0.25409168,-0.23428637,-0.2263704,-0.23725104,-0.25409168,-0.266959,-0.2719103,-0.273897,-0.2808349,-0.28184354,-0.27093232,-0.25506967,-0.24321097,-0.24321097,-0.252105,-0.2600516,-0.25311363,-0.24321097,-0.23428637,-0.2204104,-0.16692388,-0.025260925,0.22236657,0.52748454,0.8048507,0.9336157,0.8523772,0.5453032,0.07972562,-0.39575464,-0.74937725,-0.8930269,-0.8315937,-0.64637744,-0.45517057,-0.32839215,-0.26894563,-0.2560783,-0.26102966,-0.258065,-0.24418902,-0.23031306,-0.22239703,-0.21842378,-0.2164371,-0.20653445,-0.19168049,-0.1827864,-0.18376446,-0.19168049,-0.19764042,-0.19464517,-0.18969381,-0.18376446,-0.18079984,-0.17979115,-0.17386186,-0.16790187,-0.16197252,-0.15601254,-0.15008324,-0.14513189,-0.14415383,-0.14611,-0.14115858,-0.12829125,-0.11145061,-0.101548016,-0.09956133,-0.09659666,-0.09063667,-0.07975602,-0.06490207,-0.0520041,-0.035163462,