-0.8723818,-0.87648755,-0.87979066,-0.87648755,-0.8690787,-0.8682452,-0.87401795,-0.8781237,-0.87648755,-0.8682452,-0.8649729,-0.8723818,-0.88389647,-0.89213884,-0.90118384,-0.9077901,-0.89050275,-0.798262,-0.5833732,-0.24000192,0.17248821,0.56278265,0.84107924,0.9448346,0.85095775,0.58337307,0.1996851,-0.21697259,-0.5611465,-0.7801411,-0.8789572,-0.89954776,-0.8913053,-0.89050275,-0.90859276,-0.9324864,-0.953077,-0.9580163,-0.95060736,-0.93825924,-0.9300168,-0.9324864,-0.9357896,-0.9324864,-0.92507756,-0.9201383,-0.92094094,-0.92177445,-0.9168352,-0.9077901,-0.90201735,-0.90118384,-0.8979116,-0.8888357,-0.87565404,-0.8682452,-0.86744255,-0.86744255,-0.86083627,-0.8484881,-0.8386096,-0.8336703,-0.8295646,-0.82215565,-0.81227714,-0.8081405,-0.80980754,-0.8081405,-0.799929,-0.7826107,-0.7661568,-0.75544477,-0.74556625,-0.72991496,-0.70935524,-0.6928705,-0.68135583,-0.66734064,-0.6475836,-0.6204177,-0.59488785,-0.5751308,-0.551268,-0.5183293,-0.48045135,-0.44834614,-0.42608857,-0.407165,-0.3865745,-0.36351424,-0.34706038,-0.34459078,-0.35116613,-0.3627116,-0.38327134,-0.41951317,-0.47304243,-0.5323136,-0.587479,-0.6393721,-0.69040084,-0.7439301,-0.7916866,-0.8270949,-0.85095775,-0.8723818,-0.8946085,-0.9127294,-0.92177445,-0.92424405,-0.9267137,-0.9324864,-0.93742573,-0.9349561,-0.92918336,-0.9275472,-0.93165296,-0.93412256,-0.9300168,-0.92341053,-0.92094094,-0.9275472,-0.93332,-0.93165296,-0.92341053,-0.9193048,-0.9201383,-0.92260796,-0.9193048,-0.9110624,-0.9077901,-0.90859276,-0.9102598,-0.90612316,-0.89624465,-0.88966924,-0.89213884,-0.8946085,-0.89050275,-0.88309383,-0.87979066,-0.88309383,-0.8871996,-0.8855635,-0.8781237,-0.87318444,-0.87318444,-0.8723818,-0.8657755,-0.85836667,-0.855897,-0.86003363,-0.8649729,-0.8625033,-0.8550944,-0.85095775,-0.855897,-0.86003363,-0.85756403,-0.8526248,-0.8501551,-0.8567305,-0.8633059,-0.8625033,-0.8567305,-0.8550944,-0.86083627,-0.86660904,-0.86660904,-0.86003363,-0.8542609,-0.8542609,-0.8550944,-0.8534274,-0.846852,-0.84438235,-0.8476855,-0.85095775,-0.8501551,-0.84274626,-0.8402766,-0.84274626,-0.846852,-0.846852,-0.84191275,-0.8402766,-0.84438235,-0.8476855,-0.8460185,-0.8402766,-0.83614,-0.84191275,-0.8476855,-0.8460185,-0.8386096,-0.83286774,-0.83203423,-0.8312007,-0.8270949,-0.8155494,-0.8056709,-0.8023986,-0.79579234,-0.7760353,-0.74886936,-0.7266427,-0.7175668,-0.7159307,-0.71346104,-0.7085218,-0.7085218,-0.71676415,-0.72744536,-0.7332181,-0.7307485,-0.7340516,-0.751339,-0.77850497,-0.80320126,-0.82295835,-0.84107924,-0.85756403,-0.8690787,-0.8707148,-0.86413944,-0.85756403,-0.8592001,-0.8616698,-0.85836667,-0.8526248,-0.8493216,-0.8534274,-0.85756403,-0.855897,-0.8501551,-0.8476855,-0.8567305,-0.8690787,-0.87732106,-0.88389647,-0.88636607,-0.8592001,-0.74886936,-0.5150262,-0.15850401,0.25238085,0.6154784,0.8386096,0.86497283,0.6928705,0.3684535,-0.03746128,-0.4236189,-0.6994767,-0.84107924,-0.8781237,-0.86660904,-0.8550944,-0.8616698,-0.8781237,-0.893775,-0.90285087,-0.9053205,-0.90201735,-0.8946085,-0.89050275,-0.8913053,-0.8913053,-0.8855635,-0.87485147,-0.86744255,-0.8657755,-0.86413944,-0.85836667,-0.85095775,-0.846852,-0.8493216,-0.85095775,-0.8435489,-0.8303672,-0.8204887,-0.81968606,-0.81968606,-0.81638294,-0.80650437,-0.80073166,-0.8015651,-0.80320126,-0.7990955,-0.7859138,-0.7752018,-0.76862645,-0.7628537,-0.751339,-0.73568773,-0.72417307,-0.7175668,-0.7109914,-0.69534016,-0.67227995,-0.6492506,-0.6319324,-0.6146449,-0.59161556,-0.5652523,-0.54055595,-0.52243507,-0.5018445,-0.47467858,-0.44257337,-0.41293782,-0.39068025,-0.37092322,-0.34786302,-0.3248337,-0.31248558,-0.31412172,-0.32730335,-0.34539336,-0.37175667,-0.41374046,-0.47220892,-0.5364194,-0.5965549,-0.6492506,-0.70027936,-0.75217247,-0.798262,-0.8303672,-0.85095775,-0.86660904,-0.8855635,-0.90118384,-0.90859276,-0.9094263,-0.9102598,-0.91436553,-0.9168352,-0.91436553,-0.9069567,-0.9053205,-0.9110624,-0.9168352,-0.91519904,-0.9077901,-0.90285087,-0.9069567,-0.91189593,-0.9094263,-0.90038127,-0.89213884,-0.89050275,-0.893775,-0.8946085,-0.89213884,-0.88966924,-0.8946085,-0.89624465,-0.89213884,-0.8822603,-0.87401795,-0.8723818,-0.8715483,-0.8682452,-0.8616698,-0.85756403,-0.8616698,-0.86413944,-0.8592001,-0.8501551,-0.84521586,-0.8493216,-0.8542609,-0.8550944,-0.8501551,-0.8484881,-0.8542609,-0.8616698,-0.8633059,-0.85836667,-0.8542609,-0.8542609,-0.8534274,-0.8476855,-0.8386096,-0.8369735,-0.8435489,-0.8501551,-0.85179126,-0.8460185,-0.8435489,-0.846852,-0.8501551,-0.8484881,-0.84191275,-0.8402766,-0.84521586,-0.8526248,-0.8542609,-0.8484881,-0.84274626,-0.84438235,-0.8493216,-0.8501551,-0.84521586,-0.84191275,-0.8435489,-0.846852,-0.8460185,-0.8435489,-0.8402766,-0.84274626,-0.8435489,-0.83614,-0.81968606,-0.8048683,-0.79745936,-0.7949897,-0.7851112,-0.76862645,-0.7538086,-0.74639976,-0.7439301,-0.7430966,-0.73982435,-0.740627,-0.7480359,-0.75544477,-0.7562783,-0.7546421,-0.7562783,-0.77109605,-0.79579234,-0.81801903,-0.83780694,-0.8567305,-0.87732106,-0.89213884,-0.89624465,-0.89213884,-0.8855635,-0.8855635,-0.88966924,-0.89050275,-0.8871996,-0.88309383,-0.88309383,-0.88389647,-0.8822603,-0.87732106,-0.87565404,-0.88309383,-0.893775,-0.90118384,-0.9053205,-0.90859276,-0.89050275,-0.80403477,-0.6006606,-0.27213794,0.12720132,0.50845075,0.78264165,0.88309383,0.7900505,0.524102,0.14205003,-0.26553172,-0.598191,-0.8015651,-0.8855635,-0.895442,-0.88309383,-0.8806242,-0.8946085,-0.91436553,-0.93165296,-0.9390619,-0.93412256,-0.92177445,-0.9127294,-0.9127294,-0.9168352,-0.9168352,-0.9102598,-0.90285087,-0.90201735,-0.90118384,-0.89624465,-0.88636607,-0.8789572,-0.8789572,-0.8814268,-0.8781237,-0.8682452,-0.85836667,-0.85836667,-0.86083627,-0.8592001,-0.8526248,-0.84521586,-0.84107924,-0.8386096,-0.8312007,-0.81885254,-0.808974,-0.80320126,-0.798262,-0.78674734,-0.77109605,-0.7587479,-0.75297517,-0.7472333,-0.7332181,-0.7109914,-0.6895982,-0.673947,-0.65829563,-0.6393721,-0.6130088,-0.5883125,-0.569358,-0.549601,-0.5257382,-0.49773878,-0.47137547,-0.45081574,-0.42939168,-0.40386188,-0.37669593,-0.35777247,-0.3536358,-0.36187822,-0.37669593,-0.39812,-0.43433094,-0.48786026,-0.549601,-0.60806954,-0.65665954,-0.702749,-0.74886936,-0.7916866,-0.82542795,-0.8493216,-0.86991215,-0.89213884,-0.91189593,-0.92094094,-0.9193048,-0.9160017,-0.9193048,-0.92507756,-0.9258802,-0.92341053,-0.92341053,-0.92838067,-0.9324864,-0.9300168,-0.9201383,-0.9127294,-0.91436553,-0.9201383,-0.92177445,-0.9176687,-0.9127294,-0.913532,-0.9160017,-0.91436553,-0.90859276,-0.9036535,-0.9036535,-0.9053205,-0.90201735,-0.89213884,-0.88636607,-0.88636607,-0.8871996,-0.88389647,-0.87401795,-0.86744255,-0.8707148,-0.87648755,-0.87648755,-0.8715483,-0.8690787,-0.87318444,-0.87979066,-0.8806242,-0.87485147,-0.8723818,-0.87648755,-0.88309383,-0.8855635,-0.8814268,-0.87979066,-0.88309383,-0.8871996,-0.88636607,-0.88309383,-0.88309383,-0.88966924,-0.89624465,-0.89297235,-0.8806242,-0.8690787,-0.8657755,-0.86744255,-0.86660904,-0.8633059,-0.86413944,-0.86991215,-0.8781237,-0.8814268,-0.87648755,-0.87318444,-0.87401795,-0.87485147,-0.8715483,-0.86413944,-0.86083627,-0.86413944,-0.8682452,-0.8657755,-0.85756403,-0.85095775,-0.85179126,-0.855897,-0.8550944,-0.8476855,-0.84274626,-0.846852,-0.8542609,-0.85756403,-0.8526248,-0.8484881,-0.8501551,-0.855897,-0.85836667,-0.855897,-0.8550944,-0.8592001,-0.8649729,-0.8633059,-0.8534274,-0.84107924,-0.8336703,-0.8270949,-0.81638294,-0.7990955,-0.7793385,-0.7628537,-0.7480359,-0.7332181,-0.72250605,-0.72250605,-0.7340516,-0.74886936,-0.75544477,-0.75217247,-0.7480359,-0.75217247,-0.76205105,-0.7752018,-0.7925201,-0.8155494,-0.8435489,-0.8690787,-0.88309383,-0.88473,-0.8855635,-0.88966924,-0.8946085,-0.89213884,-0.88389647,-0.8789572,-0.8822603,-0.8871996,-0.8880331,-0.8814268,-0.87485147,-0.87401795,-0.87979066,-0.8871996,-0.89297235,-0.90201735,-0.9168352,-0.9176687,-0.86660904,-0.7175668,-0.44914877,-0.08111197,0.32566714,0.684659,0.91436553,0.95224345,0.79168665,0.47467864,0.07533908,-0.31906092,-0.62699306,-0.81801903,-0.89871424,-0.90612316,-0.89297235,-0.8946085,-0.9176687,-0.942365,-0.953077,-0.9497739,-0.9431985,-0.9431985,-0.9448346,-0.9415315,-0.9300168,-0.9193048,-0.9193048,-0.92341053,-0.92507756,-0.9184713,-0.9102598,-0.9053205,-0.90118384,-0.8946085,-0.88309383,-0.87648755,-0.8789572,-0.88389647,-0.8806242,-0.8690787,-0.855897,-0.8484881,-0.84438235,-0.8369735,-0.8237918,-0.8139133,-0.8114437,-0.8139133,-0.8106102,-0.799929,-0.78758085,-0.7793385,-0.7727322,-0.76121753,-0.74146044,-0.7208699,-0.7076883,-0.6970071,-0.6805223,-0.6549926,-0.6286601,-0.6055999,-0.58584285,-0.5611465,-0.5298439,-0.49937487,-0.47631472,-0.455755,-0.43269485,-0.40305924,-0.37505984,-0.3569389,-0.34622687,-0.34212112,-0.3412876,-0.3536358,-0.3849383,-0.4302252,-0.48045135,-0.5298439,-0.5817062,-0.63606894,-0.69040084,-0.73735476,-0.7735657,-0.8023986,-0.8295646,-0.8526248,-0.86744255,-0.87565404,-0.88389647,-0.895442,-0.90612316,-0.9077901,-0.90201735,-0.89954776,-0.9036535,-0.9102598,-0.9110624,-0.9053205,-0.90038127,-0.90038127,-0.90201735,-0.8979116,-0.8880331,-0.87979066,-0.8814268,-0.88473,-0.88309383,-0.87401795,-0.86744255,-0.8682452,-0.87318444,-0.87565404,-0.8715483,-0.86744255,-0.86991215,-0.87485147,-0.87401795,-0.8657755,-0.8592001,-0.8592001,-0.86413944,-0.8649729,-0.86003363,-0.855897,-0.8592001,-0.8657755,-0.8682452,-0.86413944,-0.86003363,-0.8616698,-0.86660904,-0.86744255,-0.8633059,-0.8592001,-0.8625033,-0.8682452,-0.8690787,-0.8625033,-0.8567305,-0.8592001,-0.8649729,-0.86744255,-0.86413944,-0.86083627,-0.8625033,-0.86744255,-0.86660904,-0.85836667,-0.8526248,-0.8550944,-0.8625033,-0.8682452,-0.86744255,-0.8633059,-0.86413944,-0.86413944,-0.86083627,-0.8534274,-0.846852,-0.8484881,-0.8534274,-0.8550944,-0.8542609,-0.8550944,-0.86083627,-0.86660904,-0.8649729,-0.8567305,-0.8493216,-0.8476855,-0.8493216,-0.8493216,-0.8435489,-0.8402766,-0.84274626,-0.846852,-0.84521586,-0.83780694,-0.83286774,-0.8336703,-0.83780694,-0.8369735,-0.8303672,-0.82542795,-0.82789755,-0.83286774,-0.83203423,-0.82295835,-0.81227714,-0.8073379,-0.8015651,-0.7916866,-0.7752018,-0.7562783,-0.740627,-0.7291123,-0.71676415,-0.70441604,-0.69780976,-0.7035825,-0.7150972,-0.7249757,-0.72991496,-0.7348542,-0.7439301,-0.7546421,-0.76452065,-0.7768688,-0.79579234,-0.8213222,-0.8484881,-0.86660904,-0.87318444,-0.87565404,-0.8814268,-0.88636607,-0.88473,-0.87485147,-0.86744255,-0.86744255,-0.8715483,-0.87318444,-0.8690787,-0.86660904,-0.8690787,-0.87648755,-0.88473,-0.89050275,-0.895442,-0.9077901,-0.9102598,-0.86744255,-0.73238456,-0.47961783,-0.116520345,0.2918949,0.6615988,0.904487,0.95307696,0.799929,0.491966,0.09839928,-0.29600078,-0.6097057,-0.8081405,-0.89624465,-0.90612316,-0.8888357,-0.8880331,-0.9102598,-0.9357896,-0.94647074,-0.942365,-0.93332,-0.93165296,-0.93412256,-0.93332,-0.9258802,-0.9184713,-0.9176687,-0.9193048,-0.9160017,-0.90612316,-0.89624465,-0.8913053,-0.8888357,-0.8855635,-0.87732106,-0.8715483,-0.8723818,-0.87485147,-0.8715483,-0.86083627,-0.8493216,-0.84274626,-0.8402766,-0.8345038,-0.82295835,-0.81227714,-0.8081405,-0.8056709,-0.79662585,-0.7834442,-0.7694599,-0.76121753,-0.7546421,-0.74146044,-0.72003645,-0.70027936,-0.6895982,-0.68215847,-0.6706438,-0.6492506,-0.6228873,-0.59902453,-0.57843393,-0.5545403,-0.5265408,-0.5002084,-0.47878432,-0.45986074,-0.43596715,-0.40633154,-0.37752944,-0.3561054,-0.3412876,-0.3305756,-0.3248337,-0.3338787,-0.36351424,-0.4096347,-0.4631639,-0.5150262,-0.5718277,-0.63359934,-0.69534016,-0.74556625,-0.7834442,-0.8155494,-0.846852,-0.87401795,-0.88966924,-0.89297235,-0.8946085,-0.90201735,-0.913532,-0.9184713,-0.91436553,-0.9110624,-0.913532,-0.9201383,-0.92260796,-0.9160017,-0.9102598,-0.9102598,-0.91436553,-0.9160017,-0.9110624,-0.9077901,-0.9102598,-0.91436553,-0.91189593,-0.90285087,-0.89213884,-0.88966924,-0.8913053,-0.88966924,-0.8814268,-0.87648755,-0.8789572,-0.88473,-0.8871996,-0.8822603,-0.87565404,-0.87401795,-0.87648755,-0.87732106,-0.87318444,-0.8707148,-0.87485147,-0.87979066,-0.87979066,-0.87401795,-0.8715483,-0.87648755,-0.88636607,-0.8888357,-0.8822603,-0.87485147,-0.87318444,-0.87648755,-0.87648755,-0.8723818,-0.8682452,-0.86991215,-0.87485147,-0.87401795,-0.86660904,-0.8616698,-0.86413944,-0.86991215,-0.8707148,-0.8649729,-0.8616698,-0.8657755,-0.87485147,-0.87979066,-0.87565404,-0.8690787,-0.86744255,-0.8707148,-0.8715483,-0.8657755,-0.86003363,-0.86003363,-0.8633059,-0.86413944,-0.85836667,-0.8534274,-0.8534274,-0.85756403,-0.86003363,-0.855897,-0.8534274,-0.85756403,-0.86413944,-0.86660904,-0.8625033,-0.8567305,-0.855897,-0.85756403,-0.8567305,-0.8526248,-0.8493216,-0.85095775,-0.85179126,-0.8476855,-0.8369735,-0.82789755,-0.82789755,-0.8303672,-0.82542795,-0.8106102,-0.7925201,-0.7818081,-0.7727322,-0.7562783,-0.7315819,-0.7060521,-0.69123435,-0.69123435,-0.69780976,-0.7019464,-0.7060521,-0.7118249,-0.72003645,-0.7249757,-0.7266427,-0.7315819,-0.7472333,-0.7727322,-0.79662585,-0.8155494,-0.8336703,-0.8501551,-0.86413944,-0.8723818,-0.8682452,-0.8616698,-0.86003363,-0.86083627,-0.86003363,-0.855897,-0.8526248,-0.855897,-0.86083627,-0.8592001,-0.85095775,-0.846852,-0.8550944,-0.86991215,-0.8822603,-0.8855635,-0.8649729,-0.79085314,-0.6146449,-0.31248558,0.087687254,0.4969052,0.8131106,0.9629555,0.9176686,0.6970072,0.34542418,-0.0704,-0.45161837,-0.71676415,-0.8476855,-0.8781237,-0.8690787,-0.86660904,-0.87979066,-0.893775,-0.90285087,-0.9077901,-0.9127294,-0.91189593,-0.904487,-0.89871424,-0.89871424,-0.9036535,-0.9036535,-0.89624465,-0.8888357,-0.8880331,-0.89297235,-0.893775,-0.8880331,-0.87979066,-0.87648755,-0.87732106,-0.8723818,-0.8616698,-0.85179126,-0.8476855,-0.8493216,-0.846852,-0.8345038,-0.82295835,-0.8155494,-0.8139133,-0.808974,-0.7990955,-0.78758085,-0.7793385,-0.7752018,-0.7661568,-0.7497029,-0.7348542,-0.72250605,-0.71262753,-0.6986432,-0.67558306,-0.6541899,-0.6377051,-0.6253569,-0.6064334,-0.5776005,-0.5454953,-0.5183293,-0.49690527,-0.47384506,-0.4458456,-0.41951317,-0.39892262,-0.38080168,-0.3594085,-0.33304518,-0.31248558,-0.30587924,-0.31659132,-0.3355149,-0.3627116,-0.40139228,-0.45655763,-0.52160156,-0.5841758,-0.6385386,-0.6854616,-0.73238456,-0.77767146,-0.8130798,-0.83780694,-0.85836667,-0.8781237,-0.89624465,-0.9077901,-0.9102598,-0.9094263,-0.9127294,-0.9176687,-0.9184713,-0.91189593,-0.9069567,-0.90859276,-0.9160017,-0.9193048,-0.9168352,-0.9102598,-0.90859276,-0.9094263,-0.9069567,-0.90118384,-0.89624465,-0.8970781,-0.90201735,-0.89954776,-0.8880331,-0.87732106,-0.87401795,-0.87648755,-0.87648755,-0.86991215,-0.8616698,-0.8592001,-0.8625033,-0.86413944,-0.86003363,-0.8542609,-0.8550944,-0.86083627,-0.8633059,-0.86003363,-0.8550944,-0.8542609,-0.8567305,-0.8550944,-0.8484881,-0.84438235,-0.846852,-0.8534274,-0.855897,-0.8493216,-0.8435489,-0.8435489,-0.8476855,-0.8501551,-0.84438235,-0.83780694,-0.8369735,-0.84191275,-0.8476855,-0.8493216,-0.8501551,-0.8550944,-0.8616698,-0.86083627,-0.8542609,-0.8484881,-0.85095775,-0.86083627,-0.8657755,-0.8625033,-0.8542609,-0.8501551,-0.8501551,-0.8484881,-0.84521586,-0.84191275,-0.8460185,-0.8526248,-0.85179126,-0.84191275,-0.8312007,-0.8303672,-0.83614,-0.84191275,-0.8394431,-0.8336703,-0.83203423,-0.8345038,-0.8345038,-0.8303672,-0.8270949,-0.82873106,-0.8336703,-0.8345038,-0.8270949,-0.81885254,-0.81638294,-0.81801903,-0.8155494,-0.80403477,-0.7900505,-0.7801411,-0.77192956,-0.75544477,-0.7307485,-0.70935524,-0.7019464,-0.7076883,-0.7175668,-0.7192338,-0.7184003,-0.7217034,-0.7307485,-0.740627,-0.7447636,-0.7497029,-0.7661568,-0.7916866,-0.81801903,-0.83780694,-0.85179126,-0.8633059,-0.8715483,-0.8715483,-0.8649729,-0.85836667,-0.86083627,-0.8682452,-0.8723818,-0.86660904,-0.86003363,-0.85756403,-0.85836667,-0.85756403,-0.8534274,-0.8534274,-0.86413944,-0.88309383,-0.90038127,-0.904487,-0.87565404,-0.7735657,-0.55784345,-0.21777523,0.19885159,0.5924182,0.8592001,0.9300169,0.7990955,0.51255643,0.12886834,-0.27294058,-0.5965549,-0.79332274,-0.8649729,-0.86003363,-0.8435489,-0.85095775,-0.8723818,-0.8880331,-0.89297235,-0.8946085,-0.8979116,-0.89871424,-0.893775,-0.88636607,-0.88389647,-0.88309383,-0.8781237,-0.86744255,-0.855897,-0.85095775,-0.8542609,-0.855897,-0.8526248,-0.846852,-0.8435489,-0.8435489,-0.84191275,-0.8345038,-0.8270949,-0.8246253,-0.8262614,-0.82542795,-0.81801903,-0.8073379,-0.799929,-0.79662585,-0.7916866,-0.7818081,-0.77192956,-0.7669903,-0.7653233,-0.7571118,-0.74146044,-0.72250605,-0.7109914,-0.7019464,-0.6895982,-0.666538,-0.64100826,-0.61878157,-0.6006606,-0.57923657,-0.5529041,-0.5273743,-0.5067838,-0.49032986,-0.46973932,-0.4409064,-0.41127074,-0.38574094,-0.36845356,-0.35116613,-0.33224255,-0.32153058,-0.32646984,-0.34622687,-0.37259018,-0.4046954,-0.4458456,-0.49937487,-0.56278265,-0.62452346,-0.673947,-0.71676415,-0.7595814,-0.80073166,-0.83286774,-0.8526248,-0.8682452,-0.88636607,-0.9069567,-0.92341053,-0.9300168,-0.9324864,-0.9349561,-0.93825924,-0.9357896,-0.9267137,-0.9193048,-0.92094094,-0.9300168,-0.9349561,-0.92918336,-0.92094094,-0.9168352,-0.9184713,-0.9184713,-0.9110624,-0.90285087,-0.90038127,-0.904487,-0.9077901,-0.90285087,-0.8946085,-0.8880331,-0.8871996,-0.8871996,-0.88473,-0.87979066,-0.87979066,-0.88309383,-0.88389647,-0.8806242,-0.87318444,-0.8690787,-0.86991215,-0.8690787,-0.8625033,-0.85756403,-0.8567305,-0.85836667,-0.85836667,-0.85095775,-0.84107924,-0.8369735,-0.84191275,-0.846852,-0.8460185,-0.84521586,-0.84438235,-0.8501551,-0.8534274,-0.8526248,-0.85095775,-0.8542609,-0.8625033,-0.86660904,-0.86413944,-0.8592001,-0.8567305,-0.85756403,-0.855897,-0.85179126,-0.8476855,-0.85095775,-0.86003363,-0.8633059,-0.85836667,-0.85179126,-0.8484881,-0.8534274,-0.855897,-0.8501551,-0.84438235,-0.84191275,-0.84521586,-0.84438235,-0.8386096,-0.8295646,-0.8246253,-0.8237918,-0.8155494,-0.799929,-0.7851112,-0.7735657,-0.7653233,-0.7538086,-0.7340516,-0.71676415,-0.71346104,-0.72250605,-0.7332181,-0.73899084,-0.73899084,-0.74229395,-0.751339,-0.76121753,-0.7694599,-0.7859138,-0.8106102,-0.84191275,-0.86660904,-0.8781237,-0.87979066,-0.8814268,-0.8855635,-0.8855635,-0.8781237,-0.8715483,-0.8715483,-0.87648755,-0.8789572,-0.87318444,-0.8649729,-0.8616698,-0.86413944,-0.86413944,-0.8625033,-0.8625033,-0.8690787,-0.8855635,-0.8979116,-0.8814268,-0.80073166,-0.61711454,-0.31659132,0.06709671,0.45328534,0.73735476,0.83286774,0.7159306,0.43022525,0.05147636,-0.3355149,-0.64184177,-0.82542795,-0.8880331,-0.87401795,-0.84521586,-0.84438235,-0.87318444,-0.90118384,-0.9110624,-0.90612316,-0.90118384,-0.90038127,-0.89871424,-0.89213884,-0.88473,-0.8806242,-0.8806242,-0.8781237,-0.8682452,-0.85836667,-0.8542609,-0.8542609,-0.85179126,-0.8435489,-0.83533734,-0.8336703,-0.83614,-0.83533734,-0.8270949,-0.81638294,-0.81227714,-0.8130798,-0.8106102,-0.80320126,-0.79332274,-0.789217,-0.789217,-0.7859138,-0.7727322,-0.7579144,-0.74886936,-0.7447636,-0.73982435,-0.7258092,-0.70935524,-0.69534016,-0.68793124,-0.6764166,-0.6574621,-0.63359934,-0.6121753,-0.59325176,-0.5685555,-0.5364194,-0.5059812,-0.48208743,-0.46726972,-0.4532854,-0.4302252,-0.4046954,-0.3824687,-0.36681747,-0.3536358,-0.3412876,-0.338818,-0.3536358,-0.38574094,-0.42855823,-0.4755121,-0.5282079,-0.58911514,-0.6525229,-0.7085218,-0.751339,-0.78674734,-0.8204887,-0.855897,-0.8822603,-0.89624465,-0.9036535,-0.90859276,-0.91519904,-0.9184713,-0.9168352,-0.91519904,-0.9184713,-0.92507756,-0.9267137,-0.9201383,-0.9102598,-0.9069567,-0.9102598,-0.913532,-0.9102598,-0.904487,-0.9036535,-0.9077901,-0.9102598,-0.9069567,-0.89954776,-0.8979116,-0.90201735,-0.9036535,-0.89871424,-0.88966924,-0.8822603,-0.88389647,-0.8880331,-0.8880331,-0.8880331,-0.88966924,-0.893775,-0.89297235,-0.88309383,-0.87318444,-0.86991215,-0.87401795,-0.8781237,-0.87648755,-0.8707148,-0.86991215,-0.87401795,-0.87648755,-0.8715483,-0.86413944,-0.86083627,-0.8616698,-0.8616698,-0.8567305,-0.85179126,-0.8526248,-0.8592001,-0.8633059,-0.86003363,-0.8567305,-0.85756403,-0.8657755,-0.87485147,-0.8781237,-0.87732106,-0.87648755,-0.8781237,-0.87565404,-0.86991215,-0.86413944,-0.86413944,-0.8707148,-0.87401795,-0.8715483,-0.8657755,-0.8649729,-0.8690787,-0.8707148,-0.86744255,-0.8616698,-0.86083627,-0.8633059,-0.8633059,-0.8534274,-0.8386096,-0.82873106,-0.82215565,-0.8081405,-0.7851112,-0.7595814,-0.7430966,-0.74229395,-0.7497029,-0.75217247,-0.75297517,-0.75544477,-0.76205105,-0.76862645,-0.77109605,-0.77109605,-0.7826107,-0.8081405,-0.8369735,-0.8616698,-0.87979066,-0.89213884,-0.90285087,-0.9077901,-0.9053205,-0.89954776,-0.89871424,-0.9036535,-0.9077901,-0.9053205,-0.90038127,-0.89871424,-0.90201735,-0.90285087,-0.8979116,-0.893775,-0.90118384,-0.91436553,-0.9267137,-0.9308503,-0.9168352,-0.85836667,-0.7101579,-0.44257337,-0.07370311,0.3231666,0.6475836,0.8180499,0.7949897,0.5965549,0.26553166,-0.13133806,-0.5010419,-0.76205105,-0.89213884,-0.92177445,-0.90859276,-0.90285087,-0.9184713,-0.93989533,-0.9547131,-0.96295553,-0.96542513,-0.9612885,-0.95060736,-0.93825924,-0.9324864,-0.93742573,-0.942365,-0.93825924,-0.9300168,-0.92424405,-0.92424405,-0.92341053,-0.9193048,-0.91189593,-0.90859276,-0.9094263,-0.9077901,-0.90038127,-0.89050275,-0.88473,-0.88389647,-0.8822603,-0.87485147,-0.86744255,-0.8657755,-0.86744255,-0.8657755,-0.8542609,-0.83780694,-0.8246253,-0.8172164,-0.81227714,-0.8023986,-0.7900505,-0.78097457,-0.7735657,-0.76121753,-0.74229395,-0.7184003,-0.69780976,-0.68215847,-0.66323495,-0.6368716,-0.607236,-0.58007014,-0.55867696,-0.53394973,-0.5010419,-0.46726972,-0.4409064,-0.42528594,-0.41293782,-0.39481688,-0.37752944,-0.37092322,-0.3799991,-0.40139228,-0.4302252,-0.4689058,-0.5199654,-0.5825397,-0.64264435,-0.693704,-0.73735476,-0.77850497,-0.81968606,-0.8526248,-0.87318444,-0.88636607,-0.89871424,-0.9160017,-0.9300168,-0.9349561,-0.93412256,-0.93412256,-0.9390619,-0.9431985,-0.942365,-0.93825924,-0.93825924,-0.942365,-0.9431985,-0.93825924,-0.9308503,-0.92838067,-0.9324864,-0.93412256,-0.9275472,-0.9168352,-0.9110624,-0.91189593,-0.91189593,-0.9077901,-0.90038127,-0.8979116,-0.90118384,-0.90285087,-0.89871424,-0.8913053,-0.8888357,-0.893775,-0.895442,-0.89050275,-0.8806242,-0.87565404,-0.8789572,-0.8822603,-0.8806242,-0.87565404,-0.87485147,-0.87979066,-0.88389647,-0.8814268,-0.87648755,-0.87732106,-0.8822603,-0.8871996,-0.8855635,-0.8806242,-0.87979066,-0.88636607,-0.89050275,-0.8871996,-0.8814268,-0.8806242,-0.8855635,-0.8880331,-0.88473,-0.87979066,-0.87979066,-0.88966924,-0.8979116,-0.8979116,-0.89050275,-0.8871996,-0.8888357,-0.8888357,-0.88473,-0.8789572,-0.8781237,-0.8822603,-0.88389647,-0.8781237,-0.86991215,-0.86660904,-0.8715483,-0.87732106,-0.87648755,-0.8690787,-0.8657755,-0.86744255,-0.86660904,-0.8592001,-0.84438235,-0.8303672,-0.82215565,-0.8130798,-0.79745936,-0.77767146,-0.76121753,-0.75217247,-0.7480359,-0.74639976,-0.74639976,-0.7505055,-0.7595814,-0.7661568,-0.7661568,-0.76368713,-0.76779294,-0.78097457,-0.799929,-0.81801903,-0.83614,-0.8592001,-0.8822603,-0.89624465,-0.89871424,-0.8946085,-0.89297235,-0.89954776,-0.9053205,-0.9036535,-0.89954776,-0.8979116,-0.90038127,-0.90118384,-0.89624465,-0.8871996,-0.8880331,-0.90038127,-0.9160017,-0.9258802,-0.93165296,-0.92918336,-0.89213884,-0.7694599,-0.52160156,-0.16097373,0.24660802,0.60806954,0.8443824,0.9036844,0.77356577,0.4820875,0.090990424,-0.31001598,-0.6237208,-0.8130798,-0.89624465,-0.913532,-0.91189593,-0.9168352,-0.93165296,-0.94730425,-0.9580163,-0.9588189,-0.9497739,-0.9390619,-0.9357896,-0.9390619,-0.942365,-0.93825924,-0.9300168,-0.9267137,-0.92918336,-0.9300168,-0.9258802,-0.9160017,-0.9094263,-0.9077901,-0.9069567,-0.89954776,-0.8913053,-0.8855635,-0.8855635,-0.88309383,-0.87485147,-0.8649729,-0.86083627,-0.8649729,-0.8657755,-0.85756403,-0.8460185,-0.83614,-0.8336703,-0.8312007,-0.82215565,-0.8073379,-0.79332274,-0.7851112,-0.77439916,-0.7562783,-0.73568773,-0.7150972,-0.6986432,-0.6805223,-0.6574621,-0.6319324,-0.6113727,-0.5940852,-0.57266116,-0.5421921,-0.5067838,-0.47631472,-0.455755,-0.4376341,-0.41540742,-0.3956195,-0.38327134,-0.3816352,-0.38904417,-0.40058964,-0.42281634,-0.46149695,-0.51585966,-0.5742973,-0.6261904,-0.6747496,-0.72333956,-0.7760353,-0.8213222,-0.8534274,-0.87318444,-0.89050275,-0.90859276,-0.92424405,-0.9308503,-0.9308503,-0.93332,-0.9415315,-0.9497739,-0.95141,-0.9497739,-0.9489404,-0.95141,-0.953077,-0.94730425,-0.9365922,-0.93165296,-0.93332,-0.9357896,-0.9324864,-0.92507756,-0.9201383,-0.92177445,-0.92177445,-0.9160017,-0.90859276,-0.9053205,-0.9094263,-0.9094263,-0.90038127,-0.8880331,-0.8806242,-0.88389647,-0.8871996,-0.88389647,-0.87485147,-0.8707148,-0.87485147,-0.8806242,-0.87979066,-0.87485147,-0.8723818,-0.87732106,-0.88389647,-0.8822603,-0.87732106,-0.87485147,-0.8781237,-0.88309383,-0.8806242,-0.87485147,-0.87318444,-0.87648755,-0.87979066,-0.87565404,-0.86660904,-0.8616698,-0.8657755,-0.8707148,-0.8715483,-0.8682452,-0.86744255,-0.8715483,-0.87485147,-0.8715483,-0.8649729,-0.8616698,-0.8657755,-0.8690787,-0.86660904,-0.8625033,-0.8625033,-0.86991215,-0.87318444,-0.8682452,-0.86003363,-0.8550944,-0.8592001,-0.8649729,-0.8649729,-0.86003363,-0.855897,-0.85756403,-0.85836667,-0.8526248,-0.84521586,-0.84191275,-0.84438235,-0.8435489,-0.83203423,-0.8130798,-0.79579234,-0.78097457,-0.7628537,-0.73982435,-0.7159307,-0.70441604,-0.70935524,-0.72250605,-0.7315819,-0.7348542,-0.73735476,-0.7430966,-0.7472333,-0.7480359,-0.751339,-0.77026254,-0.8015651,-0.8336703,-0.85756403,-0.8682452,-0.87485147,-0.88309383,-0.8880331,-0.8888357,-0.88636607,-0.8871996,-0.893775,-0.8970781,-0.8913053,-0.8822603,-0.8781237,-0.8814268,-0.88473,-0.8822603,-0.87979066,-0.88389647,-0.8970781,-0.9110624,-0.91436553,-0.8814268,-0.77439916,-0.55784345,-0.22107834,0.19144273,0.58584285,0.86086714,0.9489404,0.83780706,0.5660857,0.19144273,-0.21366948,-0.55784345,-0.7834442,-0.88636607,-0.90285087,-0.893775,-0.89871424,-0.9184713,-0.9349561,-0.9390619,-0.9390619,-0.9431985,-0.9456681,-0.942365,-0.9349561,-0.9275472,-0.92341053,-0.9184713,-0.90859276,-0.8970781,-0.89297235,-0.8970781,-0.90201735,-0.90118384,-0.895442,-0.88966924,-0.8871996,-0.88389647,-0.87485147,-0.8633059,-0.85756403,-0.85836667,-0.8567305,-0.8501551,-0.83780694,-0.8295646,-0.82873106,-0.8262614,-0.81801903,-0.80403477,-0.79332274,-0.789217,-0.78427774,-0.7727322,-0.7571118,-0.7439301,-0.73735476,-0.72991496,-0.71262753,-0.6862951,-0.66323495,-0.6443113,-0.6261904,-0.6031302,-0.5751308,-0.5487984,-0.5265408,-0.5051477,-0.47878432,-0.44914877,-0.42281634,-0.40386188,-0.38574094,-0.36518133,-0.34869653,-0.34706038,-0.36598396,-0.39645302,-0.43186134,-0.47304243,-0.5257382,-0.58911514,-0.6525229,-0.7060521,-0.7480359,-0.7851112,-0.82295835,-0.8534274,-0.8723818,-0.88473,-0.8970781,-0.91189593,-0.92507756,-0.92838067,-0.9258802,-0.92507756,-0.92838067,-0.93165296,-0.9275472,-0.92094094,-0.9193048,-0.92507756,-0.9300168,-0.9267137,-0.9168352,-0.9102598,-0.91189593,-0.91436553,-0.9110624,-0.90118384,-0.893775,-0.89297235,-0.893775,-0.8913053,-0.8855635,-0.88309383,-0.8855635,-0.8871996,-0.8822603,-0.87318444,-0.8690787,-0.8723818,-0.87648755,-0.87485147,-0.86991215,-0.86744255,-0.8723818,-0.87648755,-0.87401795,-0.8657755,-0.8616698,-0.8649729,-0.8715483,-0.87401795,-0.87485147,-0.87732106,-0.8822603,-0.88309383,-0.87732106,-0.86744255,-0.8625033,-0.8657755,-0.86991215,-0.8682452,-0.8649729,-0.8649729,-0.8715483,-0.87732106,-0.87401795,-0.86660904,-0.86413944,-0.8682452,-0.87565404,-0.8781237,-0.87485147,-0.87401795,-0.8781237,-0.8814268,-0.8781237,-0.8707148,-0.8657755,-0.8682452,-0.8715483,-0.8707148,-0.86413944,-0.8592001,-0.85836667,-0.8592001,-0.8567305,-0.8534274,-0.8550944,-0.86083627,-0.86413944,-0.8592001,-0.8460185,-0.8369735,-0.8295646,-0.81885254,-0.8015651,-0.7760353,-0.7538086,-0.73982435,-0.7282788,-0.7175668,-0.7118249,-0.71346104,-0.7249757,-0.73899084,-0.74639976,-0.74886936,-0.75217247,-0.760384,-0.77026254,-0.7826107,-0.7990955,-0.82215565,-0.85179126,-0.87648755,-0.8871996,-0.8871996,-0.88473,-0.8855635,-0.88473,-0.8806242,-0.87648755,-0.87648755,-0.88309383,-0.8871996,-0.8822603,-0.87318444,-0.86991215,-0.87565404,-0.88473,-0.8913053,-0.89297235,-0.89954776,-0.913532,-0.9102598,-0.84521586,-0.6706438,-0.37175667,0.019340277,0.42939174,0.76535416,0.9448346,0.9185021,0.6978098,0.3412875,-0.0704,-0.44504303,-0.71346104,-0.8625033,-0.91189593,-0.9069567,-0.89624465,-0.9069567,-0.93165296,-0.94813776,-0.9497739,-0.942365,-0.93825924,-0.9415315,-0.9448346,-0.9415315,-0.9300168,-0.92341053,-0.92507756,-0.9275472,-0.92424405,-0.91436553,-0.90612316,-0.9053205,-0.9053205,-0.90118384,-0.89213884,-0.88636607,-0.8855635,-0.88473,-0.87732106,-0.8649729,-0.8550944,-0.8534274,-0.8526248,-0.84521586,-0.8345038,-0.82295835,-0.8204887,-0.81885254,-0.8130798,-0.80403477,-0.79579234,-0.79085314,-0.7826107,-0.7669903,-0.74556625,-0.7266427,-0.71262753,-0.69780976,-0.67558306,-0.6484171,-0.6237208,-0.60396373,-0.5833732,-0.55620724,-0.5240712,-0.49610263,-0.47467858,-0.45492154,-0.42939168,-0.39812,-0.37259018,-0.35777247,-0.34786302,-0.34212112,-0.34212112,-0.3594085,-0.39812,-0.4499823,-0.5018445,-0.549601,-0.59902453,-0.6541899,-0.7085218,-0.7546421,-0.7916866,-0.8237918,-0.8550944,-0.8781237,-0.8888357,-0.88966924,-0.8913053,-0.89954776,-0.9110624,-0.9176687,-0.9176687,-0.9184713,-0.92260796,-0.92424405,-0.9201383,-0.913532,-0.9102598,-0.91519904,-0.92094094,-0.9193048,-0.9127294,-0.9077901,-0.9069567,-0.90612316,-0.90038127,-0.88966924,-0.88473,-0.8888357,-0.895442,-0.893775,-0.8855635,-0.8781237,-0.87648755,-0.8781237,-0.87648755,-0.8690787,-0.8657755,-0.86991215,-0.87565404,-0.8781237,-0.87485147,-0.8715483,-0.87318444,-0.87565404,-0.87565404,-0.8723818,-0.8715483,-0.87565404,-0.8789572,-0.87648755,-0.86991215,-0.8657755,-0.86744255,-0.8690787,-0.86744255,-0.8625033,-0.86083627,-0.8657755,-0.8690787,-0.8657755,-0.8592001,-0.855897,-0.86003363,-0.86413944,-0.8633059,-0.85836667,-0.8567305,-0.8633059,-0.8715483,-0.87318444,-0.8682452,-0.8625033,-0.8616698,-0.8616698,-0.85836667,-0.8526248,-0.8501551,-0.8550944,-0.8616698,-0.86413944,-0.86003363,-0.8567305,-0.8567305,-0.85836667,-0.8550944,-0.8484881,-0.84438235,-0.846852,-0.85095775,-0.8493216,-0.84274626,-0.8394431,-0.84274626,-0.84521586,-0.84438235,-0.8369735,-0.8312007,-0.83203423,-0.8345038,-0.83286774,-0.82789755,-0.8270949,-0.8295646,-0.8295646,-0.8213222,-0.8023986,-0.7851112,-0.7735657,-0.7628537,-0.7472333,-0.7282788,-0.71262753,-0.7019464,-0.693704,-0.6895982,-0.69123435,-0.70441604,-0.7282788,-0.74886936,-0.7562783,-0.7571118,-0.7694599,-0.79662585,-0.82873106,-0.8534274,-0.8657755,-0.8707148,-0.87732106,-0.88309383,-0.8814268,-0.87648755,-0.87565404,-0.8822603,-0.8888357,-0.88636607,-0.87648755,-0.8690787,-0.8715483,-0.8781237,-0.8814268,-0.8822603,-0.88636607,-0.89624465,-0.9094263,-0.9077901,-0.8633059,-0.7332181,-0.4870267,-0.12473184,0.2918949,0.66406834,0.8905028,0.9069567,0.72500646,0.40222573,0.008659005,-0.37505984,-0.66734064,-0.83614,-0.8888357,-0.87648755,-0.86003363,-0.8715483,-0.89954776,-0.9168352,-0.9160017,-0.9102598,-0.9102598,-0.9168352,-0.9193048,-0.91519904,-0.91189593,-0.9127294,-0.9110624,-0.90285087,-0.8888357,-0.8789572,-0.8806242,-0.88473,-0.88389647,-0.87565404,-0.8682452,-0.86660904,-0.8657755,-0.86003363,-0.8476855,-0.8386096,-0.83614,-0.8345038,-0.82873106,-0.8204887,-0.8139133,-0.8147468,-0.8130798,-0.8048683,-0.7900505,-0.7752018,-0.76779294,-0.760384,-0.7472333,-0.7291123,-0.7150972,-0.7076883,-0.70111287,-0.6854616,-0.6599318,-0.63359934,-0.6121753,-0.5965549,-0.5751308,-0.5479649,-0.5207989,-0.4985723,-0.47878432,-0.45492154,-0.42528594,-0.39645302,-0.37339282,-0.35283315,-0.33304518,-0.31742483,-0.3157578,-0.3355149,-0.37175667,-0.41704357,-0.46480006,-0.51913196,-0.57923657,-0.6393721,-0.69206786,-0.73652124,-0.7760353,-0.8155494,-0.8493216,-0.8707148,-0.88309383,-0.89297235,-0.90612316,-0.91519904,-0.9168352,-0.9110624,-0.9094263,-0.91436553,-0.92094094,-0.92177445,-0.91436553,-0.9094263,-0.9127294,-0.91519904,-0.9127294,-0.9053205,-0.8979116,-0.89624465,-0.8979116,-0.8946085,-0.8871996,-0.8855635,-0.8888357,-0.893775,-0.89213884,-0.8806242,-0.8723818,-0.8690787,-0.8682452,-0.86413944,-0.8567305,-0.8534274,-0.85756403,-0.8657755,-0.8682452,-0.8625033,-0.85756403,-0.86003363,-0.8657755,-0.86744255,-0.8649729,-0.86413944,-0.8657755,-0.8682452,-0.8649729,-0.8550944,-0.85095775,-0.855897,-0.8625033,-0.8625033,-0.8542609,-0.8460185,-0.8476855,-0.85179126,-0.8534274,-0.85179126,-0.85095775,-0.8550944,-0.86003363,-0.86003363,-0.8542609,-0.8493216,-0.8501551,-0.8493216,-0.8402766,-0.82542795,-0.8114437,-0.80403477,-0.79415625,-0.7760353,-0.7538086,-0.7348542,-0.7258092,-0.72744536,-0.72744536,-0.72417307,-0.7249757,-0.7340516,-0.74886936,-0.76121753,-0.77026254,-0.78097457,-0.8023986,-0.82789755,-0.8493216,-0.8633059,-0.87318444,-0.8822603,-0.88966924,-0.89050275,-0.88636607,-0.88473,-0.89050275,-0.8979116,-0.8979116,-0.88966924,-0.87979066,-0.87732106,-0.8781237,-0.87732106,-0.8715483,-0.86744255,-0.8707148,-0.8789572,-0.88636607,-0.893775,-0.904487,-0.9053205,-0.855897,-0.70111287,-0.41951317,-0.04240054,0.34789383,0.6607653,0.81474674,0.76945984,0.5372529,0.17168558,-0.23753226,-0.5833732,-0.8015651,-0.893775,-0.904487,-0.8855635,-0.87485147,-0.88473,-0.904487,-0.92177445,-0.92838067,-0.92260796,-0.9102598,-0.9036535,-0.9053205,-0.90859276,-0.9069567,-0.89954776,-0.8946085,-0.8970781,-0.90118384,-0.89871424,-0.8888357,-0.87732106,-0.87401795,-0.87401795,-0.8723818,-0.8682452,-0.8649729,-0.8649729,-0.86413944,-0.85756403,-0.84438235,-0.8345038,-0.8312007,-0.82873106,-0.8204887,-0.8056709,-0.79415625,-0.79085314,-0.79085314,-0.7851112,-0.7694599,-0.7538086,-0.7439301,-0.73652124,-0.7266427,-0.7101579,-0.6928705,-0.6788862,-0.66323495,-0.64184177,-0.6130088,-0.58500934,-0.56361616,-0.5421921,-0.51749575,-0.4886629,-0.4631639,-0.44420952,-0.4277556,-0.407165,-0.38327134,-0.36351424,-0.35777247,-0.36351424,-0.3791656,-0.4055289,-0.44667912,-0.50267804,-0.5660858,-0.6237208,-0.673947,-0.7208699,-0.76862645,-0.8130798,-0.84521586,-0.8657755,-0.8822603,-0.89871424,-0.9127294,-0.92177445,-0.92260796,-0.92507756,-0.9300168,-0.93412256,-0.9308503,-0.92094094,-0.913532,-0.91436553,-0.9176687,-0.9160017,-0.9094263,-0.9036535,-0.9053205,-0.9102598,-0.90859276,-0.89954776,-0.893775,-0.89297235,-0.895442,-0.893775,-0.88636607,-0.8806242,-0.8806242,-0.88473,-0.8855635,-0.8789572,-0.87401795,-0.87318444,-0.87485147,-0.8707148,-0.86003363,-0.8526248,-0.85095775,-0.8526248,-0.85179126,-0.8460185,-0.84191275,-0.84191275,-0.84438235,-0.84191275,-0.8345038,-0.8295646,-0.8312007,-0.8345038,-0.8336703,-0.82789755,-0.8262614,-0.8303672,-0.8369735,-0.83780694,-0.83286774,-0.8303672,-0.8336703,-0.8386096,-0.8386096,-0.8303672,-0.8246253,-0.8270949,-0.83203423,-0.8336703,-0.82873106,-0.8262614,-0.8312007,-0.8394431,-0.84521586,-0.84274626,-0.8386096,-0.8386096,-0.8386096,-0.83614,-0.83286774,-0.83203423,-0.8369735,-0.84438235,-0.84438235,-0.8369735,-0.8312007,-0.8303672,-0.82789755,-0.81638294,-0.79745936,-0.7801411,-0.76779294,-0.7579144,-0.7430966,-0.72417307,-0.7150972,-0.7192338,-0.72991496,-0.73735476,-0.7381574,-0.7381574,-0.7439301,-0.751339,-0.7587479,-0.76368713,-0.7793385,-0.8056709,-0.83286774,-0.8526248,-0.8625033,-0.86660904,-0.87565404,-0.88309383,-0.8822603,-0.87485147,-0.8682452,-0.8690787,-0.87565404,-0.8781237,-0.87401795,-0.8707148,-0.87318444,-0.87648755,-0.87648755,-0.87401795,-0.87648755,-0.88966924,-0.9053205,-0.91519904,-0.8913053,-0.798262,-0.59902453,-0.28365266,0.11158097,0.5010419,0.78674734,0.89297235,0.80073166,0.54055595,0.17495787,-0.22271442,-0.5611465,-0.7826107,-0.8814268,-0.8970781,-0.8880331,-0.895442,-0.92094094,-0.9415315,-0.94647074,-0.9440011,-0.9440011,-0.9456681,-0.9431985,-0.93742573,-0.93165296,-0.9300168,-0.92918336,-0.92260796,-0.9102598,-0.90038127,-0.89871424,-0.90118384,-0.89871424,-0.8913053,-0.8855635,-0.88309383,-0.88309383,-0.8781237,-0.8682452,-0.8592001,-0.8567305,-0.85756403,-0.8526248,-0.84274626,-0.8345038,-0.83203423,-0.8312007,-0.8246253,-0.80980754,-0.79662585,-0.7900505,-0.7859138,-0.7768688,-0.7595814,-0.7430966,-0.7332181,-0.72744536,-0.71676415,-0.6986432,-0.6772192,-0.6599318,-0.64264435,-0.61878157,-0.5883125,-0.56031305,-0.53972244,-0.52243507,-0.5002084,-0.47220892,-0.4458456,-0.42692208,-0.41127074,-0.39481688,-0.37833208,-0.37259018,-0.38574094,-0.41787708,-0.45739114,-0.5010419,-0.5520706,-0.6130088,-0.673947,-0.72744536,-0.7694599,-0.80650437,-0.84521586,-0.8789572,-0.90285087,-0.91519904,-0.92341053,-0.93332,-0.942365,-0.9448346,-0.9415315,-0.93825924,-0.94072884,-0.9448346,-0.9448346,-0.93989533,-0.9349561,-0.9357896,-0.9390619,-0.9365922,-0.9308503,-0.9258802,-0.9258802,-0.9267137,-0.92341053,-0.91436553,-0.9069567,-0.9077901,-0.91189593,-0.9094263,-0.90118384,-0.8946085,-0.8946085,-0.89871424,-0.8979116,-0.89050275,-0.88309383,-0.88309383,-0.8880331,-0.8888357,-0.8814268,-0.87648755,-0.87732106,-0.8822603,-0.88389647,-0.87979066,-0.87648755,-0.8789572,-0.88309383,-0.88636607,-0.88389647,-0.8814268,-0.88636607,-0.88966924,-0.8871996,-0.8789572,-0.8715483,-0.8715483,-0.87401795,-0.87318444,-0.86660904,-0.8616698,-0.8625033,-0.86744255,-0.86744255,-0.8616698,-0.85836667,-0.86083627,-0.86744255,-0.86744255,-0.86003363,-0.855897,-0.8567305,-0.86083627,-0.8616698,-0.855897,-0.8534274,-0.85756403,-0.86660904,-0.8707148,-0.8657755,-0.86083627,-0.86003363,-0.8625033,-0.8616698,-0.8550944,-0.8493216,-0.85179126,-0.85756403,-0.85756403,-0.85179126,-0.84521586,-0.84521586,-0.8493216,-0.8501551,-0.84521586,-0.84107924,-0.84274626,-0.846852,-0.84521586,-0.8394431,-0.8336703,-0.83533734,-0.8402766,-0.8394431,-0.83203423,-0.82542795,-0.8262614,-0.82873106,-0.8246253,-0.8106102,-0.79579234,-0.78758085,-0.78097457,-0.7694599,-0.7497029,-0.7315819,-0.7217034,-0.7150972,-0.7101579,-0.7068857,-0.7118249,-0.7266427,-0.7430966,-0.7505055,-0.74639976,-0.7480359,-0.76862645,-0.80073166,-0.8312007,-0.85179126,-0.86660904,-0.8789572,-0.8888357,-0.89050275,-0.8814268,-0.8723818,-0.8707148,-0.87485147,-0.87565404,-0.8723818,-0.8690787,-0.8707148,-0.87318444,-0.8723818,-0.86744255,-0.8690787,-0.87979066,-0.895442,-0.9053205,-0.8871996,-0.81227714,-0.64017475,-0.34953004,0.036658525,0.44420946,0.7743993,0.9440011,0.91519904,0.7060522,0.36681736,-0.038294792,-0.42034668,-0.69780976,-0.8493216,-0.893775,-0.8888357,-0.8871996,-0.90285087,-0.9201383,-0.92507756,-0.92507756,-0.9258802,-0.92838067,-0.92838067,-0.9201383,-0.913532,-0.91189593,-0.913532,-0.9094263,-0.8979116,-0.8871996,-0.88389647,-0.88309383,-0.8806242,-0.87401795,-0.86744255,-0.86744255,-0.8715483,-0.86991215,-0.8625033,-0.85756403,-0.8567305,-0.8592001,-0.8567305,-0.8460185,-0.8369735,-0.8345038,-0.83614,-0.83203423,-0.81968606,-0.8048683,-0.79415625,-0.78758085,-0.7768688,-0.760384,-0.7430966,-0.7332181,-0.7258092,-0.71262753,-0.69123435,-0.666538,-0.645114,-0.62452346,-0.598191,-0.5652523,-0.53394973,-0.5100869,-0.49032986,-0.4664362,-0.43516445,-0.40386188,-0.3799991,-0.36434782,-0.34869653,-0.3314091,-0.3223641,-0.32810593,-0.35116613,-0.38327134,-0.4211493,-0.46726972,-0.52243507,-0.5833732,-0.64100826,-0.68793124,-0.7307485,-0.77439916,-0.8155494,-0.846852,-0.86660904,-0.8814268,-0.89624465,-0.9094263,-0.9127294,-0.9077901,-0.9036535,-0.9069567,-0.9127294,-0.91519904,-0.9094263,-0.90201735,-0.90038127,-0.89954776,-0.8970781,-0.8880331,-0.88389647,-0.8871996,-0.89297235,-0.89297235,-0.8855635,-0.8781237,-0.87648755,-0.8789572,-0.87732106,-0.8690787,-0.8616698,-0.86083627,-0.8649729,-0.86660904,-0.8625033,-0.8592001,-0.8625033,-0.86991215,-0.8723818,-0.8682452,-0.8633059,-0.8633059,-0.86744255,-0.86744255,-0.8625033,-0.85836667,-0.8625033,-0.8682452,-0.8707148,-0.8649729,-0.85836667,-0.85836667,-0.8625033,-0.8633059,-0.85836667,-0.855897,-0.85836667,-0.86413944,-0.8690787,-0.8690787,-0.86744255,-0.8682452,-0.8690787,-0.8649729,-0.855897,-0.8493216,-0.8501551,-0.8550944,-0.85756403,-0.8550944,-0.8526248,-0.855897,-0.8616698,-0.8625033,-0.8567305,-0.8526248,-0.8542609,-0.8592001,-0.8592001,-0.85095775,-0.8435489,-0.8435489,-0.8484881,-0.8493216,-0.8435489,-0.8394431,-0.8402766,-0.84438235,-0.84438235,-0.8369735,-0.8295646,-0.82789755,-0.8312007,-0.8312007,-0.82542795,-0.81885254,-0.8139133,-0.8048683,-0.789217,-0.7661568,-0.7447636,-0.72991496,-0.7192338,-0.7068857,-0.6928705,-0.6838255,-0.6862951,-0.69780976,-0.70935524,-0.7175668,-0.7249757,-0.7348542,-0.74556625,-0.7571118,-0.7735657,-0.79745936,-0.8303672,-0.8625033,-0.87979066,-0.8814268,-0.8781237,-0.8781237,-0.88309383,-0.88636607,-0.88309383,-0.87732106,-0.87732106,-0.8806242,-0.8806242,-0.87565404,-0.8707148,-0.8715483,-0.8781237,-0.8855635,-0.88966924,-0.8946085,-0.9069567,-0.9127294,-0.8806242,-0.7628537,-0.5282079,-0.18156421,0.22191179,0.6006607,0.86580634,0.94647074,0.8229891,0.5298438,0.13874698,-0.26719868,-0.5940852,-0.80320126,-0.8970781,-0.9094263,-0.89213884,-0.89050275,-0.9110624,-0.93742573,-0.9497739,-0.9456681,-0.9365922,-0.9324864,-0.93412256,-0.93332,-0.9267137,-0.9184713,-0.91436553,-0.91189593,-0.9077901,-0.89871424,-0.8913053,-0.89050275,-0.893775,-0.8946085,-0.8880331,-0.8806242,-0.87732106,-0.87732106,-0.87485147,-0.86744255,-0.855897,-0.8493216,-0.84521586,-0.8402766,-0.83286774,-0.8262614,-0.8246253,-0.82295835,-0.8172164,-0.8048683,-0.7916866,-0.78427774,-0.77850497,-0.7669903,-0.7480359,-0.7307485,-0.7192338,-0.7109914,-0.6970071,-0.67311347,-0.6459475,-0.6237208,-0.6064334,-0.5817062,-0.5520706,-0.5207989,-0.49526912,-0.47714823,-0.45739114,-0.4302252,-0.40386188,-0.38327134,-0.36845356,-0.3569389,-0.34953004,-0.3561054,-0.3824687,-0.42528594,-0.47467858,-0.52243507,-0.5734947,-0.6311297,-0.69123435,-0.7439301,-0.7851112,-0.81968606,-0.85179126,-0.8789572,-0.8970781,-0.904487,-0.91189593,-0.92260796,-0.93412256,-0.93825924,-0.93412256,-0.92918336,-0.9308503,-0.9357896,-0.93742573,-0.9324864,-0.92838067,-0.9300168,-0.9357896,-0.9357896,-0.92838067,-0.9184713,-0.9160017,-0.9184713,-0.9184713,-0.913532,-0.90859276,-0.9094263,-0.913532,-0.91189593,-0.90201735,-0.89213884,-0.88966924,-0.89297235,-0.8946085,-0.88966924,-0.8822603,-0.8806242,-0.88309383,-0.8822603,-0.87732106,-0.8723818,-0.87485147,-0.87979066,-0.8814268,-0.8781237,-0.87565404,-0.8789572,-0.8855635,-0.8855635,-0.87732106,-0.8690787,-0.8682452,-0.8723818,-0.87485147,-0.8690787,-0.86413944,-0.8649729,-0.86991215,-0.87401795,-0.8715483,-0.86744255,-0.86660904,-0.8682452,-0.86744255,-0.8633059,-0.8616698,-0.86660904,-0.87318444,-0.87565404,-0.86991215,-0.8633059,-0.8616698,-0.8649729,-0.86413944,-0.855897,-0.85095775,-0.8526248,-0.85836667,-0.85836667,-0.85095775,-0.84274626,-0.84274626,-0.8476855,-0.8493216,-0.8435489,-0.83780694,-0.83780694,-0.84107924,-0.84191275,-0.8369735,-0.8295646,-0.8270949,-0.8270949,-0.82215565,-0.808974,-0.79332274,-0.7834442,-0.7752018,-0.760384,-0.73735476,-0.7150972,-0.7019464,-0.6994767,-0.6970071,-0.693704,-0.69534016,-0.7068857,-0.7249757,-0.7381574,-0.740627,-0.7439301,-0.7628537,-0.7949897,-0.8270949,-0.8501551,-0.8657755,-0.87732106,-0.8880331,-0.89050275,-0.88309383,-0.87565404,-0.87485147,-0.8806242,-0.88473,-0.8814268,-0.87565404,-0.87318444,-0.87565404,-0.87318444,-0.86660904,-0.8633059,-0.8715483,-0.8871996,-0.89954776,-0.9036535,-0.8888357,-0.8237918,-0.6615988,-0.37012058,0.028416157,0.44587648,0.7777022,0.9448346,0.9118959,0.70027936,0.35610533,-0.055582166,-0.43843675,-0.7101579,-0.8484881,-0.88473,-0.8781237,-0.87648755,-0.893775,-0.9127294,-0.92341053,-0.9300168,-0.93332,-0.9324864,-0.9258802,-0.9184713,-0.9176687,-0.9193048,-0.9193048,-0.91189593,-0.90201735,-0.8970781,-0.8970781,-0.895442,-0.8871996,-0.87979066,-0.87648755,-0.87732106,-0.87565404,-0.8690787,-0.8616698,-0.85756403,-0.8550944,-0.8493216,-0.8369735,-0.8262614,-0.82215565,-0.8213222,-0.8172164,-0.80403477,-0.7925201,-0.7851112,-0.78097457,-0.7727322,-0.7579144,-0.74146044,-0.73238456,-0.7258092,-0.71346104,-0.693704,-0.6698103,-0.65005326,-0.63606894,-0.61711454,-0.59161556,-0.56278265,-0.5364194,-0.51339006,-0.4886629,-0.4582247,-0.43186134,-0.41046822,-0.39151376,-0.36928707,-0.3412876,-0.31822747,-0.3108185,-0.32153058,-0.33965153,-0.36518133,-0.40222573,-0.455755,-0.5207989,-0.5825397,-0.6368716,-0.6846281,-0.73238456,-0.78097457,-0.81801903,-0.84107924,-0.8567305,-0.87318444,-0.8946085,-0.9102598,-0.91519904,-0.913532,-0.9102598,-0.9102598,-0.9094263,-0.9069567,-0.90612316,-0.9102598,-0.9168352,-0.9176687,-0.9102598,-0.90201735,-0.90038127,-0.9036535,-0.904487,-0.89624465,-0.88636607,-0.88309383,-0.8871996,-0.8888357,-0.88389647,-0.8781237,-0.8781237,-0.8814268,-0.87979066,-0.86991215,-0.85756403,-0.8550944,-0.8649729,-0.87565404,-0.87485147,-0.8690787,-0.8657755,-0.8682452,-0.8707148,-0.8682452,-0.8625033,-0.8616698,-0.8649729,-0.8657755,-0.8616698,-0.855897,-0.8567305,-0.86083627,-0.8625033,-0.85836667,-0.8542609,-0.8567305,-0.8633059,-0.8682452,-0.8657755,-0.8633059,-0.8657755,-0.8707148,-0.8723818,-0.86660904,-0.86003363,-0.85836667,-0.86083627,-0.8592001,-0.8526248,-0.8460185,-0.8460185,-0.85095775,-0.8501551,-0.84107924,-0.82873106,-0.81968606,-0.8147468,-0.8048683,-0.7826107,-0.7562783,-0.73735476,-0.7282788,-0.7282788,-0.7291123,-0.7332181,-0.74229395,-0.75297517,-0.76121753,-0.7628537,-0.7653233,-0.7768688,-0.8015651,-0.82873106,-0.8526248,-0.87401795,-0.893775,-0.9077901,-0.913532,-0.90859276,-0.9036535,-0.904487,-0.91189593,-0.91519904,-0.90859276,-0.89871424,-0.895442,-0.89624465,-0.8946085,-0.8880331,-0.8806242,-0.87979066,-0.8888357,-0.90038127,-0.90612316,-0.91519904,-0.9258802,-0.90859276,-0.81227714,-0.59161556,-0.24824429,0.15933752,0.53561676,0.7941563,0.86907864,0.7430966,0.45245183,0.060521364,-0.33965153,-0.65005326,-0.8345038,-0.904487,-0.9069567,-0.8871996,-0.88473,-0.90118384,-0.92424405,-0.9415315,-0.9448346,-0.93825924,-0.9324864,-0.93412256,-0.94072884,-0.9431985,-0.9365922,-0.92507756,-0.9184713,-0.9168352,-0.9127294,-0.90201735,-0.89050275,-0.88636607,-0.8871996,-0.8871996,-0.87979066,-0.8690787,-0.8616698,-0.85836667,-0.85179126,-0.83780694,-0.8237918,-0.8172164,-0.8172164,-0.81638294,-0.8081405,-0.79745936,-0.7900505,-0.7859138,-0.78097457,-0.7694599,-0.7579144,-0.7505055,-0.74556625,-0.7340516,-0.7150972,-0.6928705,-0.6764166,-0.66570455,-0.6508868,-0.6261904,-0.59902453,-0.5742973,-0.5545403,-0.5314801,-0.50267804,-0.47304243,-0.44751263,-0.42939168,-0.40880114,-0.3841049,-0.360242,-0.34375727,-0.3379845,-0.338818,-0.34786302,-0.37012058,-0.4096347,-0.4664362,-0.5273743,-0.58584285,-0.64264435,-0.6986432,-0.75297517,-0.7949897,-0.8237918,-0.84521586,-0.8649729,-0.88309383,-0.893775,-0.89624465,-0.895442,-0.90118384,-0.9110624,-0.9168352,-0.9127294,-0.9077901,-0.904487,-0.9036535,-0.90118384,-0.893775,-0.8880331,-0.8946085,-0.9069567,-0.91519904,-0.913532,-0.904487,-0.89871424,-0.90118384,-0.90201735,-0.89624465,-0.8888357,-0.8888357,-0.895442,-0.8979116,-0.893775,-0.8855635,-0.8789572,-0.8789572,-0.87732106,-0.8723818,-0.8682452,-0.8690787,-0.87401795,-0.87318444,-0.86660904,-0.8592001,-0.85836667,-0.86660904,-0.86991215,-0.8682452,-0.8649729,-0.8649729,-0.86991215,-0.8682452,-0.86083627,-0.8526248,-0.85095775,-0.855897,-0.86003363,-0.85836667,-0.8534274,-0.855897,-0.8633059,-0.86660904,-0.86083627,-0.8526248,-0.8493216,-0.8526248,-0.8567305,-0.8534274,-0.8484881,-0.8476855,-0.85179126,-0.8534274,-0.8484881,-0.84191275,-0.8386096,-0.83780694,-0.8369735,-0.8336703,-0.8303672,-0.8336703,-0.83780694,-0.83780694,-0.8312007,-0.82295835,-0.82215565,-0.8262614,-0.8295646,-0.82789755,-0.8270949,-0.82873106,-0.8295646,-0.82789755,-0.81801903,-0.80650437,-0.8023986,-0.8015651,-0.79579234,-0.7793385,-0.760384,-0.7447636,-0.7348542,-0.72250605,-0.7076883,-0.693704,-0.6862951,-0.6887647,-0.6945375,-0.70027936,-0.7109914,-0.7258092,-0.74229395,-0.75297517,-0.76121753,-0.7768688,-0.80073166,-0.82873106,-0.8484881,-0.8550944,-0.855897,-0.85756403,-0.8625033,-0.8625033,-0.8567305,-0.85095775,-0.8526248,-0.8592001,-0.8616698,-0.85836667,-0.85179126,-0.8484881,-0.85095775,-0.8534274,-0.8534274,-0.85836667,-0.8715483,-0.8880331,-0.88389647,-0.8147468,-0.64264435,-0.3569389,0.0094617605,0.38493836,0.68052244,0.8073379,0.7282789,0.47387588,0.112383604,-0.26966834,-0.5825397,-0.78097457,-0.86744255,-0.87318444,-0.8484881,-0.8386096,-0.85836667,-0.89050275,-0.9094263,-0.9094263,-0.89954776,-0.8913053,-0.8871996,-0.8855635,-0.8789572,-0.8723818,-0.8723818,-0.87565404,-0.87401795,-0.8633059,-0.8501551,-0.84274626,-0.84274626,-0.8435489,-0.8386096,-0.8312007,-0.82873106,-0.8303672,-0.8303672,-0.8213222,-0.808974,-0.8023986,-0.8023986,-0.799929,-0.7916866,-0.7801411,-0.77192956,-0.77026254,-0.76862645,-0.7595814,-0.7472333,-0.73899084,-0.7348542,-0.72744536,-0.7109914,-0.69206786,-0.6764166,-0.66487104,-0.6508868,-0.6294627,-0.60476637,-0.5825397,-0.5644188,-0.5438591,-0.51666224,-0.4870267,-0.46149695,-0.4409064,-0.42034668,-0.39481688,-0.36765093,-0.34786302,-0.3338787,-0.32153058,-0.31248558,-0.31412172,-0.33471227,-0.37586248,-0.42528594,-0.4755121,-0.5282079,-0.5866455,-0.6484171,-0.702749,-0.7430966,-0.7752018,-0.8073379,-0.8402766,-0.86660904,-0.87732106,-0.87979066,-0.8822603,-0.89050275,-0.89954776,-0.90285087,-0.9053205,-0.9102598,-0.9168352,-0.9201383,-0.91519904,-0.9077901,-0.90612316,-0.913532,-0.9176687,-0.91436553,-0.9069567,-0.90285087,-0.9036535,-0.9053205,-0.90201735,-0.8970781,-0.893775,-0.895442,-0.893775,-0.88636607,-0.87979066,-0.8781237,-0.8814268,-0.8814268,-0.87485147,-0.8682452,-0.86744255,-0.8723818,-0.87318444,-0.86744255,-0.86003363,-0.85836667,-0.8633059,-0.86660904,-0.8625033,-0.8567305,-0.85756403,-0.8649729,-0.8690787,-0.8633059,-0.8550944,-0.8526248,-0.85836667,-0.86660904,-0.86991215,-0.8707148,-0.8715483,-0.87648755,-0.87648755,-0.86991215,-0.8633059,-0.86083627,-0.86413944,-0.8625033,-0.8526248,-0.8394431,-0.82873106,-0.82215565,-0.8155494,-0.80073166,-0.7834442,-0.76862645,-0.7595814,-0.751339,-0.7430966,-0.73982435,-0.7439301,-0.75297517,-0.7587479,-0.7579144,-0.75544477,-0.76368713,-0.7801411,-0.8048683,-0.82542795,-0.8460185,-0.8690787,-0.8913053,-0.90201735,-0.89954776,-0.893775,-0.8913053,-0.895442,-0.8979116,-0.8946085,-0.88966924,-0.88966924,-0.893775,-0.893775,-0.8855635,-0.87648755,-0.87318444,-0.8789572,-0.8871996,-0.89050275,-0.893775,-0.9036535,-0.91189593,-0.87979066,-0.7579144,-0.51585966,-0.16507947,0.23425996,0.5998272,0.8501551,0.9176686,0.78674734,0.491966,0.10003543,-0.29763687,-0.6113727,-0.80403477,-0.89050275,-0.90285087,-0.88966924,-0.88966924,-0.9077901,-0.92838067,-0.93825924,-0.9349561,-0.92918336,-0.9275472,-0.9324864,-0.93332,-0.9258802,-0.91519904,-0.9077901,-0.90859276,-0.9069567,-0.89871424,-0.88966924,-0.8855635,-0.8871996,-0.88636607,-0.87732106,-0.86413944,-0.85836667,-0.8592001,-0.86003363,-0.8534274,-0.84521586,-0.8402766,-0.84107924,-0.84107924,-0.8336703,-0.8246253,-0.81885254,-0.81638294,-0.8081405,-0.79415625,-0.77767146,-0.7694599,-0.7694599,-0.76452065,-0.7480359,-0.7266427,-0.7101579,-0.6986432,-0.6854616,-0.66240144,-0.6311297,-0.6055999,-0.58500934,-0.5660858,-0.54055595,-0.5109204,-0.48455715,-0.46396655,-0.44257337,-0.41621006,-0.38904417,-0.36845356,-0.3594085,-0.3561054,-0.3594085,-0.37505984,-0.407165,-0.45739114,-0.51255655,-0.56361616,-0.6146449,-0.66734064,-0.72250605,-0.7694599,-0.80403477,-0.83203423,-0.85836667,-0.88473,-0.90285087,-0.9110624,-0.91436553,-0.92341053,-0.93412256,-0.9415315,-0.93989533,-0.93332,-0.9308503,-0.93412256,-0.9324864,-0.92507756,-0.913532,-0.9069567,-0.90859276,-0.9094263,-0.9053205,-0.90038127,-0.90118384,-0.9069567,-0.9102598,-0.9077901,-0.90118384,-0.8979116,-0.90038127,-0.90118384,-0.8979116,-0.89213884,-0.8913053,-0.893775,-0.8913053,-0.88309383,-0.87732106,-0.8781237,-0.88636607,-0.89050275,-0.88473,-0.87648755,-0.87401795,-0.8789572,-0.88309383,-0.8806242,-0.87648755,-0.87648755,-0.88389647,-0.88636607,-0.8814268,-0.8715483,-0.86744255,-0.8707148,-0.87401795,-0.8707148,-0.8633059,-0.86003363,-0.8625033,-0.8682452,-0.8707148,-0.86991215,-0.8715483,-0.87485147,-0.87401795,-0.86660904,-0.8592001,-0.86083627,-0.8682452,-0.87401795,-0.8707148,-0.8633059,-0.86083627,-0.86660904,-0.8682452,-0.8616698,-0.8550944,-0.8526248,-0.8592001,-0.8657755,-0.8649729,-0.86083627,-0.8592001,-0.86083627,-0.86003363,-0.85179126,-0.846852,-0.8484881,-0.8550944,-0.8616698,-0.85756403,-0.8501551,-0.846852,-0.8493216,-0.8501551,-0.84521586,-0.8369735,-0.83203423,-0.8303672,-0.8262614,-0.8147468,-0.799929,-0.78758085,-0.7768688,-0.760384,-0.73735476,-0.7150972,-0.702749,-0.702749,-0.7035825,-0.702749,-0.7052187,-0.7175668,-0.7381574,-0.7538086,-0.7562783,-0.75217247,-0.7562783,-0.7793385,-0.808974,-0.83533734,-0.8534274,-0.8649729,-0.8715483,-0.8715483,-0.86660904,-0.8625033,-0.86413944,-0.87401795,-0.8806242,-0.8781237,-0.87318444,-0.87318444,-0.87732106,-0.8789572,-0.87318444,-0.8690787,-0.87318444,-0.88473,-0.8979116,-0.8946085,-0.8501551,-0.7258092,-0.4886629,-0.1354438,0.27707708,0.6525229,0.89707816,0.9497739,0.80980754,0.5199654,0.13874698,-0.26059246,-0.58584285,-0.78758085,-0.8690787,-0.87565404,-0.8657755,-0.87485147,-0.8970781,-0.9102598,-0.913532,-0.9160017,-0.92260796,-0.92838067,-0.9258802,-0.9176687,-0.91189593,-0.91189593,-0.9127294,-0.9077901,-0.90038127,-0.89624465,-0.8946085,-0.8880331,-0.87565404,-0.8633059,-0.8592001,-0.8625033,-0.8649729,-0.85836667,-0.8476855,-0.8402766,-0.8369735,-0.83203423,-0.82295835,-0.8130798,-0.808974,-0.80980754,-0.80650437,-0.79579234,-0.7818081,-0.77192956,-0.76862645,-0.7628537,-0.7505055,-0.73238456,-0.7159307,-0.70441604,-0.69206786,-0.673947,-0.6533564,-0.6352354,-0.6204177,-0.60229677,-0.57843393,-0.5529041,-0.5298439,-0.5092534,-0.48372358,-0.45492154,-0.4236189,-0.40139228,-0.38574094,-0.36928707,-0.34953004,-0.33304518,-0.32977295,-0.34212112,-0.36598396,-0.3956195,-0.43433094,-0.4870267,-0.5529041,-0.61794806,-0.673947,-0.72003645,-0.76121753,-0.8023986,-0.8345038,-0.8534274,-0.8657755,-0.8789572,-0.895442,-0.9069567,-0.9094263,-0.904487,-0.90285087,-0.9069567,-0.9102598,-0.90612316,-0.90038127,-0.90038127,-0.9053205,-0.9069567,-0.90201735,-0.893775,-0.88966924,-0.89297235,-0.89213884,-0.88309383,-0.8707148,-0.8657755,-0.8715483,-0.87648755,-0.87565404,-0.8707148,-0.86991215,-0.87565404,-0.87732106,-0.8723818,-0.8633059,-0.85836667,-0.86003363,-0.8649729,-0.86413944,-0.85836667,-0.8567305,-0.8616698,-0.8657755,-0.86413944,-0.8592001,-0.8550944,-0.85836667,-0.86083627,-0.8592001,-0.8550944,-0.8542609,-0.85836667,-0.86003363,-0.8567305,-0.85179126,-0.85095775,-0.8550944,-0.8592001,-0.85756403,-0.8534274,-0.8542609,-0.8592001,-0.86003363,-0.8550944,-0.8476855,-0.8476855,-0.8526248,-0.855897,-0.8501551,-0.84107924,-0.8386096,-0.8435489,-0.8460185,-0.84274626,-0.83614,-0.8336703,-0.8386096,-0.84438235,-0.84274626,-0.83780694,-0.83614,-0.84107924,-0.84191275,-0.83286774,-0.81968606,-0.80650437,-0.79579234,-0.789217,-0.78097457,-0.7768688,-0.7768688,-0.77192956,-0.7472333,-0.7068857,-0.6698103,-0.6615988,-0.6854616,-0.72417307,-0.76121753,-0.7883835,-0.8155494,-0.84274626,-0.8657755,-0.8781237,-0.8806242,-0.8806242,-0.8822603,-0.8822603,-0.8781237,-0.87565404,-0.87979066,-0.8880331,-0.8913053,-0.8855635,-0.87732106,-0.87485147,-0.8789572,-0.8806242,-0.87318444,-0.8657755,-0.86991215,-0.88473,-0.90201735,-0.9094263,-0.88636607,-0.8015651,-0.61384225,-0.302607,0.09923279,0.50431406,0.8081714,0.9357896,0.86497283,0.6245544,0.26472902,-0.14532238,-0.5109204,-0.7587479,-0.87401795,-0.895442,-0.8822603,-0.88389647,-0.9036535,-0.92341053,-0.9324864,-0.93742573,-0.9440011,-0.94647074,-0.9415315,-0.93165296,-0.9258802,-0.9267137,-0.92918336,-0.9258802,-0.9176687,-0.9094263,-0.904487,-0.90118384,-0.895442,-0.89050275,-0.8913053,-0.895442,-0.89624465,-0.8871996,-0.87485147,-0.8690787,-0.8707148,-0.8690787,-0.86083627,-0.8484881,-0.8386096,-0.83614,-0.8336703,-0.82542795,-0.8130798,-0.80403477,-0.80073166,-0.79415625,-0.7793385,-0.76368713,-0.7505055,-0.7439301,-0.7348542,-0.7150972,-0.69040084,-0.66734064,-0.6492506,-0.6311297,-0.60476637,-0.5718277,-0.5421921,-0.5183293,-0.4944356,-0.4664362,-0.4368006,-0.41210425,-0.39151376,-0.37092322,-0.34786302,-0.32810593,-0.3248337,-0.33965153,-0.36765093,-0.40305924,-0.44504303,-0.49690527,-0.56031305,-0.6212512,-0.67311347,-0.7175668,-0.760384,-0.8015651,-0.8336703,-0.8534274,-0.8633059,-0.87648755,-0.89297235,-0.9069567,-0.9102598,-0.9077901,-0.9069567,-0.9110624,-0.913532,-0.9110624,-0.9069567,-0.904487,-0.90859276,-0.9102598,-0.904487,-0.89624465,-0.89297235,-0.895442,-0.89871424,-0.8970781,-0.89050275,-0.8880331,-0.8888357,-0.8888357,-0.88473,-0.8789572,-0.87979066,-0.8880331,-0.89297235,-0.89050275,-0.88309383,-0.8781237,-0.88389647,-0.88966924,-0.88966924,-0.88473,-0.8806242,-0.8806242,-0.8806242,-0.87648755,-0.8715483,-0.87318444,-0.87979066,-0.8855635,-0.88309383,-0.8781237,-0.87401795,-0.87732106,-0.8781237,-0.87318444,-0.86660904,-0.8657755,-0.8715483,-0.87485147,-0.87401795,-0.86991215,-0.8723818,-0.8814268,-0.8888357,-0.8880331,-0.8806242,-0.87485147,-0.87648755,-0.8789572,-0.8781237,-0.87485147,-0.87485147,-0.87485147,-0.87318444,-0.8657755,-0.8592001,-0.86083627,-0.8707148,-0.87648755,-0.87318444,-0.8649729,-0.86083627,-0.86413944,-0.8657755,-0.8616698,-0.8542609,-0.85179126,-0.8550944,-0.85836667,-0.8526248,-0.84438235,-0.8394431,-0.8394431,-0.8345038,-0.81968606,-0.798262,-0.7768688,-0.760384,-0.74556625,-0.7282788,-0.7118249,-0.70441604,-0.7035825,-0.7076883,-0.71346104,-0.7217034,-0.73652124,-0.75217247,-0.76205105,-0.76368713,-0.7760353,-0.8015651,-0.83780694,-0.8690787,-0.88309383,-0.88473,-0.8871996,-0.8970781,-0.9036535,-0.90201735,-0.89297235,-0.88636607,-0.88636607,-0.8880331,-0.88636607,-0.8806242,-0.8781237,-0.87979066,-0.87979066,-0.8781237,-0.8789572,-0.8871996,-0.9069567,-0.92177445,-0.9053205,-0.81638294,-0.61711454,-0.2993039,0.1033386,0.5067837,0.8139132,0.9440011,0.86497283,0.61467576,0.25154734,-0.14942813,-0.5002084,-0.7430966,-0.8649729,-0.89213884,-0.8806242,-0.8814268,-0.904487,-0.9300168,-0.93825924,-0.9308503,-0.92424405,-0.9258802,-0.92918336,-0.9275472,-0.92094094,-0.9160017,-0.9184713,-0.9201383,-0.9176687,-0.9110624,-0.9069567,-0.90859276,-0.9094263,-0.90118384,-0.8888357,-0.8789572,-0.87648755,-0.87485147,-0.86991215,-0.86413944,-0.85836667,-0.85836667,-0.8550944,-0.84438235,-0.8312007,-0.8237918,-0.8237918,-0.82215565,-0.81227714,-0.7990955,-0.789217,-0.78674734,-0.78427774,-0.77439916,-0.7562783,-0.7381574,-0.7192338,-0.6994767,-0.67227995,-0.6443113,-0.6237208,-0.6105392,-0.5965549,-0.5751308,-0.54466176,-0.5150262,-0.4870267,-0.46069425,-0.43269485,-0.40633154,-0.3849383,-0.36845356,-0.35116613,-0.33224255,-0.32153058,-0.32893944,-0.35777247,-0.39728653,-0.44010377,-0.48949635,-0.5471314,-0.6105392,-0.6706438,-0.7184003,-0.7562783,-0.7925201,-0.83286774,-0.8682452,-0.8913053,-0.90285087,-0.9094263,-0.9176687,-0.92424405,-0.92507756,-0.92341053,-0.92260796,-0.9258802,-0.9275472,-0.92341053,-0.9168352,-0.91519904,-0.92341053,-0.9300168,-0.9267137,-0.9176687,-0.90859276,-0.904487,-0.90201735,-0.89624465,-0.89050275,-0.8888357,-0.8946085,-0.8979116,-0.893775,-0.8855635,-0.88309383,-0.8888357,-0.89297235,-0.89050275,-0.8822603,-0.87648755,-0.8789572,-0.8814268,-0.8789572,-0.87401795,-0.8723818,-0.8781237,-0.88309383,-0.8781237,-0.86744255,-0.8592001,-0.8567305,-0.8567305,-0.855897,-0.8526248,-0.8534274,-0.86003363,-0.8616698,-0.8567305,-0.8476855,-0.84274626,-0.8460185,-0.8501551,-0.8501551,-0.8460185,-0.8435489,-0.8460185,-0.8484881,-0.84438235,-0.8386096,-0.83533734,-0.8394431,-0.84191275,-0.83780694,-0.8312007,-0.8295646,-0.8345038,-0.8402766,-0.8402766,-0.83533734,-0.8345038,-0.8394431,-0.84191275,-0.8394431,-0.83286774,-0.82789755,-0.82789755,-0.82295835,-0.8114437,-0.7949897,-0.7801411,-0.7735657,-0.77192956,-0.7727322,-0.77109605,-0.7628537,-0.7430966,-0.7085218,-0.66900766,-0.6475836,-0.6541899,-0.68793124,-0.73238456,-0.77026254,-0.7990955,-0.8237918,-0.8460185,-0.86083627,-0.8633059,-0.85756403,-0.855897,-0.8625033,-0.86991215,-0.8715483,-0.8682452,-0.8657755,-0.86991215,-0.87401795,-0.8715483,-0.8649729,-0.86083627,-0.8633059,-0.8657755,-0.86660904,-0.86991215,-0.8806242,-0.89954776,-0.9184713,-0.9127294,-0.8526248,-0.6994767,-0.42939168,-0.055582166,0.35116613,0.693704,0.8707458,0.8312007,0.5998272,0.24250233,-0.16507947,-0.5290104,-0.77850497,-0.8979116,-0.91189593,-0.8814268,-0.8657755,-0.8822603,-0.90859276,-0.92260796,-0.92094094,-0.9176687,-0.92260796,-0.9267137,-0.92094094,-0.90859276,-0.89871424,-0.8970781,-0.89954776,-0.89954776,-0.893775,-0.89050275,-0.893775,-0.89624465,-0.89297235,-0.88473,-0.87565404,-0.86991215,-0.8649729,-0.8526248,-0.8369735,-0.8295646,-0.8312007,-0.83286774,-0.8262614,-0.8130798,-0.8048683,-0.80403477,-0.80650437,-0.80403477,-0.7925201,-0.77850497,-0.7694599,-0.76121753,-0.7505055,-0.73652124,-0.7249757,-0.7159307,-0.7035825,-0.68215847,-0.655826,-0.63029623,-0.60890305,-0.587479,-0.55947953,-0.5265408,-0.49937487,-0.47878432,-0.4582247,-0.43102783,-0.39975613,-0.37259018,-0.3569389,-0.34539336,-0.33304518,-0.3223641,-0.32400018,-0.34622687,-0.3824687,-0.4277556,-0.47961783,-0.53972244,-0.60476637,-0.666538,-0.71429455,-0.751339,-0.7826107,-0.81885254,-0.8501551,-0.8715483,-0.88309383,-0.893775,-0.9053205,-0.91519904,-0.9201383,-0.9176687,-0.9176687,-0.92094094,-0.92260796,-0.9160017,-0.9053205,-0.90118384,-0.9053205,-0.9110624,-0.9127294,-0.9077901,-0.904487,-0.9094263,-0.913532,-0.9102598,-0.90118384,-0.893775,-0.8946085,-0.89624465,-0.895442,-0.88966924,-0.88636607,-0.89050275,-0.8946085,-0.89213884,-0.8822603,-0.87648755,-0.8789572,-0.8814268,-0.8806242,-0.87318444,-0.86744255,-0.8682452,-0.8707148,-0.86744255,-0.8625033,-0.8616698,-0.86660904,-0.8723818,-0.8707148,-0.86413944,-0.86003363,-0.8633059,-0.86744255,-0.86660904,-0.8625033,-0.8625033,-0.86991215,-0.87648755,-0.87485147,-0.8682452,-0.86413944,-0.8657755,-0.8682452,-0.8633059,-0.85179126,-0.84107924,-0.83533734,-0.8270949,-0.81638294,-0.8023986,-0.7900505,-0.7801411,-0.77026254,-0.7546421,-0.73982435,-0.73238456,-0.7348542,-0.73735476,-0.73568773,-0.7348542,-0.73982435,-0.75297517,-0.76862645,-0.7851112,-0.8056709,-0.83203423,-0.8616698,-0.88473,-0.893775,-0.89297235,-0.8946085,-0.90118384,-0.90612316,-0.90201735,-0.8946085,-0.89213884,-0.8979116,-0.9053205,-0.9053205,-0.8979116,-0.89213884,-0.89213884,-0.89213884,-0.88966924,-0.89050275,-0.8979116,-0.91436553,-0.93332,-0.9349561,-0.89297235,-0.76779294,-0.5323136,-0.18567002,0.21366942,0.57432806,0.798262,0.8221556,0.6517203,0.3371818,-0.049809396,-0.42528594,-0.7068857,-0.8633059,-0.90612316,-0.8888357,-0.8707148,-0.8822603,-0.9102598,-0.92918336,-0.93165296,-0.9258802,-0.92260796,-0.9201383,-0.91519904,-0.9102598,-0.90859276,-0.91436553,-0.9168352,-0.9102598,-0.89954776,-0.89297235,-0.893775,-0.8970781,-0.893775,-0.88473,-0.8781237,-0.8781237,-0.87732106,-0.87401795,-0.8657755,-0.8592001,-0.85836667,-0.855897,-0.8484881,-0.83780694,-0.8312007,-0.8312007,-0.8312007,-0.8237918,-0.8106102,-0.799929,-0.79415625,-0.78758085,-0.77439916,-0.7579144,-0.74639976,-0.74146044,-0.73652124,-0.72250605,-0.6986432,-0.673947,-0.6533564,-0.63359934,-0.607236,-0.57843393,-0.55373764,-0.53394973,-0.51339006,-0.48455715,-0.45081574,-0.42034668,-0.40058964,-0.38821065,-0.37586248,-0.36681747,-0.37259018,-0.39728653,-0.43516445,-0.48045135,-0.5290104,-0.5841758,-0.64678097,-0.7052187,-0.75217247,-0.7883835,-0.82215565,-0.85756403,-0.88636607,-0.90201735,-0.9069567,-0.9102598,-0.92094094,-0.93412256,-0.93989533,-0.93825924,-0.93742573,-0.942365,-0.94647074,-0.9456681,-0.93742573,-0.9308503,-0.9324864,-0.9349561,-0.93412256,-0.92918336,-0.9258802,-0.92838067,-0.9308503,-0.92838067,-0.92177445,-0.9168352,-0.9168352,-0.9176687,-0.91436553,-0.90612316,-0.90118384,-0.9036535,-0.9053205,-0.90285087,-0.8979116,-0.8979116,-0.90285087,-0.9077901,-0.9077901,-0.90118384,-0.8979116,-0.90201735,-0.9053205,-0.90285087,-0.89297235,-0.88636607,-0.8871996,-0.89213884,-0.8946085,-0.89213884,-0.88966924,-0.893775,-0.89871424,-0.89871424,-0.8946085,-0.8913053,-0.8946085,-0.8970781,-0.893775,-0.88636607,-0.8806242,-0.88309383,-0.89050275,-0.89213884,-0.8888357,-0.8871996,-0.89050275,-0.8946085,-0.89050275,-0.8806242,-0.87318444,-0.87318444,-0.87565404,-0.87565404,-0.87318444,-0.87485147,-0.8822603,-0.8871996,-0.88473,-0.87648755,-0.87485147,-0.88309383,-0.89297235,-0.895442,-0.89050275,-0.88473,-0.88389647,-0.88473,-0.8822603,-0.8781237,-0.87648755,-0.8806242,-0.88473,-0.88309383,-0.87401795,-0.86991215,-0.8715483,-0.87485147,-0.87318444,-0.8633059,-0.85095775,-0.8386096,-0.8246253,-0.8023986,-0.77439916,-0.7538086,-0.74229395,-0.73652124,-0.72991496,-0.7217034,-0.72250605,-0.73652124,-0.7538086,-0.76862645,-0.7735657,-0.7752018,-0.78427774,-0.80073166,-0.8204887,-0.84107924,-0.86413944,-0.8888357,-0.9036535,-0.9069567,-0.90038127,-0.89213884,-0.89213884,-0.893775,-0.89297235,-0.88966924,-0.8880331,-0.89297235,-0.8970781,-0.8946085,-0.8880331,-0.88473,-0.89297235,-0.90285087,-0.9110624,-0.91436553,-0.9069567,-0.855897,-0.71262753,-0.4409064,-0.06299108,0.34375715,0.6838255,0.8764875,0.8789573,0.6978098,0.37092328,-0.03415817,-0.4186797,-0.6970071,-0.846852,-0.89624465,-0.89871424,-0.8970781,-0.90859276,-0.9267137,-0.9415315,-0.95060736,-0.95141,-0.9448346,-0.9357896,-0.9324864,-0.93825924,-0.94072884,-0.9365922,-0.9258802,-0.9176687,-0.913532,-0.9127294,-0.90612316,-0.8970781,-0.89297235,-0.895442,-0.8970781,-0.8913053,-0.8781237,-0.8690787,-0.86660904,-0.86744255,-0.8649729,-0.8567305,-0.8484881,-0.84438235,-0.8394431,-0.82873106,-0.8139133,-0.80403477,-0.80073166,-0.7990955,-0.7900505,-0.7752018,-0.7628537,-0.7562783,-0.74886936,-0.7332181,-0.7076883,-0.6805223,-0.66323495,-0.6492506,-0.6311297,-0.60396373,-0.5751308,-0.551268,-0.5273743,-0.50267804,-0.47467858,-0.44834614,-0.42692208,-0.4055289,-0.3824687,-0.358575,-0.34292376,-0.34045416,-0.34622687,-0.3594085,-0.3824687,-0.42281634,-0.48045135,-0.5421921,-0.59488785,-0.64264435,-0.6895982,-0.7381574,-0.7818081,-0.81227714,-0.82873106,-0.84521586,-0.86744255,-0.8855635,-0.893775,-0.8913053,-0.88636607,-0.8888357,-0.89624465,-0.89871424,-0.895442,-0.89213884,-0.89297235,-0.893775,-0.89213884,-0.88636607,-0.88389647,-0.8880331,-0.89297235,-0.88966924,-0.8781237,-0.8690787,-0.86660904,-0.86991215,-0.8707148,-0.8649729,-0.86083627,-0.86003363,-0.8616698,-0.86003363,-0.8550944,-0.8534274,-0.85756403,-0.8633059,-0.86413944,-0.8592001,-0.855897,-0.85756403,-0.86003363,-0.86003363,-0.85756403,-0.85756403,-0.86413944,-0.86991215,-0.8690787,-0.8633059,-0.86083627,-0.86413944,-0.8682452,-0.86744255,-0.86083627,-0.8542609,-0.8534274,-0.8550944,-0.8526248,-0.8484881,-0.8460185,-0.8501551,-0.8542609,-0.8534274,-0.8476855,-0.84521586,-0.846852,-0.8526248,-0.8550944,-0.8526248,-0.8534274,-0.85756403,-0.8625033,-0.8625033,-0.85756403,-0.8550944,-0.85756403,-0.86083627,-0.86003363,-0.8542609,-0.85179126,-0.8567305,-0.86083627,-0.8592001,-0.85095775,-0.84521586,-0.846852,-0.85179126,-0.85095775,-0.84521586,-0.8402766,-0.8386096,-0.83203423,-0.81638294,-0.79332274,-0.77026254,-0.7546421,-0.7430966,-0.7282788,-0.71346104,-0.7076883,-0.7150972,-0.7291123,-0.74229395,-0.7480359,-0.751339,-0.7579144,-0.7661568,-0.77767146,-0.7949897,-0.81968606,-0.8493216,-0.87485147,-0.88636607,-0.8871996,-0.8880331,-0.89213884,-0.8970781,-0.895442,-0.88966924,-0.8855635,-0.8880331,-0.89297235,-0.89297235,-0.88636607,-0.8806242,-0.8814268,-0.88309383,-0.88473,-0.8855635,-0.89213884,-0.9102598,-0.92341053,-0.90201735,-0.8023986,-0.58911514,-0.25978976,0.14285266,0.5372529,0.82956445,0.94319844,0.85095775,0.58500934,0.2087301,-0.19718462,-0.5430256,-0.7760353,-0.8880331,-0.9094263,-0.89213884,-0.8855635,-0.9053205,-0.92838067,-0.93989533,-0.9357896,-0.9258802,-0.9201383,-0.9176687,-0.913532,-0.90859276,-0.9077901,-0.91189593,-0.9127294,-0.9077901,-0.8979116,-0.88966924,-0.89050275,-0.89213884,-0.8871996,-0.87565404,-0.8657755,-0.86413944,-0.86744255,-0.86660904,-0.86083627,-0.8550944,-0.8550944,-0.855897,-0.85095775,-0.8394431,-0.8295646,-0.8270949,-0.8270949,-0.82295835,-0.8106102,-0.79662585,-0.7859138,-0.7768688,-0.7661568,-0.7480359,-0.7307485,-0.7184003,-0.7076883,-0.69123435,-0.66900766,-0.6475836,-0.6294627,-0.6105392,-0.58500934,-0.5529041,-0.52160156,-0.4985723,-0.47961783,-0.4582247,-0.43186134,-0.4079985,-0.39068025,-0.3791656,-0.36845356,-0.360242,-0.36598396,-0.39151376,-0.43349743,-0.48292094,-0.5331471,-0.587479,-0.6475836,-0.7060521,-0.7546421,-0.7925201,-0.8246253,-0.85836667,-0.8871996,-0.90612316,-0.9160017,-0.9258802,-0.9390619,-0.9497739,-0.95141,-0.9456681,-0.9415315,-0.9448346,-0.9522435,-0.953077,-0.94730425,-0.9415315,-0.942365,-0.94647074,-0.9448346,-0.93742573,-0.9324864,-0.9324864,-0.93412256,-0.9308503,-0.9201383,-0.9110624,-0.90859276,-0.9094263,-0.9077901,-0.90118384,-0.89624465,-0.8979116,-0.90038127,-0.8979116,-0.88636607,-0.8789572,-0.8822603,-0.88966924,-0.893775,-0.88966924,-0.88309383,-0.87979066,-0.87979066,-0.8781237,-0.87318444,-0.8723818,-0.8781237,-0.88389647,-0.8822603,-0.87485147,-0.86991215,-0.87318444,-0.8814268,-0.88473,-0.87979066,-0.87565404,-0.87401795,-0.87565404,-0.87565404,-0.8715483,-0.86991215,-0.87401795,-0.8781237,-0.87732106,-0.8690787,-0.8633059,-0.8633059,-0.86660904,-0.8682452,-0.8657755,-0.8633059,-0.86660904,-0.8707148,-0.8707148,-0.86660904,-0.86413944,-0.8682452,-0.8723818,-0.86991215,-0.86083627,-0.8542609,-0.8542609,-0.85756403,-0.8542609,-0.8435489,-0.83614,-0.8386096,-0.8460185,-0.85095775,-0.846852,-0.83780694,-0.8312007,-0.8237918,-0.81227714,-0.7990955,-0.7883835,-0.7818081,-0.7735657,-0.7571118,-0.73568773,-0.7217034,-0.72003645,-0.72417307,-0.72744536,-0.7307485,-0.73899084,-0.75544477,-0.77192956,-0.7793385,-0.7834442,-0.798262,-0.82542795,-0.85836667,-0.88309383,-0.89213884,-0.8946085,-0.8979116,-0.89954776,-0.895442,-0.8880331,-0.8855635,-0.8913053,-0.8979116,-0.8970781,-0.8888357,-0.87979066,-0.87565404,-0.87485147,-0.8723818,-0.8723818,-0.8814268,-0.8970781,-0.9127294,-0.9193048,-0.8970781,-0.81638294,-0.6368716,-0.33471227,0.063824534,0.47551215,0.79579234,0.9357896,0.868276,0.6245544,0.2638955,-0.14448887,-0.5109204,-0.7628537,-0.8880331,-0.913532,-0.90118384,-0.89954776,-0.9193048,-0.9390619,-0.9431985,-0.93989533,-0.94072884,-0.9440011,-0.9456681,-0.94072884,-0.9357896,-0.9365922,-0.93742573,-0.93332,-0.92260796,-0.9127294,-0.9102598,-0.90859276,-0.904487,-0.895442,-0.89050275,-0.89213884,-0.895442,-0.89297235,-0.88309383,-0.8723818,-0.8682452,-0.86991215,-0.8682452,-0.86083627,-0.8542609,-0.8501551,-0.84438235,-0.83533734,-0.8213222,-0.808974,-0.8023986,-0.79745936,-0.78674734,-0.77192956,-0.7571118,-0.7480359,-0.740627,-0.7249757,-0.70111287,-0.6764166,-0.6574621,-0.64264435,-0.6237208,-0.5973575,-0.57019156,-0.5463288,-0.5249047,-0.49937487,-0.4689058,-0.44173986,-0.4211493,-0.4046954,-0.3849383,-0.3627116,-0.35116613,-0.3569389,-0.38080168,-0.41704357,-0.45986074,-0.5109204,-0.5718277,-0.63359934,-0.6895982,-0.7348542,-0.77439916,-0.8130798,-0.8476855,-0.87401795,-0.88966924,-0.904487,-0.9193048,-0.93332,-0.93989533,-0.94072884,-0.9415315,-0.94730425,-0.9497739,-0.94647074,-0.9365922,-0.92918336,-0.93165296,-0.93989533,-0.9431985,-0.93989533,-0.93825924,-0.9390619,-0.9415315,-0.93742573,-0.9275472,-0.9201383,-0.9201383,-0.92177445,-0.9193048,-0.9102598,-0.90038127,-0.89871424,-0.90038127,-0.89624465,-0.8888357,-0.8855635,-0.88966924,-0.895442,-0.89624465,-0.8888357,-0.88309383,-0.88389647,-0.89050275,-0.8946085,-0.895442,-0.8970781,-0.89954776,-0.90285087,-0.89871424,-0.88966924,-0.88473,-0.88636607,-0.89050275,-0.88966924,-0.88389647,-0.8806242,-0.88473,-0.8913053,-0.8913053,-0.8880331,-0.8822603,-0.88473,-0.88966924,-0.8880331,-0.8789572,-0.8723818,-0.87318444,-0.87979066,-0.8822603,-0.87565404,-0.8690787,-0.8682452,-0.87318444,-0.87565404,-0.87318444,-0.8682452,-0.8657755,-0.8649729,-0.86413944,-0.86003363,-0.8592001,-0.8657755,-0.8723818,-0.8715483,-0.8649729,-0.86003363,-0.86083627,-0.86413944,-0.8633059,-0.8550944,-0.846852,-0.84521586,-0.84274626,-0.8270949,-0.8056709,-0.7859138,-0.7727322,-0.76368713,-0.74886936,-0.72744536,-0.7118249,-0.7068857,-0.7118249,-0.7192338,-0.7258092,-0.73568773,-0.74886936,-0.7595814,-0.76368713,-0.7694599,-0.78674734,-0.81968606,-0.8542609,-0.87979066,-0.8888357,-0.88966924,-0.89213884,-0.8970781,-0.8979116,-0.89624465,-0.8946085,-0.895442,-0.89871424,-0.89624465,-0.88966924,-0.88473,-0.8871996,-0.89297235,-0.895442,-0.89624465,-0.90118384,-0.913532,-0.9300168,-0.9365922,-0.9127294,-0.8262614,-0.63606894,-0.3248337,0.07864225,0.491966,0.8073379,0.9407289,0.8633368,0.6097057,0.24166882,-0.17085218,-0.5323136,-0.77850497,-0.89213884,-0.9069567,-0.88389647,-0.87648755,-0.89954776,-0.9267137,-0.9390619,-0.9440011,-0.9448346,-0.94647074,-0.9448346,-0.9357896,-0.9258802,-0.92177445,-0.92260796,-0.9184713,-0.90859276,-0.89871424,-0.8946085,-0.89213884,-0.8871996,-0.87485147,-0.8633059,-0.8592001,-0.8592001,-0.8567305,-0.8501551,-0.84521586,-0.8460185,-0.846852,-0.84191275,-0.8295646,-0.8172164,-0.8106102,-0.8081405,-0.799929,-0.7851112,-0.77192956,-0.7653233,-0.760384,-0.75297517,-0.73982435,-0.7266427,-0.7175668,-0.7101579,-0.69534016,-0.6698103,-0.64184177,-0.6212512,-0.6055999,-0.58584285,-0.56194913,-0.5331471,-0.5076173,-0.4853906,-0.46069425,-0.43186134,-0.40305924,-0.37833208,-0.35530275,-0.3338787,-0.31412172,-0.3083489,-0.31989443,-0.34869653,-0.38327134,-0.4211493,-0.4689058,-0.5282079,-0.5940852,-0.6533564,-0.7019464,-0.7439301,-0.78427774,-0.8213222,-0.8493216,-0.86413944,-0.8715483,-0.8822603,-0.89050275,-0.8970781,-0.89624465,-0.89624465,-0.90285087,-0.9127294,-0.9168352,-0.9127294,-0.90612316,-0.9053205,-0.90859276,-0.9102598,-0.9069567,-0.90201735,-0.90118384,-0.90285087,-0.90038127,-0.89297235,-0.88473,-0.88309383,-0.88389647,-0.88309383,-0.8789572,-0.87485147,-0.87565404,-0.8789572,-0.87732106,-0.8707148,-0.8657755,-0.8682452,-0.8723818,-0.8723818,-0.86660904,-0.8592001,-0.855897,-0.85756403,-0.85756403,-0.8534274,-0.8526248,-0.85756403,-0.8633059,-0.8625033,-0.8534274,-0.8435489,-0.84191275,-0.8435489,-0.84438235,-0.84107924,-0.8386096,-0.84107924,-0.8493216,-0.85179126,-0.84521586,-0.83780694,-0.83780694,-0.84107924,-0.84521586,-0.84521586,-0.8435489,-0.84438235,-0.8484881,-0.846852,-0.84191275,-0.8394431,-0.84191275,-0.8476855,-0.846852,-0.8394431,-0.83286774,-0.83203423,-0.83286774,-0.8336703,-0.8270949,-0.82295835,-0.82542795,-0.8295646,-0.82542795,-0.80980754,-0.7916866,-0.7818081,-0.7818081,-0.7826107,-0.77439916,-0.7538086,-0.72333956,-0.6887647,-0.65829563,-0.64184177,-0.6484171,-0.68215847,-0.72991496,-0.7727322,-0.799929,-0.81638294,-0.8303672,-0.84274626,-0.85095775,-0.85179126,-0.85095775,-0.8534274,-0.86083627,-0.8633059,-0.85836667,-0.8550944,-0.85756403,-0.86413944,-0.8657755,-0.8592001,-0.8526248,-0.8526248,-0.85836667,-0.8633059,-0.8649729,-0.86991215,-0.88389647,-0.90285087,-0.89297235,-0.80980754,-0.6146449,-0.302607,0.087687254,0.47387588,0.76041484,0.8583975,0.7398244,0.44667912,0.055582166,-0.3371818,-0.64100826,-0.82215565,-0.88636607,-0.87732106,-0.8476855,-0.8394431,-0.86413944,-0.8979116,-0.9168352,-0.9184713,-0.9110624,-0.9053205,-0.90612316,-0.9069567,-0.90285087,-0.8979116,-0.8970781,-0.89871424,-0.89871424,-0.89297235,-0.8871996,-0.8871996,-0.8888357,-0.88473,-0.87485147,-0.8657755,-0.8649729,-0.8715483,-0.8723818,-0.8625033,-0.8493216,-0.84191275,-0.8394431,-0.83614,-0.8270949,-0.8147468,-0.8081405,-0.8048683,-0.79745936,-0.7834442,-0.76779294,-0.7571118,-0.751339,-0.7439301,-0.7307485,-0.7159307,-0.702749,-0.68793124,-0.666538,-0.6393721,-0.61384225,-0.59488785,-0.5776005,-0.5545403,-0.5232686,-0.49032986,-0.46480006,-0.4458456,-0.42281634,-0.39481688,-0.36681747,-0.34706038,-0.33471227,-0.32730335,-0.32730335,-0.33965153,-0.37175667,-0.4211493,-0.47304243,-0.5199654,-0.57019156,-0.62699306,-0.6862951,-0.7381574,-0.7760353,-0.8056709,-0.8345038,-0.8616698,-0.87979066,-0.8871996,-0.89050275,-0.89871424,-0.9110624,-0.9193048,-0.9184713,-0.91519904,-0.91436553,-0.9168352,-0.91436553,-0.9077901,-0.9036535,-0.9036535,-0.90859276,-0.91189593,-0.904487,-0.89954776,-0.89954776,-0.90285087,-0.90201735,-0.89297235,-0.88389647,-0.8806242,-0.8822603,-0.87979066,-0.86991215,-0.86083627,-0.85836667,-0.86003363,-0.85756403,-0.8493216,-0.84107924,-0.8435489,-0.8526248,-0.86003363,-0.8592001,-0.8550944,-0.85179126,-0.85095775,-0.846852,-0.8386096,-0.8312007,-0.8312007,-0.8369735,-0.84107924,-0.8402766,-0.8394431,-0.8435489,-0.8493216,-0.8501551,-0.84191275,-0.8345038,-0.83203423,-0.8345038,-0.83533734,-0.83203423,-0.8270949,-0.82873106,-0.83203423,-0.82873106,-0.8172164,-0.8073379,-0.8048683,-0.81227714,-0.81885254,-0.8204887,-0.8204887,-0.8213222,-0.8246253,-0.8270949,-0.82215565,-0.81885254,-0.81968606,-0.82542795,-0.82873106,-0.82295835,-0.8147468,-0.8073379,-0.8023986,-0.7916866,-0.7752018,-0.760384,-0.7571118,-0.7661568,-0.7735657,-0.76452065,-0.73899084,-0.7035825,-0.67227995,-0.6549926,-0.6533564,-0.67558306,-0.71262753,-0.7571118,-0.7949897,-0.81638294,-0.8312007,-0.84438235,-0.8542609,-0.86003363,-0.86003363,-0.8592001,-0.8625033,-0.86660904,-0.8657755,-0.85756403,-0.8493216,-0.8484881,-0.85179126,-0.8542609,-0.8493216,-0.8435489,-0.84521586,-0.8526248,-0.8649729,-0.87318444,-0.88389647,-0.895442,-0.8871996,-0.81227714,-0.62699306,-0.32563633,0.050642848,0.42528582,0.7159306,0.8493216,0.7842778,0.5372529,0.16674638,-0.23589605,-0.5685555,-0.77850497,-0.87401795,-0.8913053,-0.8789572,-0.87318444,-0.88636607,-0.9102598,-0.93165296,-0.93825924,-0.9308503,-0.9201383,-0.9160017,-0.9168352,-0.9168352,-0.913532,-0.90859276,-0.9069567,-0.90859276,-0.90612316,-0.8970781,-0.8880331,-0.8855635,-0.8871996,-0.8855635,-0.8789572,-0.8715483,-0.8690787,-0.8707148,-0.86744255,-0.8550944,-0.84107924,-0.8345038,-0.8345038,-0.8312007,-0.82295835,-0.8130798,-0.808974,-0.808974,-0.8048683,-0.7949897,-0.78097457,-0.77192956,-0.76452065,-0.751339,-0.7315819,-0.7118249,-0.6986432,-0.6871286,-0.6714773,-0.6484171,-0.6228873,-0.6031302,-0.5866455,-0.5660858,-0.53972244,-0.51255655,-0.48949635,-0.46973932,-0.44667912,-0.41951317,-0.39398336,-0.38080168,-0.37669593,-0.37505984,-0.37752944,-0.39151376,-0.42608857,-0.4779817,-0.53561676,-0.5883125,-0.63606894,-0.6846281,-0.7332181,-0.7752018,-0.80650437,-0.8303672,-0.8550944,-0.8789572,-0.8970781,-0.90285087,-0.904487,-0.9069567,-0.9127294,-0.9176687,-0.9168352,-0.91519904,-0.9168352,-0.9201383,-0.9201383,-0.91436553,-0.9077901,-0.9053205,-0.9077901,-0.90612316,-0.8970781,-0.8871996,-0.88389647,-0.88966924,-0.89297235,-0.893775,-0.8913053,-0.89050275,-0.8913053,-0.8880331,-0.8781237,-0.86991215,-0.86991215,-0.87565404,-0.8789572,-0.87318444,-0.8649729,-0.86083627,-0.8625033,-0.8625033,-0.8592001,-0.8542609,-0.8542609,-0.8592001,-0.86083627,-0.855897,-0.85179126,-0.8526248,-0.85836667,-0.8633059,-0.8625033,-0.8625033,-0.86660904,-0.87318444,-0.87318444,-0.8649729,-0.85756403,-0.85756403,-0.8616698,-0.8625033,-0.8567305,-0.85095775,-0.85179126,-0.8592001,-0.8625033,-0.85836667,-0.8534274,-0.8542609,-0.8592001,-0.8625033,-0.8592001,-0.8542609,-0.8534274,-0.8592001,-0.8616698,-0.8567305,-0.85179126,-0.85095775,-0.8542609,-0.8550944,-0.85095775,-0.8460185,-0.8476855,-0.8526248,-0.8526248,-0.84274626,-0.82789755,-0.8172164,-0.80980754,-0.80073166,-0.7900505,-0.7851112,-0.7883835,-0.78674734,-0.76452065,-0.7208699,-0.6772192,-0.6599318,-0.6747496,-0.7060521,-0.73735476,-0.76368713,-0.79085314,-0.8204887,-0.84438235,-0.8567305,-0.86083627,-0.8657755,-0.87318444,-0.8789572,-0.8781237,-0.87485147,-0.8789572,-0.8871996,-0.89213884,-0.8880331,-0.87979066,-0.87485147,-0.87648755,-0.87648755,-0.8707148,-0.8657755,-0.8715483,-0.8855635,-0.8970781,-0.90285087,-0.89050275,-0.82873106,-0.6698103,-0.3849383,0.0028862953,0.41127074,0.7381574,0.9053205,0.88142693,0.6797198,0.34459066,-0.061354995,-0.443376,-0.71346104,-0.8542609,-0.893775,-0.89297235,-0.8979116,-0.9176687,-0.93825924,-0.94813776,-0.95141,-0.95387965,-0.95060736,-0.942365,-0.93412256,-0.9308503,-0.93332,-0.9324864,-0.92424405,-0.91519904,-0.9127294,-0.91436553,-0.9127294,-0.9036535,-0.89297235,-0.88966924,-0.89213884,-0.89213884,-0.8822603,-0.86991215,-0.86413944,-0.8649729,-0.8633059,-0.855897,-0.8476855,-0.8435489,-0.84521586,-0.84274626,-0.8303672,-0.81638294,-0.8081405,-0.8081405,-0.8073379,-0.79745936,-0.7818081,-0.7661568,-0.75297517,-0.73735476,-0.71676415,-0.69534016,-0.67805266,-0.66487104,-0.6475836,-0.6228873,-0.5940852,-0.5685555,-0.5471314,-0.5232686,-0.49360216,-0.4631639,-0.43927026,-0.42198282,-0.4046954,-0.3849383,-0.36765093,-0.3610447,-0.36928707,-0.38574094,-0.40880114,-0.44420952,-0.4944356,-0.55620724,-0.61794806,-0.6714773,-0.7184003,-0.76368713,-0.8073379,-0.8402766,-0.86003363,-0.8715483,-0.8814268,-0.895442,-0.90859276,-0.91436553,-0.9193048,-0.9267137,-0.9349561,-0.93742573,-0.93165296,-0.92260796,-0.9176687,-0.9184713,-0.9168352,-0.9110624,-0.9069567,-0.9077901,-0.9184713,-0.9267137,-0.92424405,-0.9176687,-0.91189593,-0.9094263,-0.90612316,-0.89954776,-0.89297235,-0.8913053,-0.89624465,-0.89871424,-0.895442,-0.88966924,-0.8880331,-0.89213884,-0.89297235,-0.8871996,-0.8806242,-0.87732106,-0.8789572,-0.8822603,-0.87979066,-0.87732106,-0.8822603,-0.8888357,-0.8913053,-0.88636607,-0.87732106,-0.87485147,-0.8789572,-0.8814268,-0.8781237,-0.87401795,-0.87401795,-0.8806242,-0.88473,-0.8806242,-0.87318444,-0.87318444,-0.8781237,-0.8814268,-0.87565404,-0.8657755,-0.8625033,-0.8682452,-0.87401795,-0.8707148,-0.86083627,-0.8542609,-0.8542609,-0.8542609,-0.85179126,-0.8484881,-0.85095775,-0.8592001,-0.86413944,-0.86083627,-0.8534274,-0.85179126,-0.85756403,-0.86083627,-0.8592001,-0.855897,-0.8567305,-0.86413944,-0.86991215,-0.8690787,-0.8633059,-0.86003363,-0.86003363,-0.8567305,-0.84438235,-0.82789755,-0.8139133,-0.80320126,-0.7883835,-0.7669903,-0.7439301,-0.7282788,-0.72417307,-0.72417307,-0.72417307,-0.7249757,-0.73238456,-0.74886936,-0.760384,-0.76368713,-0.7653233,-0.7768688,-0.8056709,-0.83533734,-0.85836667,-0.86991215,-0.87648755,-0.88389647,-0.8888357,-0.8871996,-0.88309383,-0.8822603,-0.8855635,-0.88636607,-0.8806242,-0.8715483,-0.8690787,-0.87318444,-0.87732106,-0.87648755,-0.87485147,-0.8814268,-0.8946085,-0.90612316,-0.913532,-0.90612316,-0.8567305,-0.7159307,-0.4458456,-0.061354995,0.360242,0.7118249,0.9102597,0.9135629,0.73568773,0.41704345,0.016067982,-0.37752944,-0.673947,-0.8386096,-0.89213884,-0.89050275,-0.8871996,-0.8970781,-0.913532,-0.92424405,-0.93165296,-0.9365922,-0.93825924,-0.93412256,-0.9258802,-0.92507756,-0.9300168,-0.93332,-0.92918336,-0.9201383,-0.91519904,-0.9160017,-0.91519904,-0.90859276,-0.89871424,-0.89297235,-0.893775,-0.895442,-0.89050275,-0.8822603,-0.87732106,-0.87648755,-0.87401795,-0.8649729,-0.8526248,-0.84438235,-0.8435489,-0.8386096,-0.82789755,-0.8139133,-0.80650437,-0.8056709,-0.8048683,-0.79662585,-0.78097457,-0.76452065,-0.7505055,-0.73652124,-0.7184003,-0.6986432,-0.68215847,-0.66487104,-0.64264435,-0.6113727,-0.57843393,-0.5520706,-0.53067744,-0.5076173,-0.48045135,-0.4499823,-0.42692208,-0.4096347,-0.39068025,-0.37012058,-0.3503635,-0.3412876,-0.34869653,-0.36434782,-0.3865745,-0.41951317,-0.4664362,-0.5257382,-0.587479,-0.64264435,-0.69206786,-0.740627,-0.789217,-0.82789755,-0.85179126,-0.8690787,-0.88636607,-0.9077901,-0.92094094,-0.92341053,-0.9184713,-0.9176687,-0.9258802,-0.93165296,-0.9300168,-0.92260796,-0.9193048,-0.92260796,-0.92507756,-0.92094094,-0.9127294,-0.90612316,-0.9053205,-0.90285087,-0.89624465,-0.8888357,-0.8871996,-0.89213884,-0.895442,-0.8913053,-0.88389647,-0.8822603,-0.88473,-0.88636607,-0.8822603,-0.87401795,-0.8682452,-0.86991215,-0.86991215,-0.8657755,-0.86003363,-0.8592001,-0.86660904,-0.8723818,-0.8715483,-0.86744255,-0.8657755,-0.8682452,-0.86991215,-0.86744255,-0.86413944,-0.86413944,-0.86991215,-0.87485147,-0.8723818,-0.86991215,-0.86991215,-0.87318444,-0.8723818,-0.8633059,-0.855897,-0.8550944,-0.8633059,-0.86991215,-0.8690787,-0.8633059,-0.86083627,-0.86413944,-0.8682452,-0.86660904,-0.8633059,-0.86413944,-0.86991215,-0.8723818,-0.8682452,-0.86083627,-0.8592001,-0.8649729,-0.8690787,-0.8649729,-0.8550944,-0.8501551,-0.8542609,-0.8616698,-0.86413944,-0.8592001,-0.8542609,-0.8526248,-0.85179126,-0.8476855,-0.84191275,-0.8402766,-0.84274626,-0.8402766,-0.82873106,-0.8106102,-0.7925201,-0.7834442,-0.77192956,-0.7538086,-0.7315819,-0.7150972,-0.7060521,-0.70111287,-0.6986432,-0.70027936,-0.7109914,-0.7307485,-0.7480359,-0.75544477,-0.7587479,-0.7694599,-0.7925201,-0.81968606,-0.84274626,-0.85836667,-0.8723818,-0.8871996,-0.89624465,-0.8970781,-0.8913053,-0.88636607,-0.8871996,-0.8871996,-0.88309383,-0.8789572,-0.8789572,-0.88309383,-0.88389647,-0.87732106,-0.8707148,-0.87401795,-0.8880331,-0.90285087,-0.9127294,-0.91189593,-0.8781237,-0.77192956,-0.5463288,-0.19638199,0.21860862,0.59902453,0.85179126,0.9217744,0.798262,0.51749575,0.13217151,-0.2795468,-0.61384225,-0.81801903,-0.89871424,-0.9069567,-0.89954776,-0.9102598,-0.9308503,-0.94730425,-0.953077,-0.953077,-0.9489404,-0.942365,-0.9357896,-0.9357896,-0.9415315,-0.9431985,-0.93825924,-0.9267137,-0.9184713,-0.9160017,-0.91436553,-0.9069567,-0.8970781,-0.89050275,-0.88966924,-0.8880331,-0.88389647,-0.87565404,-0.87401795,-0.8789572,-0.87979066,-0.8715483,-0.8550944,-0.8460185,-0.8476855,-0.85095775,-0.8501551,-0.84107924,-0.8303672,-0.8237918,-0.8147468,-0.8015651,-0.7834442,-0.7669903,-0.7562783,-0.7439301,-0.7258092,-0.7035825,-0.6846281,-0.66900766,-0.65005326,-0.6237208,-0.59325176,-0.5652523,-0.5430256,-0.5199654,-0.4911325,-0.46149695,-0.4376341,-0.4186797,-0.39892262,-0.37259018,-0.34706038,-0.3355149,-0.34045416,-0.35777247,-0.38080168,-0.41127074,-0.45655763,-0.5150262,-0.57676697,-0.6327659,-0.6838255,-0.7348542,-0.7851112,-0.8270949,-0.8526248,-0.86744255,-0.87979066,-0.8979116,-0.91436553,-0.92341053,-0.9267137,-0.9300168,-0.9365922,-0.93825924,-0.9308503,-0.92094094,-0.91519904,-0.9184713,-0.92260796,-0.92094094,-0.9127294,-0.9077901,-0.9077901,-0.90612316,-0.90201735,-0.89624465,-0.895442,-0.90201735,-0.9069567,-0.90285087,-0.89213884,-0.8871996,-0.88966924,-0.8946085,-0.8946085,-0.8880331,-0.88473,-0.8880331,-0.89213884,-0.8888357,-0.8806242,-0.87565404,-0.87732106,-0.8806242,-0.87979066,-0.87401795,-0.86991215,-0.87401795,-0.8781237,-0.87648755,-0.8715483,-0.8690787,-0.8715483,-0.87485147,-0.8723818,-0.8657755,-0.8625033,-0.86744255,-0.8715483,-0.8707148,-0.8690787,-0.8715483,-0.87979066,-0.88473,-0.8806242,-0.86660904,-0.8567305,-0.8567305,-0.8625033,-0.86660904,-0.86660904,-0.86744255,-0.8723818,-0.87485147,-0.8715483,-0.86413944,-0.85836667,-0.86003363,-0.86413944,-0.8633059,-0.8567305,-0.8550944,-0.8592001,-0.8633059,-0.86083627,-0.8567305,-0.855897,-0.86083627,-0.86413944,-0.86003363,-0.8501551,-0.84521586,-0.846852,-0.846852,-0.83780694,-0.8204887,-0.80320126,-0.7925201,-0.7801411,-0.7587479,-0.7332181,-0.71346104,-0.70441604,-0.7019464,-0.6994767,-0.6994767,-0.7068857,-0.72333956,-0.7381574,-0.7447636,-0.7447636,-0.75217247,-0.77850497,-0.81227714,-0.84191275,-0.8616698,-0.87318444,-0.88309383,-0.8888357,-0.8880331,-0.8822603,-0.87979066,-0.88309383,-0.8855635,-0.8814268,-0.87401795,-0.87318444,-0.8814268,-0.88966924,-0.89050275,-0.8822603,-0.87565404,-0.8806242,-0.89297235,-0.904487,-0.913532,-0.90285087,-0.8369735,-0.6615988,-0.35530275,0.047339678,0.4590273,0.7760354,0.9267136,0.8806243,0.6566595,0.30260694,-0.11405069,-0.48786026,-0.7430966,-0.86660904,-0.895442,-0.8880331,-0.88636607,-0.90285087,-0.92177445,-0.93165296,-0.93825924,-0.93989533,-0.9365922,-0.93165296,-0.92918336,-0.92918336,-0.9258802,-0.9176687,-0.9077901,-0.90285087,-0.9053205,-0.90612316,-0.89954776,-0.89050275,-0.88473,-0.88389647,-0.88309383,-0.87732106,-0.86660904,-0.86083627,-0.8616698,-0.86083627,-0.8526248,-0.84274626,-0.83780694,-0.8386096,-0.8369735,-0.82789755,-0.8130798,-0.8015651,-0.798262,-0.79332274,-0.7826107,-0.7653233,-0.751339,-0.74229395,-0.73238456,-0.7150972,-0.69206786,-0.67311347,-0.6615988,-0.6492506,-0.6286601,-0.6006606,-0.57266116,-0.551268,-0.5298439,-0.50267804,-0.46973932,-0.43843675,-0.41621006,-0.3956195,-0.37422633,-0.35116613,-0.3379845,-0.3379845,-0.34786302,-0.36598396,-0.39068025,-0.43433094,-0.49360216,-0.5553738,-0.6105392,-0.65829563,-0.7052187,-0.7587479,-0.8073379,-0.84274626,-0.8649729,-0.8814268,-0.90038127,-0.9168352,-0.9275472,-0.9324864,-0.9365922,-0.9440011,-0.94813776,-0.9456681,-0.93825924,-0.93412256,-0.9390619,-0.9440011,-0.9431985,-0.93742573,-0.93332,-0.93412256,-0.9357896,-0.93165296,-0.92341053,-0.9176687,-0.9201383,-0.92507756,-0.92177445,-0.91189593,-0.904487,-0.90285087,-0.9036535,-0.90201735,-0.8970781,-0.895442,-0.89954776,-0.90118384,-0.8979116,-0.8880331,-0.8822603,-0.88636607,-0.8913053,-0.89213884,-0.8871996,-0.88473,-0.88636607,-0.8880331,-0.88473,-0.8781237,-0.87565404,-0.8814268,-0.88966924,-0.89213884,-0.88966924,-0.8880331,-0.8888357,-0.89213884,-0.8888357,-0.8814268,-0.8781237,-0.8806242,-0.8855635,-0.88473,-0.8781237,-0.87401795,-0.87648755,-0.8806242,-0.8789572,-0.8707148,-0.86413944,-0.8657755,-0.8715483,-0.87485147,-0.87318444,-0.8715483,-0.8715483,-0.86991215,-0.8649729,-0.8567305,-0.8542609,-0.85756403,-0.86003363,-0.8567305,-0.8476855,-0.83780694,-0.83203423,-0.8246253,-0.808974,-0.7900505,-0.77850497,-0.78097457,-0.7900505,-0.7900505,-0.77109605,-0.73735476,-0.70111287,-0.6714773,-0.65912914,-0.66900766,-0.70111287,-0.7497029,-0.79745936,-0.8312007,-0.8493216,-0.8616698,-0.8723818,-0.8789572,-0.8814268,-0.87565404,-0.8715483,-0.87401795,-0.87732106,-0.8781237,-0.87401795,-0.87401795,-0.8781237,-0.8822603,-0.8822603,-0.87648755,-0.8723818,-0.87318444,-0.87648755,-0.87732106,-0.87648755,-0.88389647,-0.8970781,-0.8871996,-0.80403477,-0.60396373,-0.2852887,0.107444406,0.4886937,0.76782393,0.86497283,0.75050557,0.46149683,0.07450557,-0.31989443,-0.6261904,-0.80980754,-0.8822603,-0.8814268,-0.85756403,-0.8501551,-0.8690787,-0.89954776,-0.9201383,-0.92094094,-0.9102598,-0.90038127,-0.8979116,-0.89871424,-0.8979116,-0.893775,-0.8913053,-0.8913053,-0.8888357,-0.8781237,-0.8657755,-0.86003363,-0.86083627,-0.86413944,-0.8625033,-0.8534274,-0.8476855,-0.8484881,-0.8501551,-0.84438235,-0.83286774,-0.82295835,-0.81968606,-0.8172164,-0.8114437,-0.8015651,-0.7925201,-0.7900505,-0.78758085,-0.7801411,-0.7661568,-0.75297517,-0.74639976,-0.740627,-0.7282788,-0.7068857,-0.6854616,-0.66487104,-0.6492506,-0.6311297,-0.60890305,-0.58584285,-0.5644188,-0.54135865,-0.5109204,-0.4779817,-0.44914877,-0.4277556,-0.4055289,-0.3791656,-0.34869653,-0.32563633,-0.3157578,-0.31412172,-0.3132882,-0.31742483,-0.3379845,-0.3799991,-0.4376341,-0.49610263,-0.5479649,-0.6006606,-0.65829563,-0.71429455,-0.76121753,-0.79579234,-0.82215565,-0.8476855,-0.86660904,-0.87401795,-0.87318444,-0.87732106,-0.8880331,-0.89871424,-0.90201735,-0.895442,-0.89050275,-0.893775,-0.8979116,-0.89624465,-0.8888357,-0.88473,-0.8888357,-0.89213884,-0.89050275,-0.8822603,-0.87732106,-0.8806242,-0.88473,-0.88309383,-0.8723818,-0.8625033,-0.86003363,-0.86083627,-0.86003363,-0.8542609,-0.85095775,-0.8526248,-0.8534274,-0.8493216,-0.8402766,-0.8336703,-0.8336703,-0.83533734,-0.83203423,-0.82542795,-0.82295835,-0.8303672,-0.84107924,-0.84438235,-0.83780694,-0.8336703,-0.8345038,-0.8386096,-0.8386096,-0.8336703,-0.8295646,-0.83286774,-0.8386096,-0.8394431,-0.8345038,-0.8295646,-0.8303672,-0.8303672,-0.82789755,-0.82542795,-0.8262614,-0.83614,-0.8460185,-0.846852,-0.8394431,-0.83286774,-0.83286774,-0.8336703,-0.83203423,-0.8270949,-0.8246253,-0.8262614,-0.82873106,-0.8262614,-0.81968606,-0.81801903,-0.8237918,-0.82789755,-0.8237918,-0.8114437,-0.7990955,-0.7925201,-0.78674734,-0.7801411,-0.77439916,-0.7752018,-0.7826107,-0.7834442,-0.76205105,-0.7217034,-0.6805223,-0.6599318,-0.6640684,-0.6854616,-0.7175668,-0.7562783,-0.79579234,-0.82789755,-0.84521586,-0.8493216,-0.8526248,-0.86003363,-0.8690787,-0.87318444,-0.8690787,-0.8657755,-0.86991215,-0.87485147,-0.87732106,-0.87401795,-0.8723818,-0.87485147,-0.8781237,-0.87648755,-0.8707148,-0.8715483,-0.8822603,-0.8970781,-0.9077901,-0.9102598,-0.89871424,-0.84191275,-0.6887647,-0.41293782,-0.03746128,0.35283315,0.66490185,0.8163829,0.7760354,0.56278265,0.22024477,-0.1782611,-0.5314801,-0.7669903,-0.8723818,-0.8888357,-0.87401795,-0.86991215,-0.88309383,-0.89954776,-0.91189593,-0.9201383,-0.92424405,-0.92341053,-0.9176687,-0.913532,-0.9127294,-0.91519904,-0.91189593,-0.904487,-0.89954776,-0.8979116,-0.89624465,-0.8871996,-0.87485147,-0.86744255,-0.8690787,-0.87318444,-0.8707148,-0.86083627,-0.85179126,-0.8484881,-0.846852,-0.8435489,-0.8345038,-0.82789755,-0.8270949,-0.8246253,-0.8139133,-0.79745936,-0.7826107,-0.77439916,-0.77439916,-0.77026254,-0.7595814,-0.7480359,-0.73899084,-0.7282788,-0.7118249,-0.6895982,-0.66900766,-0.6525229,-0.6368716,-0.6146449,-0.587479,-0.5611465,-0.54055595,-0.5207989,-0.49610263,-0.46480006,-0.4376341,-0.42034668,-0.4055289,-0.38740802,-0.36518133,-0.34953004,-0.34869653,-0.36187822,-0.3841049,-0.41293782,-0.45655763,-0.51339006,-0.57596433,-0.6327659,-0.6796888,-0.72333956,-0.76779294,-0.8081405,-0.8386096,-0.8567305,-0.8707148,-0.88966924,-0.9077901,-0.9184713,-0.9201383,-0.9201383,-0.92341053,-0.9275472,-0.9267137,-0.9184713,-0.91189593,-0.91189593,-0.9160017,-0.9184713,-0.913532,-0.9110624,-0.9127294,-0.91436553,-0.9110624,-0.90118384,-0.893775,-0.89297235,-0.893775,-0.89213884,-0.88636607,-0.88473,-0.8888357,-0.89213884,-0.8888357,-0.87979066,-0.8707148,-0.8723818,-0.87485147,-0.8723818,-0.86660904,-0.8625033,-0.86744255,-0.87565404,-0.8781237,-0.87565404,-0.87318444,-0.87648755,-0.8781237,-0.87648755,-0.8690787,-0.8649729,-0.8707148,-0.8781237,-0.87979066,-0.87318444,-0.8690787,-0.86991215,-0.87401795,-0.8723818,-0.86413944,-0.85836667,-0.8592001,-0.8625033,-0.8625033,-0.85756403,-0.85095775,-0.8526248,-0.855897,-0.8542609,-0.846852,-0.84521586,-0.8501551,-0.86083627,-0.86991215,-0.86744255,-0.86413944,-0.8633059,-0.86413944,-0.86003363,-0.8534274,-0.8484881,-0.8542609,-0.8625033,-0.86744255,-0.86660904,-0.86413944,-0.8690787,-0.87648755,-0.87732106,-0.86991215,-0.86083627,-0.85756403,-0.8592001,-0.86003363,-0.8567305,-0.85179126,-0.8460185,-0.83780694,-0.8237918,-0.8023986,-0.7834442,-0.76779294,-0.75297517,-0.7348542,-0.71676415,-0.7068857,-0.7101579,-0.7217034,-0.73238456,-0.73652124,-0.7430966,-0.7538086,-0.76452065,-0.77439916,-0.7900505,-0.8130798,-0.8435489,-0.8707148,-0.88389647,-0.88389647,-0.8855635,-0.89213884,-0.89871424,-0.895442,-0.8855635,-0.87979066,-0.87979066,-0.8855635,-0.8822603,-0.87318444,-0.8682452,-0.8723818,-0.88389647,-0.89624465,-0.90201735,-0.90612316,-0.9160017,-0.9193048,-0.8806242,-0.7571118,-0.51749575,-0.17001873,0.2326237,0.6031302,0.8583975,0.9250777,0.79085314,0.49610257,0.109913945,-0.28201646,-0.5973575,-0.799929,-0.89213884,-0.9094263,-0.89871424,-0.9036535,-0.92918336,-0.953077,-0.9596524,-0.94813776,-0.93332,-0.9275472,-0.93165296,-0.9357896,-0.9324864,-0.9258802,-0.92424405,-0.92507756,-0.92177445,-0.91519904,-0.9077901,-0.90612316,-0.9069567,-0.9036535,-0.89624465,-0.8888357,-0.8871996,-0.8871996,-0.88309383,-0.8723818,-0.86413944,-0.8625033,-0.86413944,-0.86003363,-0.8484881,-0.83780694,-0.8303672,-0.8246253,-0.8172164,-0.80403477,-0.7916866,-0.7883835,-0.7859138,-0.7735657,-0.7546421,-0.73652124,-0.7258092,-0.7175668,-0.7035825,-0.6796888,-0.6541899,-0.6319324,-0.6097057,-0.5841758,-0.5529041,-0.52160156,-0.49773878,-0.47467858,-0.44751263,-0.41704357,-0.39234728,-0.37833208,-0.37092322,-0.36351424,-0.35530275,-0.360242,-0.3824687,-0.41951317,-0.46396655,-0.50845075,-0.5611465,-0.6204177,-0.6805223,-0.7315819,-0.7694599,-0.8015651,-0.8345038,-0.8649729,-0.8855635,-0.895442,-0.90201735,-0.9110624,-0.9201383,-0.92341053,-0.9193048,-0.91436553,-0.91519904,-0.92094094,-0.92094094,-0.9184713,-0.91519904,-0.9168352,-0.9193048,-0.9160017,-0.9069567,-0.90285087,-0.90612316,-0.91189593,-0.9102598,-0.90038127,-0.89050275,-0.89050275,-0.895442,-0.8970781,-0.89297235,-0.8871996,-0.8871996,-0.88966924,-0.8888357,-0.88309383,-0.8789572,-0.8814268,-0.8855635,-0.88636607,-0.8806242,-0.8789572,-0.88473,-0.8946085,-0.8979116,-0.89213884,-0.88389647,-0.8822603,-0.88473,-0.88389647,-0.8781237,-0.8723818,-0.87401795,-0.8806242,-0.8822603,-0.8781237,-0.87485147,-0.87565404,-0.8789572,-0.8781237,-0.8723818,-0.8690787,-0.8690787,-0.87401795,-0.87401795,-0.86744255,-0.8625033,-0.8657755,-0.8707148,-0.8715483,-0.86744255,-0.8649729,-0.8633059,-0.8649729,-0.8616698,-0.8542609,-0.8526248,-0.86083627,-0.87318444,-0.87565404,-0.8649729,-0.8534274,-0.85095775,-0.8526248,-0.8501551,-0.84274626,-0.83780694,-0.8402766,-0.85095775,-0.855897,-0.8484881,-0.8394431,-0.83614,-0.8369735,-0.8303672,-0.8106102,-0.78674734,-0.76779294,-0.75297517,-0.7381574,-0.7217034,-0.70935524,-0.7068857,-0.7159307,-0.7249757,-0.7332181,-0.7439301,-0.7579144,-0.77109605,-0.7801411,-0.78758085,-0.8023986,-0.8270949,-0.8567305,-0.87732106,-0.8871996,-0.8913053,-0.8970781,-0.9053205,-0.9094263,-0.9053205,-0.89954776,-0.8970781,-0.893775,-0.8871996,-0.8781237,-0.87401795,-0.8789572,-0.88636607,-0.8888357,-0.8871996,-0.88966924,-0.90118384,-0.9193048,-0.9258802,-0.8913053,-0.7801411,-0.56031305,-0.22354794,0.18073058,0.56938887,0.8394431,0.9185021,0.79085314,0.5018445,0.12062597,-0.2795468,-0.6055999,-0.8114437,-0.8979116,-0.9036535,-0.88966924,-0.8946085,-0.9160017,-0.93332,-0.9357896,-0.93332,-0.93825924,-0.9456681,-0.94730425,-0.93989533,-0.9324864,-0.9324864,-0.9365922,-0.93742573,-0.92838067,-0.9160017,-0.9127294,-0.9127294,-0.9110624,-0.90285087,-0.8970781,-0.895442,-0.89871424,-0.89213884,-0.87401795,-0.85836667,-0.8534274,-0.85756403,-0.86083627,-0.8550944,-0.84274626,-0.83286774,-0.82873106,-0.82215565,-0.8130798,-0.8056709,-0.8023986,-0.799929,-0.7916866,-0.7760353,-0.76205105,-0.7538086,-0.7480359,-0.73652124,-0.71346104,-0.6862951,-0.66240144,-0.64184177,-0.6195842,-0.59161556,-0.5644188,-0.54055595,-0.5207989,-0.49526912,-0.46396655,-0.43349743,-0.40880114,-0.38740802,-0.36765093,-0.3503635,-0.34459078,-0.3610447,-0.39481688,-0.43433094,-0.4755121,-0.5232686,-0.57923657,-0.6385386,-0.69123435,-0.73568773,-0.7760353,-0.81638294,-0.8550944,-0.8806242,-0.8946085,-0.9036535,-0.9168352,-0.93165296,-0.94072884,-0.9390619,-0.93332,-0.9324864,-0.93825924,-0.9415315,-0.93825924,-0.93165296,-0.9308503,-0.93332,-0.93332,-0.9275472,-0.92177445,-0.9201383,-0.92094094,-0.9168352,-0.90859276,-0.90285087,-0.9053205,-0.91189593,-0.913532,-0.9053205,-0.895442,-0.8913053,-0.89297235,-0.89213884,-0.88473,-0.8781237,-0.8806242,-0.8855635,-0.8871996,-0.8806242,-0.87401795,-0.87401795,-0.87979066,-0.88309383,-0.8781237,-0.87318444,-0.87485147,-0.8789572,-0.8806242,-0.8781237,-0.87318444,-0.87485147,-0.8789572,-0.87732106,-0.8682452,-0.86083627,-0.8616698,-0.86744255,-0.86991215,-0.8649729,-0.86003363,-0.86003363,-0.8657755,-0.86660904,-0.8616698,-0.855897,-0.8550944,-0.86083627,-0.86413944,-0.8616698,-0.8592001,-0.8633059,-0.8690787,-0.8690787,-0.8625033,-0.8550944,-0.8542609,-0.8592001,-0.86083627,-0.8550944,-0.8484881,-0.846852,-0.8484881,-0.8493216,-0.84438235,-0.8402766,-0.84274626,-0.8493216,-0.8526248,-0.8484881,-0.84274626,-0.8386096,-0.8336703,-0.8204887,-0.80073166,-0.7793385,-0.76452065,-0.7546421,-0.74146044,-0.72417307,-0.7109914,-0.7085218,-0.7175668,-0.72744536,-0.7332181,-0.73899084,-0.7480359,-0.760384,-0.76862645,-0.78097457,-0.80073166,-0.8303672,-0.8649729,-0.8880331,-0.895442,-0.8946085,-0.895442,-0.89871424,-0.89954776,-0.895442,-0.89213884,-0.8946085,-0.90038127,-0.90285087,-0.8979116,-0.89213884,-0.8913053,-0.89213884,-0.89213884,-0.8913053,-0.895442,-0.90612316,-0.9193048,-0.91519904,-0.8567305,-0.702749,-0.43349743,-0.060521483,0.35199964,0.7118249,0.9267136,0.9407289,0.7595813,0.43599796,0.036658525,-0.35199964,-0.6508868,-0.82873106,-0.893775,-0.8888357,-0.87401795,-0.88309383,-0.90859276,-0.9275472,-0.9308503,-0.9267137,-0.92507756,-0.9275472,-0.9258802,-0.9176687,-0.90859276,-0.90612316,-0.90859276,-0.9077901,-0.90118384,-0.89213884,-0.8888357,-0.88966924,-0.88636607,-0.8781237,-0.8715483,-0.8715483,-0.87318444,-0.86991215,-0.85756403,-0.846852,-0.8435489,-0.8460185,-0.84438235,-0.83533734,-0.82295835,-0.8155494,-0.81227714,-0.8073379,-0.79745936,-0.7883835,-0.78427774,-0.7826107,-0.77439916,-0.7571118,-0.73735476,-0.7249757,-0.71676415,-0.70441604,-0.682992,-0.6574621,-0.6352354,-0.61711454,-0.59488785,-0.5652523,-0.53394973,-0.5092534,-0.4886629,-0.46563357,-0.43516445,-0.40633154,-0.3841049,-0.37012058,-0.3569389,-0.34292376,-0.3371818,-0.34953004,-0.3816352,-0.42608857,-0.47467858,-0.5282079,-0.5883125,-0.6517203,-0.7068857,-0.751339,-0.7883835,-0.8246253,-0.8592001,-0.88473,-0.8970781,-0.904487,-0.91436553,-0.9267137,-0.9357896,-0.9357896,-0.93332,-0.9324864,-0.93412256,-0.9324864,-0.92507756,-0.9176687,-0.9176687,-0.92260796,-0.92507756,-0.9201383,-0.9127294,-0.9094263,-0.90859276,-0.904487,-0.895442,-0.8871996,-0.8855635,-0.8888357,-0.88966924,-0.88389647,-0.87648755,-0.87485147,-0.8781237,-0.87732106,-0.8682452,-0.86003363,-0.8592001,-0.86413944,-0.86744255,-0.86413944,-0.86083627,-0.86413944,-0.8707148,-0.87401795,-0.8690787,-0.8616698,-0.86083627,-0.86660904,-0.86991215,-0.86744255,-0.8657755,-0.8690787,-0.87648755,-0.8781237,-0.8723818,-0.8657755,-0.86660904,-0.87401795,-0.8789572,-0.87648755,-0.8707148,-0.8682452,-0.8707148,-0.8707148,-0.8649729,-0.86003363,-0.8625033,-0.8707148,-0.87565404,-0.87318444,-0.86991215,-0.86991215,-0.87485147,-0.87648755,-0.8723818,-0.8682452,-0.8690787,-0.87318444,-0.87318444,-0.8657755,-0.86003363,-0.86083627,-0.86660904,-0.8690787,-0.86413944,-0.85756403,-0.8534274,-0.855897,-0.8550944,-0.8460185,-0.8336703,-0.82295835,-0.8139133,-0.80073166,-0.7801411,-0.7571118,-0.73735476,-0.72333956,-0.7101579,-0.6970071,-0.68793124,-0.69123435,-0.7052187,-0.72250605,-0.7332181,-0.7381574,-0.7439301,-0.75217247,-0.7661568,-0.78427774,-0.8073379,-0.8345038,-0.85836667,-0.8715483,-0.8723818,-0.8682452,-0.8690787,-0.87318444,-0.87401795,-0.8682452,-0.86083627,-0.8592001,-0.8625033,-0.86413944,-0.86003363,-0.8550944,-0.8542609,-0.8592001,-0.86660904,-0.8707148,-0.87565404,-0.8871996,-0.8880331,-0.83286774,-0.6706438,-0.3791656,0.014400959,0.4326949,0.78264165,0.9810765,0.9736675,0.7661568,0.41127074,-0.0102953315,-0.39892262,-0.6772192,-0.83286774,-0.8871996,-0.88389647,-0.8707148,-0.87648755,-0.89871424,-0.92177445,-0.93165296,-0.92507756,-0.913532,-0.9053205,-0.9036535,-0.90118384,-0.893775,-0.8855635,-0.88309383,-0.88473,-0.8822603,-0.8715483,-0.85836667,-0.85179126,-0.85179126,-0.85179126,-0.84438235,-0.83533734,-0.8295646,-0.8295646,-0.8270949,-0.81885254,-0.8081405,-0.8023986,-0.80073166,-0.79415625,-0.78097457,-0.7653233,-0.7546421,-0.74886936,-0.7439301,-0.7332181,-0.72250605,-0.7159307,-0.71262753,-0.7035825,-0.6871286,-0.66817415,-0.6517203,-0.6385386,-0.6212512,-0.5965549,-0.57019156,-0.5479649,-0.5290104,-0.5059812,-0.47304243,-0.4368006,-0.4079985,-0.3865745,-0.36518133,-0.338818,-0.31248558,-0.29189503,-0.28118294,-0.2746076,-0.27294058,-0.28612226,-0.31822747,-0.36928707,-0.42608857,-0.48125398,-0.53478324,-0.5924182,-0.6492506,-0.6994767,-0.73652124,-0.7653233,-0.7949897,-0.8246253,-0.846852,-0.85756403,-0.8649729,-0.87401795,-0.8871996,-0.89624465,-0.8946085,-0.8880331,-0.88473,-0.88636607,-0.8855635,-0.8814268,-0.87648755,-0.8781237,-0.88389647,-0.8855635,-0.8789572,-0.8682452,-0.8625033,-0.8625033,-0.8625033,-0.85756403,-0.8501551,-0.846852,-0.8460185,-0.84191275,-0.83286774,-0.82295835,-0.8213222,-0.8262614,-0.8295646,-0.8246253,-0.8155494,-0.8114437,-0.8139133,-0.8139133,-0.8081405,-0.799929,-0.7990955,-0.8073379,-0.8147468,-0.8139133,-0.80980754,-0.808974,-0.8139133,-0.81885254,-0.81638294,-0.81227714,-0.80980754,-0.81227714,-0.8139133,-0.8081405,-0.8015651,-0.80073166,-0.80403477,-0.8073379,-0.8048683,-0.80320126,-0.8073379,-0.8155494,-0.8204887,-0.8155494,-0.8081405,-0.8056709,-0.8073379,-0.80650437,-0.8015651,-0.7925201,-0.7916866,-0.79662585,-0.798262,-0.7900505,-0.7752018,-0.76205105,-0.75217247,-0.740627,-0.7282788,-0.7249757,-0.73238456,-0.74146044,-0.73568773,-0.7068857,-0.66570455,-0.63606894,-0.6286601,-0.64184177,-0.66734064,-0.70111287,-0.7430966,-0.7834442,-0.8106102,-0.8204887,-0.81801903,-0.8172164,-0.82295835,-0.82789755,-0.82789755,-0.82542795,-0.82789755,-0.83203423,-0.8336703,-0.8262614,-0.8172164,-0.8155494,-0.8213222,-0.8246253,-0.81801903,-0.8081405,-0.80650437,-0.8155494,-0.82789755,-0.8394431,-0.846852,-0.8369735,-0.7669903,-0.5841758,-0.2746076,0.116520286,0.49526906,0.762051,0.84685206,0.73568773,0.4590273,0.0802784,-0.3132882,-0.6204177,-0.7949897,-0.85179126,-0.84274626,-0.8246253,-0.82542795,-0.84274626,-0.86083627,-0.8723818,-0.87979066,-0.8822603,-0.87732106,-0.8707148,-0.86660904,-0.8682452,-0.8682452,-0.8616698,-0.8526248,-0.84438235,-0.8394431,-0.8345038,-0.8246253,-0.8147468,-0.81227714,-0.81885254,-0.82215565,-0.81801903,-0.808974,-0.8015651,-0.7990955,-0.79662585,-0.78758085,-0.7768688,-0.77109605,-0.77109605,-0.77109605,-0.76368713,-0.75297517,-0.74639976,-0.7447636,-0.73899084,-0.7258092,-0.70935524,-0.69617367,-0.6895982,-0.68135583,-0.66570455,-0.6459475,-0.6278266,-0.6121753,-0.59325176,-0.56688845,-0.5372529,-0.51255655,-0.491966,-0.47057283,-0.44173986,-0.41293782,-0.38987762,-0.37175667,-0.35283315,-0.3305756,-0.3108185,-0.30424315,-0.31412172,-0.3338787,-0.3594085,-0.39234728,-0.43843675,-0.49610263,-0.55620724,-0.6130088,-0.6640684,-0.71429455,-0.76205105,-0.799929,-0.82295835,-0.8369735,-0.85095775,-0.8649729,-0.87565404,-0.8814268,-0.8822603,-0.88636607,-0.893775,-0.8979116,-0.895442,-0.8913053,-0.8913053,-0.89871424,-0.90118384,-0.895442,-0.88389647,-0.8781237,-0.8789572,-0.8806242,-0.87732106,-0.8723818,-0.86991215,-0.8723818,-0.87318444,-0.86660904,-0.855897,-0.85095775,-0.85179126,-0.85179126,-0.8460185,-0.8394431,-0.8386096,-0.84438235,-0.8484881,-0.8460185,-0.8402766,-0.8394431,-0.84521586,-0.8493216,-0.8476855,-0.84107924,-0.83780694,-0.8394431,-0.84107924,-0.83780694,-0.8336703,-0.8336703,-0.8386096,-0.84107924,-0.8386096,-0.83286774,-0.83203423,-0.8386096,-0.8435489,-0.84107924,-0.83614,-0.8345038,-0.8369735,-0.8402766,-0.8386096,-0.8345038,-0.83614,-0.8435489,-0.846852,-0.8435489,-0.83614,-0.83286774,-0.83614,-0.8402766,-0.8386096,-0.8345038,-0.8345038,-0.8394431,-0.84191275,-0.8369735,-0.8303672,-0.82873106,-0.8336703,-0.83614,-0.8303672,-0.8204887,-0.8147468,-0.8130798,-0.8081405,-0.79662585,-0.7851112,-0.7826107,-0.7925201,-0.798262,-0.7826107,-0.74556625,-0.702749,-0.67227995,-0.66240144,-0.6706438,-0.69617367,-0.7340516,-0.7768688,-0.8139133,-0.83614,-0.8476855,-0.85836667,-0.8707148,-0.87979066,-0.8806242,-0.87485147,-0.8707148,-0.87401795,-0.87732106,-0.87485147,-0.86991215,-0.8690787,-0.87318444,-0.87648755,-0.87318444,-0.86660904,-0.86413944,-0.8723818,-0.88473,-0.89297235,-0.90201735,-0.90612316,-0.87979066,-0.77109605,-0.5421921,-0.19801813,0.19638193,0.5545403,0.7949897,0.86086714,0.73568773,0.44914877,0.061354876,-0.3305756,-0.6311297,-0.80403477,-0.8690787,-0.87565404,-0.86744255,-0.8723818,-0.8880331,-0.90612316,-0.92094094,-0.92507756,-0.92094094,-0.913532,-0.9110624,-0.91519904,-0.9176687,-0.913532,-0.904487,-0.89954776,-0.90118384,-0.90285087,-0.8970781,-0.8871996,-0.8789572,-0.8781237,-0.87732106,-0.87318444,-0.8657755,-0.8625033,-0.86413944,-0.8633059,-0.8567305,-0.846852,-0.84107924,-0.84107924,-0.8394431,-0.8295646,-0.81638294,-0.80650437,-0.80320126,-0.799929,-0.7916866,-0.7793385,-0.76862645,-0.7628537,-0.75297517,-0.73568773,-0.71429455,-0.6970071,-0.6862951,-0.673947,-0.6541899,-0.63029623,-0.60890305,-0.59161556,-0.5710251,-0.54135865,-0.50845075,-0.48125398,-0.4631639,-0.44504303,-0.4211493,-0.39481688,-0.37586248,-0.36845356,-0.37092322,-0.37833208,-0.39481688,-0.42855823,-0.47961783,-0.53808635,-0.5940852,-0.6459475,-0.69617367,-0.7472333,-0.7916866,-0.8237918,-0.8476855,-0.8682452,-0.8888357,-0.90285087,-0.9069567,-0.9077901,-0.9127294,-0.92507756,-0.9357896,-0.93825924,-0.93412256,-0.93165296,-0.93412256,-0.9357896,-0.9308503,-0.92341053,-0.92177445,-0.9275472,-0.93412256,-0.9324864,-0.92507756,-0.9184713,-0.9184713,-0.9184713,-0.91436553,-0.90859276,-0.9077901,-0.9127294,-0.91519904,-0.91189593,-0.90612316,-0.9036535,-0.9069567,-0.9102598,-0.9069567,-0.90038127,-0.8970781,-0.90038127,-0.904487,-0.90118384,-0.89297235,-0.8888357,-0.88966924,-0.8913053,-0.8880331,-0.8814268,-0.8806242,-0.8880331,-0.8970781,-0.89954776,-0.89624465,-0.8946085,-0.8970781,-0.89954776,-0.895442,-0.8880331,-0.88473,-0.8871996,-0.8888357,-0.88389647,-0.87565404,-0.8707148,-0.87401795,-0.8781237,-0.8781237,-0.87318444,-0.8707148,-0.87318444,-0.87485147,-0.8723818,-0.86744255,-0.86744255,-0.87485147,-0.87979066,-0.8781237,-0.8707148,-0.86660904,-0.86991215,-0.87401795,-0.8715483,-0.8633059,-0.8567305,-0.8567305,-0.8592001,-0.8592001,-0.85756403,-0.85756403,-0.8625033,-0.8657755,-0.86413944,-0.8592001,-0.8567305,-0.85756403,-0.8542609,-0.84191275,-0.82295835,-0.8056709,-0.79579234,-0.7851112,-0.76779294,-0.7480359,-0.7332181,-0.7291123,-0.72991496,-0.72744536,-0.7249757,-0.72991496,-0.7430966,-0.7562783,-0.7595814,-0.7571118,-0.760384,-0.77850497,-0.80650437,-0.83203423,-0.8526248,-0.86744255,-0.88389647,-0.89624465,-0.89871424,-0.895442,-0.89213884,-0.89297235,-0.8946085,-0.89297235,-0.8888357,-0.88636607,-0.8888357,-0.8888357,-0.8822603,-0.87318444,-0.8715483,-0.88309383,-0.8970781,-0.90612316,-0.9094263,-0.89624465,-0.83286774,-0.6698103,-0.37752944,0.016870618,0.42692196,0.75544477,0.9283807,0.9086236,0.7060522,0.36351418,-0.051445544,-0.43927026,-0.7150972,-0.8625033,-0.9110624,-0.9127294,-0.91189593,-0.9201383,-0.9324864,-0.9431985,-0.95060736,-0.953077,-0.94813776,-0.9415315,-0.9390619,-0.9431985,-0.94813776,-0.94647074,-0.94072884,-0.9365922,-0.93825924,-0.9390619,-0.93332,-0.92177445,-0.9127294,-0.9094263,-0.90612316,-0.90038127,-0.89213884,-0.88966924,-0.89213884,-0.89213884,-0.88309383,-0.8690787,-0.85836667,-0.8550944,-0.8542609,-0.8484881,-0.8394431,-0.83286774,-0.83286774,-0.8303672,-0.81885254,-0.799929,-0.78427774,-0.77439916,-0.7661568,-0.7538086,-0.7348542,-0.7159307,-0.6994767,-0.68135583,-0.655826,-0.6261904,-0.5998272,-0.57923657,-0.55784345,-0.5298439,-0.4985723,-0.46973932,-0.44834614,-0.42939168,-0.40633154,-0.3816352,-0.36518133,-0.360242,-0.36434782,-0.37422633,-0.39398336,-0.43102783,-0.48455715,-0.5454953,-0.60229677,-0.6541899,-0.7052187,-0.75544477,-0.798262,-0.8295646,-0.85179126,-0.8723818,-0.8946085,-0.9110624,-0.9184713,-0.9193048,-0.92177445,-0.93165296,-0.93989533,-0.9415315,-0.9365922,-0.9324864,-0.93332,-0.93332,-0.92838067,-0.9201383,-0.91519904,-0.9176687,-0.9184713,-0.9127294,-0.90118384,-0.89297235,-0.895442,-0.90118384,-0.90285087,-0.89954776,-0.89954776,-0.90201735,-0.904487,-0.90201735,-0.8946085,-0.8913053,-0.893775,-0.8979116,-0.89624465,-0.88966924,-0.8871996,-0.8913053,-0.89297235,-0.88966924,-0.88309383,-0.8806242,-0.8880331,-0.895442,-0.89624465,-0.89050275,-0.8855635,-0.8880331,-0.89050275,-0.8888357,-0.88389647,-0.8822603,-0.88636607,-0.8913053,-0.89050275,-0.88389647,-0.87979066,-0.8822603,-0.88473,-0.88309383,-0.87732106,-0.87485147,-0.8789572,-0.8814268,-0.8789572,-0.87318444,-0.8707148,-0.87565404,-0.8806242,-0.8789572,-0.86991215,-0.8633059,-0.8649729,-0.8682452,-0.86744255,-0.86413944,-0.86413944,-0.8690787,-0.87401795,-0.8715483,-0.8633059,-0.8567305,-0.85756403,-0.86083627,-0.86083627,-0.8567305,-0.8550944,-0.85836667,-0.86083627,-0.85756403,-0.8501551,-0.84521586,-0.8460185,-0.8501551,-0.8493216,-0.8460185,-0.8435489,-0.8476855,-0.8493216,-0.84191275,-0.8270949,-0.8139133,-0.8048683,-0.798262,-0.7834442,-0.76205105,-0.74146044,-0.7291123,-0.7217034,-0.71676415,-0.71346104,-0.7184003,-0.7332181,-0.74886936,-0.7562783,-0.75544477,-0.75544477,-0.76862645,-0.79415625,-0.81885254,-0.84107924,-0.86083627,-0.8789572,-0.89050275,-0.8946085,-0.88966924,-0.88636607,-0.8880331,-0.88966924,-0.8880331,-0.88473,-0.88389647,-0.88966924,-0.8946085,-0.89213884,-0.88309383,-0.8789572,-0.88636607,-0.90038127,-0.9102598,-0.9160017,-0.9176687,-0.895442,-0.799929,-0.58500934,-0.24247152,0.17168558,0.5644188,0.8501551,0.9629555,0.87815464,0.6171454,0.23425996,-0.18650353,-0.53888893,-0.76862645,-0.8789572,-0.9077901,-0.90285087,-0.90118384,-0.9127294,-0.9300168,-0.94647074,-0.95387965,-0.95141,-0.9431985,-0.9390619,-0.942365,-0.9448346,-0.93989533,-0.9267137,-0.91519904,-0.91189593,-0.9127294,-0.91189593,-0.90612316,-0.90038127,-0.89954776,-0.89871424,-0.89297235,-0.88309383,-0.87732106,-0.87979066,-0.88309383,-0.8781237,-0.8649729,-0.8526248,-0.846852,-0.84438235,-0.83780694,-0.82542795,-0.8130798,-0.80650437,-0.80320126,-0.7949897,-0.78427774,-0.7752018,-0.76862645,-0.7628537,-0.74886936,-0.72744536,-0.7060521,-0.68793124,-0.666538,-0.64100826,-0.61384225,-0.5907821,-0.5751308,-0.55867696,-0.53478324,-0.5035115,-0.4755121,-0.45408803,-0.43186134,-0.4046954,-0.37339282,-0.3503635,-0.3412876,-0.34045416,-0.34459078,-0.35446924,-0.38080168,-0.42528594,-0.47961783,-0.5331471,-0.58584285,-0.64264435,-0.702749,-0.7579144,-0.798262,-0.8237918,-0.84438235,-0.8690787,-0.89213884,-0.9069567,-0.9127294,-0.9168352,-0.92424405,-0.9300168,-0.9300168,-0.92424405,-0.92177445,-0.9267137,-0.9324864,-0.93332,-0.9275472,-0.92177445,-0.9201383,-0.9193048,-0.9127294,-0.9036535,-0.89871424,-0.90201735,-0.9069567,-0.9069567,-0.89871424,-0.893775,-0.8946085,-0.895442,-0.8913053,-0.8806242,-0.87318444,-0.8723818,-0.87485147,-0.87318444,-0.86744255,-0.8649729,-0.86991215,-0.87565404,-0.87485147,-0.86991215,-0.8690787,-0.87485147,-0.8814268,-0.87979066,-0.8707148,-0.8625033,-0.86003363,-0.8616698,-0.86083627,-0.855897,-0.8550944,-0.86003363,-0.86413944,-0.8625033,-0.8567305,-0.855897,-0.8616698,-0.8682452,-0.8690787,-0.8633059,-0.86003363,-0.8633059,-0.86660904,-0.8657755,-0.8592001,-0.8550944,-0.85836667,-0.8633059,-0.8633059,-0.85836667,-0.8550944,-0.85836667,-0.8625033,-0.86083627,-0.8542609,-0.8476855,-0.8501551,-0.8550944,-0.85756403,-0.855897,-0.8567305,-0.8625033,-0.8682452,-0.8690787,-0.8649729,-0.8633059,-0.86744255,-0.8715483,-0.8690787,-0.8625033,-0.855897,-0.8550944,-0.8567305,-0.8542609,-0.8484881,-0.8460185,-0.8493216,-0.85095775,-0.84521586,-0.8303672,-0.8130798,-0.80073166,-0.789217,-0.7727322,-0.7546421,-0.73899084,-0.72991496,-0.72333956,-0.71429455,-0.70441604,-0.7035825,-0.7159307,-0.73568773,-0.7480359,-0.7505055,-0.7505055,-0.76205105,-0.7851112,-0.81227714,-0.83614,-0.85756403,-0.87565404,-0.8855635,-0.88636607,-0.8781237,-0.87648755,-0.8806242,-0.8871996,-0.8880331,-0.8814268,-0.87648755,-0.87732106,-0.8806242,-0.8781237,-0.86991215,-0.8657755,-0.8723818,-0.88636607,-0.8970781,-0.9036535,-0.9069567,-0.88636607,-0.79332274,-0.5776005,-0.23342645,0.1856699,0.58173716,0.86580634,0.9720005,0.88142693,0.6171454,0.23179018,-0.18897313,-0.54135865,-0.76862645,-0.87401795,-0.89871424,-0.893775,-0.89213884,-0.904487,-0.92260796,-0.93825924,-0.9448346,-0.94072884,-0.92918336,-0.9193048,-0.9176687,-0.9184713,-0.9160017,-0.9094263,-0.9036535,-0.90285087,-0.90201735,-0.89624465,-0.88636607,-0.87979066,-0.8814268,-0.88389647,-0.8806242,-0.8707148,-0.8625033,-0.86083627,-0.86083627,-0.855897,-0.846852,-0.8402766,-0.8402766,-0.8394431,-0.83286774,-0.81885254,-0.8073379,-0.80403477,-0.8023986,-0.7949897,-0.7801411,-0.7669903,-0.7587479,-0.7505055,-0.7340516,-0.7085218,-0.6838255,-0.666538,-0.6517203,-0.634402,-0.6121753,-0.587479,-0.56772196,-0.5463288,-0.51913196,-0.48619318,-0.45655763,-0.43349743,-0.41457397,-0.38987762,-0.3610447,-0.3379845,-0.32810593,-0.32730335,-0.33224255,-0.34375727,-0.37012058,-0.41457397,-0.47057283,-0.5265408,-0.58007014,-0.6368716,-0.69780976,-0.7546421,-0.79745936,-0.8270949,-0.85179126,-0.8781237,-0.90201735,-0.9160017,-0.9193048,-0.92177445,-0.9308503,-0.94072884,-0.9456681,-0.9431985,-0.94072884,-0.9431985,-0.94647074,-0.9440011,-0.9357896,-0.9300168,-0.9308503,-0.9349561,-0.93412256,-0.9267137,-0.92094094,-0.9201383,-0.9201383,-0.91519904,-0.9069567,-0.90201735,-0.90612316,-0.91189593,-0.9110624,-0.90201735,-0.8946085,-0.89213884,-0.893775,-0.89213884,-0.8871996,-0.8855635,-0.88966924,-0.8946085,-0.893775,-0.88473,-0.8789572,-0.87979066,-0.88309383,-0.8822603,-0.87732106,-0.87318444,-0.87732106,-0.8822603,-0.8806242,-0.87318444,-0.8690787,-0.87318444,-0.87979066,-0.8789572,-0.86991215,-0.86083627,-0.8616698,-0.86660904,-0.8682452,-0.8649729,-0.8616698,-0.8649729,-0.8707148,-0.8723818,-0.8682452,-0.86413944,-0.8657755,-0.8690787,-0.8707148,-0.86744255,-0.8657755,-0.8682452,-0.86991215,-0.8649729,-0.8550944,-0.8493216,-0.8534274,-0.86083627,-0.86413944,-0.86003363,-0.8567305,-0.8592001,-0.86413944,-0.8633059,-0.8567305,-0.8526248,-0.855897,-0.86083627,-0.8616698,-0.8542609,-0.8501551,-0.8542609,-0.85836667,-0.8534274,-0.8402766,-0.8246253,-0.8139133,-0.8081405,-0.79745936,-0.77850497,-0.7587479,-0.7439301,-0.73238456,-0.72250605,-0.7118249,-0.70935524,-0.72003645,-0.7348542,-0.74886936,-0.7546421,-0.7595814,-0.76862645,-0.7851112,-0.80650437,-0.8270949,-0.85095775,-0.87318444,-0.8888357,-0.89050275,-0.8806242,-0.87401795,-0.87485147,-0.8789572,-0.8822603,-0.8781237,-0.87401795,-0.87485147,-0.87732106,-0.87565404,-0.86744255,-0.8625033,-0.86744255,-0.8806242,-0.8913053,-0.8979116,-0.9053205,-0.90612316,-0.86413944,-0.72417307,-0.45492154,-0.0728696,0.3462268,0.71018875,0.9365922,0.97036433,0.80567086,0.4820875,0.07123339,-0.32977295,-0.6327659,-0.8130798,-0.8855635,-0.893775,-0.88473,-0.8855635,-0.90118384,-0.92260796,-0.9349561,-0.9349561,-0.9275472,-0.9201383,-0.92177445,-0.9275472,-0.92838067,-0.92260796,-0.9160017,-0.9127294,-0.9110624,-0.9053205,-0.89297235,-0.88389647,-0.8814268,-0.88309383,-0.8806242,-0.8723818,-0.86413944,-0.8625033,-0.8625033,-0.85756403,-0.84521586,-0.8336703,-0.8295646,-0.82873106,-0.8246253,-0.8155494,-0.8073379,-0.8048683,-0.80320126,-0.79332274,-0.7760353,-0.7587479,-0.7472333,-0.74146044,-0.7307485,-0.7150972,-0.6994767,-0.6862951,-0.6698103,-0.6459475,-0.6146449,-0.58584285,-0.5652523,-0.5487984,-0.5265408,-0.49690527,-0.46726972,-0.44257337,-0.4211493,-0.39892262,-0.37092322,-0.34706038,-0.33224255,-0.3223641,-0.3157578,-0.31412172,-0.32977295,-0.36845356,-0.42281634,-0.48208743,-0.5364194,-0.5924182,-0.6541899,-0.7150972,-0.7669903,-0.80650437,-0.83614,-0.8633059,-0.88636607,-0.90038127,-0.90612316,-0.913532,-0.92507756,-0.93412256,-0.9349561,-0.92838067,-0.92507756,-0.92838067,-0.9349561,-0.9365922,-0.9324864,-0.92838067,-0.9300168,-0.93332,-0.9300168,-0.92177445,-0.9168352,-0.92094094,-0.9258802,-0.92341053,-0.91519904,-0.9077901,-0.90859276,-0.9110624,-0.90859276,-0.89954776,-0.89297235,-0.8946085,-0.89954776,-0.89871424,-0.89297235,-0.8888357,-0.89213884,-0.89624465,-0.8946085,-0.8880331,-0.88389647,-0.8880331,-0.895442,-0.89624465,-0.88966924,-0.88309383,-0.8822603,-0.88389647,-0.88389647,-0.8781237,-0.87485147,-0.87732106,-0.87979066,-0.87565404,-0.8649729,-0.85836667,-0.85836667,-0.86413944,-0.86660904,-0.8625033,-0.86083627,-0.8633059,-0.86744255,-0.86744255,-0.8616698,-0.8592001,-0.8633059,-0.8682452,-0.8682452,-0.8625033,-0.85836667,-0.8616698,-0.8682452,-0.8690787,-0.8633059,-0.855897,-0.85836667,-0.86413944,-0.86660904,-0.8625033,-0.85836667,-0.85836667,-0.86083627,-0.85836667,-0.85179126,-0.8484881,-0.8542609,-0.8616698,-0.86083627,-0.85095775,-0.84191275,-0.8402766,-0.84191275,-0.83533734,-0.81801903,-0.7990955,-0.78427774,-0.77192956,-0.7546421,-0.7332181,-0.7159307,-0.7109914,-0.7150972,-0.72003645,-0.72417307,-0.73238456,-0.7480359,-0.76368713,-0.77192956,-0.77439916,-0.78758085,-0.8147468,-0.846852,-0.8715483,-0.8814268,-0.8855635,-0.89213884,-0.89954776,-0.90038127,-0.8946085,-0.89050275,-0.89297235,-0.8970781,-0.89624465,-0.8880331,-0.8789572,-0.8781237,-0.8789572,-0.87565404,-0.87318444,-0.8781237,-0.8913053,-0.9102598,-0.9193048,-0.90118384,-0.82295835,-0.6443113,-0.34212112,0.060521364,0.47634566,0.80073166,0.94319844,0.8723819,0.6245544,0.26059234,-0.15273124,-0.5183293,-0.76779294,-0.88473,-0.8970781,-0.8715483,-0.8633059,-0.8806242,-0.904487,-0.9160017,-0.9184713,-0.92094094,-0.9258802,-0.92424405,-0.9168352,-0.91189593,-0.9127294,-0.91436553,-0.9127294,-0.90285087,-0.8913053,-0.88636607,-0.88309383,-0.87732106,-0.86991215,-0.86660904,-0.8690787,-0.8723818,-0.8682452,-0.855897,-0.8435489,-0.8369735,-0.83533734,-0.8336703,-0.82873106,-0.82542795,-0.8270949,-0.82789755,-0.81968606,-0.8048683,-0.79085314,-0.7834442,-0.7818081,-0.77439916,-0.760384,-0.74639976,-0.7348542,-0.72333956,-0.7068857,-0.68135583,-0.65665954,-0.6377051,-0.6195842,-0.59488785,-0.5644188,-0.5364194,-0.5141927,-0.4944356,-0.47057283,-0.43927026,-0.4079985,-0.3824687,-0.360242,-0.3355149,-0.311652,-0.30010653,-0.30671275,-0.32893944,-0.360242,-0.39892262,-0.44667912,-0.50845075,