-0.87340426,-0.87384677,-0.8715901,-0.86610323,-0.8629173,-0.8647758,-0.8693334,-0.87296176,-0.87340426,-0.86384654,-0.8511029,-0.8474745,-0.85247463,-0.86203235,-0.8693334,-0.86703247,-0.85747474,-0.8501737,-0.84835947,-0.8538463,-0.86021817,-0.86021817,-0.85703224,-0.85247463,-0.848802,-0.848802,-0.8492887,-0.84791696,-0.8461028,-0.84380186,-0.839731,-0.83654505,-0.8328724,-0.8333591,-0.8338016,-0.8296865,-0.82287216,-0.81012857,-0.7946415,-0.7855262,-0.7805261,-0.7805261,-0.7787119,-0.7700392,-0.75455207,-0.7372508,-0.72494966,-0.71902037,-0.7172061,-0.71539193,-0.71402025,-0.7149494,-0.71902037,-0.72632134,-0.7413659,-0.76822495,-0.8078276,-0.8501737,-0.882962,-0.8952632,-0.89344895,-0.8838912,-0.8761477,-0.8752185,-0.8752185,-0.8743335,-0.87066084,-0.86658996,-0.8629173,-0.8624748,-0.86703247,-0.8784044,-0.89844906,-0.9230514,-0.93486583,-0.9048209,-0.8082701,-0.6329565,-0.38843775,-0.08197075,0.26909888,0.61202693,0.8688468,0.9380517,0.7709241,0.40573907,-0.044624865,-0.43896985,-0.7072059,-0.84791696,-0.9002633,-0.9175646,-0.9253081,-0.9289807,-0.927609,-0.9244231,-0.9221222,-0.9198655,-0.919423,-0.9180513,-0.91393614,-0.91167945,-0.90756434,-0.9084936,-0.9061926,-0.90075004,-0.89389145,-0.882962,-0.8775194,-0.8752185,-0.8752185,-0.8743335,-0.86840415,-0.8611031,-0.8579172,-0.85928893,-0.8629173,-0.86428905,-0.86158985,-0.8511029,-0.83880174,-0.8269431,-0.8155711,-0.80557096,-0.7991991,-0.79552644,-0.7877829,-0.78003937,-0.7709684,-0.76410985,-0.7613664,-0.75910974,-0.7554813,-0.746366,-0.73450744,-0.7213212,-0.7080909,-0.69309056,-0.677161,-0.66074467,-0.64388597,-0.6279564,-0.6115843,-0.59609723,-0.58242434,-0.5660524,-0.5482643,-0.5250337,-0.4995464,-0.4768026,-0.4626872,-0.45720035,-0.45812958,-0.46220046,-0.46587312,-0.47357243,-0.49136043,-0.51914865,-0.55556536,-0.59609723,-0.6361424,-0.67486006,-0.71313524,-0.7513662,-0.78459704,-0.81601363,-0.84380186,-0.86884665,-0.88933384,-0.9020775,-0.90575016,-0.90575016,-0.9039359,-0.90756434,-0.9153079,-0.9216797,-0.9230514,-0.9153079,-0.9066351,-0.9020775,-0.9048209,-0.91212195,-0.9180513,-0.9180513,-0.9130069,-0.908936,-0.9066351,-0.9034492,-0.89889157,-0.8966349,-0.89389145,-0.89389145,-0.89570564,-0.89619243,-0.8975641,-0.8993783,-0.89889157,-0.8993783,-0.8980066,-0.89570564,-0.8948207,-0.8943782,-0.89163476,-0.88707715,-0.882962,-0.88251954,-0.8843337,-0.88889134,-0.8948207,-0.8998208,-0.9020775,-0.9011925,-0.89889157,-0.8943782,-0.8907056,-0.88933384,-0.89114803,-0.8925198,-0.89344895,-0.89344895,-0.8898206,-0.8902631,-0.88933384,-0.88844883,-0.8861479,-0.8811478,-0.8797761,-0.8815903,-0.88707715,-0.89163476,-0.89114803,-0.8861479,-0.8770327,-0.87296176,-0.8743335,-0.8775194,-0.88207704,-0.8834488,-0.8838912,-0.88477623,-0.88526297,-0.88477623,-0.8784044,-0.87384677,-0.8693334,-0.86610323,-0.8674749,-0.8693334,-0.87066084,-0.87570524,-0.8765902,-0.8775194,-0.8770327,-0.8702184,-0.8629173,-0.8588464,-0.8588464,-0.8647758,-0.8720326,-0.8743335,-0.8711476,-0.8647758,-0.85973144,-0.8579172,-0.85566056,-0.85247463,-0.84424436,-0.83424413,-0.8224297,-0.81194276,-0.80508417,-0.7996416,-0.79282725,-0.78234035,-0.76866746,-0.7513662,-0.7349942,-0.7258789,-0.7208788,-0.71902037,-0.7208788,-0.72539216,-0.7295073,-0.7372508,-0.7536671,-0.78141105,-0.82057124,-0.8624748,-0.8970774,-0.91256446,-0.91256446,-0.9039359,-0.89389145,-0.88663465,-0.88207704,-0.8797761,-0.88207704,-0.8843337,-0.88844883,-0.88889134,-0.88526297,-0.882962,-0.8907056,-0.9111927,-0.9316799,-0.92579484,-0.8652183,-0.72676384,-0.51277685,-0.23042542,0.11838758,0.48450184,0.787783,0.93212247,0.8419877,0.5332197,0.09927213,-0.3264895,-0.6480011,-0.83517337,-0.91393614,-0.93305165,-0.9289807,-0.9266798,-0.9271223,-0.9294232,-0.93260914,-0.9339808,-0.93260914,-0.9294232,-0.92349386,-0.9180513,-0.91256446,-0.90756434,-0.9043784,-0.9002633,-0.89619243,-0.8943782,-0.89619243,-0.8970774,-0.8952632,-0.89114803,-0.88526297,-0.8815903,-0.8815903,-0.8793336,-0.87384677,-0.8647758,-0.8565455,-0.8474745,-0.83835924,-0.8296865,-0.82287216,-0.82057124,-0.8224297,-0.8215005,-0.8173853,-0.8078276,-0.79552644,-0.78415453,-0.7750393,-0.76641077,-0.757738,-0.7522954,-0.7468085,-0.7399943,-0.7286223,-0.7126485,-0.6921613,-0.67167413,-0.65574455,-0.6461868,-0.63569987,-0.62202704,-0.6024691,-0.57605255,-0.5500786,-0.53096306,-0.5182195,-0.50729,-0.4945463,-0.4818027,-0.47087324,-0.4649439,-0.46587312,-0.47131574,-0.48450184,-0.50317484,-0.53096306,-0.5692383,-0.6115843,-0.6571163,-0.69990486,-0.7413659,-0.7795969,-0.81419945,-0.8469877,-0.8720326,-0.8907056,-0.90575016,-0.9148654,-0.9221222,-0.9266798,-0.93079495,-0.9339808,-0.9339808,-0.93035245,-0.9248656,-0.92075044,-0.920308,-0.92349386,-0.9294232,-0.93079495,-0.9266798,-0.92075044,-0.9111927,-0.9048209,-0.9061926,-0.9093785,-0.91167945,-0.91256446,-0.91075027,-0.90756434,-0.9084936,-0.9084936,-0.90530765,-0.9030067,-0.9048209,-0.9084936,-0.9130069,-0.91437864,-0.908936,-0.9030067,-0.8998208,-0.9011925,-0.9048209,-0.908936,-0.91256446,-0.91167945,-0.90982103,-0.9034492,-0.8966349,-0.8930065,-0.8966349,-0.901635,-0.9066351,-0.9084936,-0.9061926,-0.90075004,-0.8966349,-0.89389145,-0.8948207,-0.8980066,-0.9011925,-0.9030067,-0.89889157,-0.8943782,-0.8907056,-0.88933384,-0.8898206,-0.8857055,-0.8802186,-0.8761477,-0.8784044,-0.8879621,-0.89570564,-0.89619243,-0.89207727,-0.8838912,-0.8802186,-0.8811478,-0.88251954,-0.882962,-0.88207704,-0.8838912,-0.88663465,-0.88707715,-0.88526297,-0.8797761,-0.8743335,-0.8702184,-0.8697759,-0.8674749,-0.8624748,-0.8542888,-0.8429169,-0.8328724,-0.8242439,-0.821058,-0.8215005,-0.8173853,-0.80327,-0.7795969,-0.7541096,-0.7358791,-0.7290648,-0.73632157,-0.74773777,-0.75685304,-0.7627381,-0.7672957,-0.78141105,-0.8082701,-0.84424436,-0.8788911,-0.8998208,-0.9080068,-0.9084936,-0.90530765,-0.9011925,-0.8966349,-0.8925198,-0.8879621,-0.8879621,-0.8907056,-0.88933384,-0.8879621,-0.8879621,-0.8930065,-0.908936,-0.9312374,-0.93898094,-0.90530765,-0.8082701,-0.63800085,-0.40255314,-0.107458174,0.22493863,0.5418925,0.7663665,0.800969,0.6037966,0.22405362,-0.22175264,-0.598354,-0.829244,-0.9244231,-0.9399102,-0.93079495,-0.9271223,-0.93035245,-0.93260914,-0.93035245,-0.9271223,-0.9253081,-0.9230514,-0.92075044,-0.9175646,-0.9153079,-0.91437864,-0.908936,-0.9030067,-0.8970774,-0.8925198,-0.89344895,-0.8952632,-0.8925198,-0.8843337,-0.87340426,-0.8656607,-0.86340404,-0.86703247,-0.8693334,-0.8674749,-0.86021817,-0.84835947,-0.83743,-0.8288015,-0.8260581,-0.829244,-0.83198744,-0.83061576,-0.8215005,-0.8060134,-0.7896414,-0.77641094,-0.7700392,-0.76592404,-0.76366735,-0.7604814,-0.75685304,-0.7509237,-0.74362266,-0.730879,-0.7126485,-0.6907896,-0.67030245,-0.65118694,-0.6352574,-0.61884105,-0.598354,-0.57879597,-0.56286645,-0.5482643,-0.5368924,-0.52414876,-0.50954664,-0.49410385,-0.47768754,-0.46631563,-0.4613155,-0.46720064,-0.48450184,-0.5114051,-0.5428217,-0.57561004,-0.6120268,-0.6525587,-0.69764817,-0.74362266,-0.7855262,-0.821058,-0.8511029,-0.8743335,-0.89163476,-0.9043784,-0.90982103,-0.91393614,-0.9180513,-0.9226089,-0.927609,-0.9312374,-0.9335384,-0.93486583,-0.93579507,-0.9362375,-0.93486583,-0.9298657,-0.9230514,-0.9175646,-0.9180513,-0.92349386,-0.9289807,-0.9316799,-0.928494,-0.92075044,-0.9157503,-0.91256446,-0.91075027,-0.91075027,-0.9080068,-0.9039359,-0.9011925,-0.8993783,-0.901635,-0.9066351,-0.9084936,-0.908936,-0.90575016,-0.9039359,-0.9025642,-0.90075004,-0.89889157,-0.8970774,-0.8948207,-0.8952632,-0.8902631,-0.88526297,-0.88526297,-0.8902631,-0.901635,-0.91167945,-0.9161928,-0.91393614,-0.9080068,-0.901635,-0.8975641,-0.8952632,-0.8948207,-0.89619243,-0.8952632,-0.8948207,-0.8925198,-0.8907056,-0.88889134,-0.8843337,-0.8797761,-0.8770327,-0.8797761,-0.88477623,-0.88751966,-0.88663465,-0.88070536,-0.8761477,-0.8765902,-0.8784044,-0.8802186,-0.8802186,-0.8793336,-0.8784044,-0.874776,-0.8702184,-0.8656607,-0.86428905,-0.86384654,-0.86384654,-0.8647758,-0.8656607,-0.8656607,-0.8629173,-0.8538463,-0.83924425,-0.82512885,-0.81419945,-0.80694264,-0.80327,-0.8014558,-0.7991991,-0.7918981,-0.7782252,-0.757738,-0.74043673,-0.730879,-0.7286223,-0.73362243,-0.73906505,-0.74362266,-0.7445519,-0.7422509,-0.746366,-0.76322484,-0.79782736,-0.83924425,-0.8770327,-0.89889157,-0.9030067,-0.8966349,-0.8857055,-0.8770327,-0.87384677,-0.87384677,-0.8788911,-0.88251954,-0.8797761,-0.8743335,-0.86703247,-0.86658996,-0.8802186,-0.90712184,-0.9344233,-0.93486583,-0.8834488,-0.75866723,-0.55875134,-0.2946304,0.03458035,0.391137,0.70946264,0.89707744,0.8674749,0.61384106,0.20626569,-0.22679704,-0.57193744,-0.78415453,-0.88070536,-0.9066351,-0.9111927,-0.91393614,-0.91667956,-0.91667956,-0.9153079,-0.9157503,-0.9212372,-0.9253081,-0.92393637,-0.9175646,-0.91393614,-0.91256446,-0.91256446,-0.90712184,-0.89844906,-0.8907056,-0.88751966,-0.88844883,-0.8861479,-0.8797761,-0.8711476,-0.86340404,-0.856103,-0.84835947,-0.84154516,-0.83517337,-0.8310582,-0.8296865,-0.8283148,-0.8288015,-0.829244,-0.8269431,-0.81875706,-0.80694264,-0.7964557,-0.79052633,-0.7873404,-0.77734023,-0.76548153,-0.7581805,-0.7572955,-0.7609239,-0.7622956,-0.7486228,-0.72539216,-0.69990486,-0.6798602,-0.6643731,-0.6489303,-0.6329565,-0.6183986,-0.6029116,-0.5865395,-0.56830907,-0.54689264,-0.5237063,-0.5036615,-0.48773205,-0.47405916,-0.46450138,-0.45994377,-0.45627117,-0.45764285,-0.4590146,-0.46675807,-0.4881745,-0.52184784,-0.56786656,-0.61746943,-0.66348815,-0.7053917,-0.74273765,-0.7759685,-0.8041992,-0.8288015,-0.84835947,-0.8629173,-0.8752185,-0.8838912,-0.88889134,-0.89389145,-0.89889157,-0.9025642,-0.9034492,-0.9048209,-0.90530765,-0.90756434,-0.91393614,-0.91667956,-0.91256446,-0.9025642,-0.88844883,-0.8788911,-0.8770327,-0.88251954,-0.88889134,-0.89207727,-0.89163476,-0.8879621,-0.8843337,-0.882962,-0.8815903,-0.8797761,-0.8761477,-0.874776,-0.8761477,-0.87796193,-0.8811478,-0.882962,-0.882962,-0.8843337,-0.88526297,-0.8879621,-0.88889134,-0.88933384,-0.88933384,-0.88526297,-0.8802186,-0.8765902,-0.8770327,-0.8811478,-0.88707715,-0.8907056,-0.8907056,-0.88933384,-0.88844883,-0.88889134,-0.8857055,-0.8784044,-0.8693334,-0.86384654,-0.86203235,-0.8656607,-0.8702184,-0.8720326,-0.8725193,-0.8725193,-0.87384677,-0.8775194,-0.8788911,-0.8793336,-0.8770327,-0.8765902,-0.87384677,-0.8674749,-0.8629173,-0.85747474,-0.85566056,-0.8584039,-0.86021817,-0.86158985,-0.8611031,-0.8611031,-0.86384654,-0.86610323,-0.86796165,-0.86428905,-0.856103,-0.8501737,-0.84791696,-0.8515454,-0.8588464,-0.8624748,-0.8579172,-0.8511029,-0.84835947,-0.8492887,-0.85066044,-0.848802,-0.84154516,-0.8328724,-0.8265006,-0.821058,-0.8128277,-0.80189824,-0.79052633,-0.78459704,-0.7809686,-0.7709684,-0.7531804,-0.7331357,-0.7163212,-0.71127677,-0.71402025,-0.723578,-0.7326932,-0.7368083,-0.73862255,-0.73818004,-0.74406517,-0.76641077,-0.802385,-0.84335935,-0.8761477,-0.8943782,-0.89889157,-0.8966349,-0.89389145,-0.8907056,-0.88751966,-0.88526297,-0.8815903,-0.8775194,-0.87340426,-0.8711476,-0.87296176,-0.88070536,-0.8993783,-0.92349386,-0.9385385,-0.91849375,-0.8360583,-0.67167413,-0.42896968,-0.117060065,0.2477268,0.60928345,0.88703287,0.98588455,0.8428726,0.49268806,0.04050982,-0.37932253,-0.677161,-0.84154516,-0.9066351,-0.9253081,-0.9298657,-0.927609,-0.92349386,-0.92075044,-0.9230514,-0.9266798,-0.9312374,-0.93305165,-0.93079495,-0.927609,-0.9221222,-0.91256446,-0.9025642,-0.8930065,-0.8879621,-0.8857055,-0.88251954,-0.8788911,-0.8720326,-0.8652183,-0.85517377,-0.84380186,-0.83654505,-0.8356159,-0.84154516,-0.84835947,-0.848802,-0.84198767,-0.8310582,-0.8246864,-0.82287216,-0.8201288,-0.81601363,-0.8082701,-0.7964557,-0.78689796,-0.7809686,-0.7805261,-0.7795969,-0.7741543,-0.7645966,-0.746366,-0.7276931,-0.7158344,-0.7067634,-0.69764817,-0.685347,-0.66848826,-0.6502577,-0.6320715,-0.61295605,-0.59291136,-0.57061,-0.552822,-0.53870654,-0.52640545,-0.5132193,-0.49680305,-0.48043096,-0.4681298,-0.4613155,-0.45494366,-0.45357198,-0.46175802,-0.47905928,-0.50729,-0.5441934,-0.5865395,-0.632514,-0.67623174,-0.71813536,-0.7527379,-0.78141105,-0.81150025,-0.8406159,-0.86796165,-0.8902631,-0.9061926,-0.91437864,-0.91393614,-0.9093785,-0.9061926,-0.90712184,-0.91437864,-0.9212372,-0.9226089,-0.91849375,-0.91167945,-0.90756434,-0.90756434,-0.9066351,-0.9039359,-0.8980066,-0.8952632,-0.89163476,-0.89114803,-0.8930065,-0.89570564,-0.8975641,-0.90075004,-0.901635,-0.8970774,-0.89163476,-0.88477623,-0.88070536,-0.8811478,-0.8857055,-0.8925198,-0.8970774,-0.89889157,-0.8970774,-0.8907056,-0.882962,-0.8797761,-0.8793336,-0.88526297,-0.8907056,-0.8925198,-0.88889134,-0.88477623,-0.882962,-0.88251954,-0.88477623,-0.88707715,-0.88751966,-0.88751966,-0.88663465,-0.88526297,-0.88526297,-0.8857055,-0.8861479,-0.8838912,-0.8797761,-0.8793336,-0.87796193,-0.8775194,-0.8811478,-0.88526297,-0.8879621,-0.8902631,-0.88663465,-0.8784044,-0.8697759,-0.86703247,-0.86840415,-0.8711476,-0.87340426,-0.87384677,-0.8711476,-0.8693334,-0.86796165,-0.86658996,-0.86610323,-0.86796165,-0.86796165,-0.86658996,-0.8652183,-0.8652183,-0.86703247,-0.87066084,-0.8711476,-0.86840415,-0.86428905,-0.86203235,-0.8584039,-0.85247463,-0.84335935,-0.8310582,-0.8169429,-0.80694264,-0.8014558,-0.79826987,-0.7968982,-0.79096884,-0.7787119,-0.7622956,-0.746366,-0.73906505,-0.7395518,-0.7445519,-0.749552,-0.7504812,-0.7491095,-0.746366,-0.7531804,-0.7759685,-0.81012857,-0.8515454,-0.88663465,-0.90575016,-0.9048209,-0.89389145,-0.882962,-0.87570524,-0.8743335,-0.8770327,-0.8775194,-0.8770327,-0.8784044,-0.8788911,-0.87796193,-0.88251954,-0.8952632,-0.9148654,-0.93035245,-0.91212195,-0.8333591,-0.6789752,-0.45812958,-0.17670739,0.15117586,0.48087347,0.74269354,0.8333149,0.69397557,0.35197675,-0.09245783,-0.4927321,-0.7627381,-0.89389145,-0.9266798,-0.9153079,-0.9002633,-0.8930065,-0.8943782,-0.901635,-0.91075027,-0.91712207,-0.91849375,-0.9157503,-0.9130069,-0.9093785,-0.9048209,-0.90075004,-0.89344895,-0.88663465,-0.88070536,-0.8752185,-0.8720326,-0.86840415,-0.8624748,-0.8547313,-0.8474745,-0.84105843,-0.83880174,-0.8378725,-0.83424413,-0.8288015,-0.8237572,-0.8196863,-0.8169429,-0.8146862,-0.81331444,-0.81150025,-0.80508417,-0.7968982,-0.7859687,-0.77278256,-0.7645966,-0.7604814,-0.7554813,-0.7536671,-0.74773777,-0.7372508,-0.72494966,-0.7149494,-0.7044625,-0.69534725,-0.6826036,-0.66393065,-0.6402575,-0.6170269,-0.5979115,-0.5856103,-0.5737959,-0.5619372,-0.5446359,-0.5237063,-0.5036615,-0.4822452,-0.4626872,-0.44764262,-0.4403416,-0.44582844,-0.45627117,-0.4695015,-0.4818027,-0.49773222,-0.5237063,-0.5605655,-0.605655,-0.6539304,-0.70127654,-0.74773777,-0.79145557,-0.8260581,-0.84791696,-0.8629173,-0.8715901,-0.8797761,-0.88751966,-0.89163476,-0.89344895,-0.89570564,-0.8993783,-0.9066351,-0.91167945,-0.91393614,-0.91349363,-0.91167945,-0.90756434,-0.8970774,-0.88889134,-0.88707715,-0.88751966,-0.8966349,-0.9030067,-0.8998208,-0.89344895,-0.88933384,-0.8861479,-0.8843337,-0.8815903,-0.8793336,-0.8743335,-0.8715901,-0.87066084,-0.86884665,-0.8693334,-0.87066084,-0.87066084,-0.86840415,-0.86610323,-0.8656607,-0.86840415,-0.8715901,-0.8702184,-0.86884665,-0.8674749,-0.86884665,-0.8720326,-0.8752185,-0.8752185,-0.874776,-0.87570524,-0.87570524,-0.87570524,-0.8770327,-0.8793336,-0.8834488,-0.8834488,-0.882962,-0.8788911,-0.87296176,-0.8725193,-0.88207704,-0.89344895,-0.9025642,-0.9039359,-0.89114803,-0.8715901,-0.85747474,-0.85198784,-0.8542888,-0.86158985,-0.86658996,-0.86658996,-0.8652183,-0.86384654,-0.86384654,-0.8629173,-0.86203235,-0.8584039,-0.85517377,-0.8538463,-0.8515454,-0.8511029,-0.85247463,-0.8542888,-0.85747474,-0.85747474,-0.8547313,-0.85066044,-0.8492887,-0.8515454,-0.8542888,-0.85566056,-0.8542888,-0.8511029,-0.84561604,-0.8401735,-0.8296865,-0.81875706,-0.8064559,-0.7946415,-0.7855262,-0.78141105,-0.7777827,-0.77229583,-0.75866723,-0.7399943,-0.72176373,-0.7117635,-0.7099493,-0.71357775,-0.7167636,-0.71902037,-0.72176373,-0.72676384,-0.7395518,-0.76548153,-0.8028275,-0.84424436,-0.87570524,-0.88889134,-0.88526297,-0.8715901,-0.86428905,-0.8652183,-0.8720326,-0.88070536,-0.88707715,-0.88707715,-0.882962,-0.8761477,-0.86884665,-0.86796165,-0.8765902,-0.8980066,-0.9175646,-0.9066351,-0.8378725,-0.686232,-0.45445698,-0.15436184,0.19715047,0.5487069,0.82150054,0.925308,0.804155,0.4785726,0.04369569,-0.36657888,-0.66348815,-0.8283148,-0.8907056,-0.901635,-0.90075004,-0.9020775,-0.9061926,-0.91167945,-0.9153079,-0.91893625,-0.9175646,-0.91212195,-0.9093785,-0.90982103,-0.91256446,-0.91667956,-0.91349363,-0.8993783,-0.8811478,-0.8711476,-0.8697759,-0.8765902,-0.8834488,-0.8802186,-0.8702184,-0.86203235,-0.856103,-0.85198784,-0.848802,-0.84335935,-0.8401735,-0.8360583,-0.8324299,-0.8237572,-0.81375694,-0.80557096,-0.8010133,-0.7991991,-0.79552644,-0.79052633,-0.783712,-0.7750393,-0.76641077,-0.75685304,-0.74725103,-0.73906505,-0.7318082,-0.7245072,-0.714507,-0.6994624,-0.68353283,-0.6657448,-0.64481515,-0.6238855,-0.60609746,-0.5910971,-0.58016765,-0.56968075,-0.551937,-0.5250337,-0.49773222,-0.47998852,-0.47087324,-0.46905905,-0.46994406,-0.46587312,-0.46082878,-0.45994377,-0.46905905,-0.4927321,-0.53326404,-0.58242434,-0.6343282,-0.6776035,-0.70946264,-0.7372508,-0.76592404,-0.79552644,-0.8224297,-0.84791696,-0.86703247,-0.88477623,-0.90075004,-0.91075027,-0.91712207,-0.91849375,-0.9175646,-0.91393614,-0.9066351,-0.90075004,-0.89889157,-0.89844906,-0.9002633,-0.89889157,-0.9034492,-0.9030067,-0.89889157,-0.89889157,-0.89389145,-0.89344895,-0.89844906,-0.9020775,-0.9025642,-0.9043784,-0.9043784,-0.89844906,-0.8943782,-0.8907056,-0.8879621,-0.8898206,-0.8898206,-0.8861479,-0.88663465,-0.8902631,-0.89844906,-0.90712184,-0.9093785,-0.8966349,-0.88477623,-0.87296176,-0.8743335,-0.88889134,-0.90756434,-0.91893625,-0.920308,-0.91349363,-0.90575016,-0.8975641,-0.8898206,-0.8843337,-0.8838912,-0.88526297,-0.88707715,-0.8857055,-0.88207704,-0.8788911,-0.8775194,-0.8788911,-0.8770327,-0.87296176,-0.8697759,-0.8711476,-0.87796193,-0.8857055,-0.89163476,-0.8925198,-0.88663465,-0.8784044,-0.8720326,-0.86796165,-0.8697759,-0.8702184,-0.8761477,-0.8797761,-0.8793336,-0.8811478,-0.8784044,-0.8802186,-0.88070536,-0.8811478,-0.8802186,-0.8775194,-0.8743335,-0.87384677,-0.87570524,-0.87340426,-0.8674749,-0.85928893,-0.8465453,-0.8401735,-0.84561604,-0.85247463,-0.86158985,-0.8652183,-0.8611031,-0.8584039,-0.85747474,-0.856103,-0.84791696,-0.8328724,-0.8151287,-0.80057085,-0.79415476,-0.7960132,-0.79508394,-0.7855262,-0.7691099,-0.746366,-0.7258789,-0.71813536,-0.720392,-0.72676384,-0.7413659,-0.7536671,-0.7581805,-0.76410985,-0.77641094,-0.80057085,-0.8328724,-0.8711476,-0.9002633,-0.91030777,-0.9080068,-0.89570564,-0.88663465,-0.8843337,-0.8879621,-0.8948207,-0.8966349,-0.8943782,-0.8966349,-0.9011925,-0.9043784,-0.9093785,-0.9221222,-0.9407952,-0.947167,-0.91437864,-0.8123852,-0.6252129,-0.3697648,-0.045996487,0.3155601,0.65893054,0.8966348,0.9298657,0.72357786,0.33011794,-0.12798953,-0.51914865,-0.77048165,-0.88751966,-0.91667956,-0.9080068,-0.8952632,-0.8966349,-0.90530765,-0.9111927,-0.91437864,-0.9130069,-0.9061926,-0.9084936,-0.9161928,-0.92393637,-0.92393637,-0.9161928,-0.90575016,-0.89389145,-0.88526297,-0.8802186,-0.8743335,-0.86703247,-0.86158985,-0.85517377,-0.84791696,-0.84380186,-0.84154516,-0.84198767,-0.8461028,-0.8451736,-0.83835924,-0.83061576,-0.83061576,-0.8296865,-0.8333591,-0.8324299,-0.821058,-0.8082701,-0.79734063,-0.78915465,-0.783712,-0.77685344,-0.7650391,-0.75455207,-0.7445519,-0.73632157,-0.7290648,-0.7213212,-0.70857763,-0.695834,-0.6839753,-0.6657448,-0.64525765,-0.6293281,-0.61795616,-0.6115843,-0.6070267,-0.5906104,-0.560123,-0.52596295,-0.49817473,-0.47131574,-0.44808513,-0.44082832,-0.43896985,-0.4403416,-0.4426425,-0.4494568,-0.45857203,-0.4949888,-0.5591938,-0.62658465,-0.6817186,-0.7195071,-0.7395518,-0.76322484,-0.7918981,-0.8283148,-0.8624748,-0.8838912,-0.89889157,-0.90712184,-0.91256446,-0.92075044,-0.9271223,-0.9262373,-0.92075044,-0.90756434,-0.89570564,-0.8943782,-0.9002633,-0.91075027,-0.91256446,-0.90756434,-0.9011925,-0.9002633,-0.9048209,-0.908936,-0.9066351,-0.8998208,-0.89344895,-0.8898206,-0.8879621,-0.88933384,-0.8898206,-0.89114803,-0.8943782,-0.89570564,-0.89207727,-0.88663465,-0.8834488,-0.8802186,-0.8815903,-0.88889134,-0.8943782,-0.89570564,-0.8970774,-0.8952632,-0.89114803,-0.8907056,-0.8925198,-0.8925198,-0.88933384,-0.8857055,-0.88070536,-0.8775194,-0.8752185,-0.8770327,-0.88251954,-0.8907056,-0.89889157,-0.8998208,-0.89207727,-0.8838912,-0.8815903,-0.8857055,-0.8930065,-0.89619243,-0.8925198,-0.88526297,-0.88070536,-0.8765902,-0.8811478,-0.88844883,-0.8966349,-0.901635,-0.8993783,-0.8948207,-0.88751966,-0.87796193,-0.8711476,-0.86884665,-0.86796165,-0.86703247,-0.86610323,-0.8647758,-0.8624748,-0.8652183,-0.86703247,-0.8693334,-0.87066084,-0.8720326,-0.8752185,-0.87340426,-0.86658996,-0.8584039,-0.8465453,-0.83468664,-0.82561564,-0.81831455,-0.81012857,-0.8037567,-0.79826987,-0.7896414,-0.7795969,-0.76641077,-0.7509237,-0.7395518,-0.7331357,-0.73450744,-0.74043673,-0.74318016,-0.74273765,-0.7486228,-0.76548153,-0.80189824,-0.8501737,-0.88844883,-0.9080068,-0.9061926,-0.8966349,-0.88751966,-0.8838912,-0.8815903,-0.8815903,-0.88477623,-0.89114803,-0.8948207,-0.8948207,-0.88844883,-0.8811478,-0.88251954,-0.8975641,-0.9212372,-0.9403527,-0.93079495,-0.8588464,-0.71402025,-0.49910396,-0.22586781,0.093785286,0.42255366,0.6980907,0.8246865,0.73406494,0.430784,0.0054647923,-0.40485406,-0.7035775,-0.8647758,-0.9248656,-0.928494,-0.91212195,-0.9066351,-0.9061926,-0.9175646,-0.9298657,-0.9335384,-0.9271223,-0.9175646,-0.9084936,-0.9025642,-0.8943782,-0.88663465,-0.8815903,-0.8802186,-0.8815903,-0.8861479,-0.8879621,-0.8857055,-0.88251954,-0.8770327,-0.86796165,-0.85973144,-0.85066044,-0.8424301,-0.83880174,-0.83698756,-0.83743,-0.8356159,-0.83424413,-0.829244,-0.821058,-0.81375694,-0.8073851,-0.8014558,-0.7987124,-0.79282725,-0.7805261,-0.76822495,-0.75685304,-0.7513662,-0.7468085,-0.7399943,-0.7304365,-0.71902037,-0.70627666,-0.6944623,-0.6798602,-0.66304564,-0.6457443,-0.6306998,-0.6161419,-0.59972566,-0.58516777,-0.5692383,-0.54919356,-0.5268922,-0.5027324,-0.48450184,-0.47312993,-0.46720064,-0.46220046,-0.45764285,-0.4558286,-0.4649439,-0.4822452,-0.50636077,-0.53733486,-0.5701232,-0.6110976,-0.6530012,-0.69309056,-0.72676384,-0.75910974,-0.79096884,-0.821058,-0.8469877,-0.86658996,-0.8788911,-0.88844883,-0.8975641,-0.90756434,-0.9161928,-0.9216797,-0.9212372,-0.9175646,-0.9080068,-0.8993783,-0.89570564,-0.89619243,-0.8980066,-0.8998208,-0.89889157,-0.89389145,-0.88707715,-0.8788911,-0.8702184,-0.8652183,-0.86658996,-0.874776,-0.88070536,-0.88526297,-0.88663465,-0.88477623,-0.8838912,-0.882962,-0.87796193,-0.8702184,-0.86703247,-0.8656607,-0.86703247,-0.87066084,-0.8752185,-0.8802186,-0.8857055,-0.88663465,-0.8834488,-0.8761477,-0.87340426,-0.87570524,-0.8775194,-0.87796193,-0.8765902,-0.8720326,-0.8702184,-0.8720326,-0.87296176,-0.8720326,-0.8720326,-0.8720326,-0.87384677,-0.8743335,-0.87340426,-0.87340426,-0.8752185,-0.8793336,-0.88477623,-0.8838912,-0.87796193,-0.8725193,-0.86884665,-0.86658996,-0.8656607,-0.86384654,-0.8647758,-0.86840415,-0.8702184,-0.8697759,-0.86384654,-0.8565455,-0.8511029,-0.8474745,-0.8465453,-0.8474745,-0.8511029,-0.856103,-0.8588464,-0.85703224,-0.85517377,-0.8538463,-0.8542888,-0.85703224,-0.85747474,-0.8542888,-0.8533596,-0.8511029,-0.8474745,-0.839731,-0.8269431,-0.81194276,-0.79826987,-0.79096884,-0.7877829,-0.7850837,-0.77685344,-0.760039,-0.74087924,-0.72632134,-0.72176373,-0.72539216,-0.7304365,-0.7304365,-0.7290648,-0.7272506,-0.7299498,-0.7368083,-0.7541096,-0.78645545,-0.8283148,-0.8702184,-0.8975641,-0.9011925,-0.89163476,-0.8815903,-0.87796193,-0.88070536,-0.8838912,-0.8834488,-0.8811478,-0.8775194,-0.8752185,-0.8765902,-0.8788911,-0.88933384,-0.9111927,-0.93260914,-0.93079495,-0.8879621,-0.7795969,-0.595168,-0.34383506,-0.018208385,0.34972024,0.6903472,0.9075643,0.91163516,0.68397546,0.28688693,-0.15484852,-0.5232195,-0.75910974,-0.8765902,-0.9175646,-0.92579484,-0.93079495,-0.93579507,-0.93672425,-0.9385385,-0.94172436,-0.946282,-0.9476537,-0.9407952,-0.9289807,-0.919423,-0.9148654,-0.91712207,-0.9175646,-0.91437864,-0.9066351,-0.8993783,-0.8975641,-0.89570564,-0.89114803,-0.8811478,-0.8715901,-0.8652183,-0.8647758,-0.86610323,-0.86384654,-0.85703224,-0.8497312,-0.84424436,-0.8451736,-0.84835947,-0.85066044,-0.848802,-0.84105843,-0.8283148,-0.81601363,-0.8078276,-0.8014558,-0.7960132,-0.7873404,-0.7736676,-0.7595522,-0.74773777,-0.7372508,-0.7290648,-0.71857786,-0.7053917,-0.69309056,-0.6776035,-0.6616739,-0.64388597,-0.6288856,-0.61295605,-0.5956548,-0.57879597,-0.560123,-0.54145,-0.5291489,-0.5223346,-0.515476,-0.50729,-0.49680305,-0.4863603,-0.48317444,-0.4927321,-0.51366186,-0.5441934,-0.5774243,-0.61477023,-0.65848804,-0.7044625,-0.749552,-0.78915465,-0.8196863,-0.84335935,-0.86203235,-0.88070536,-0.89570564,-0.90712184,-0.91393614,-0.91437864,-0.91437864,-0.91712207,-0.9230514,-0.93216664,-0.9385385,-0.9412819,-0.93805176,-0.93079495,-0.9266798,-0.92349386,-0.919423,-0.91393614,-0.90982103,-0.9061926,-0.90575016,-0.9084936,-0.9093785,-0.90756434,-0.9039359,-0.901635,-0.9011925,-0.9039359,-0.90756434,-0.9084936,-0.90575016,-0.8993783,-0.8952632,-0.8966349,-0.89844906,-0.90756434,-0.9157503,-0.9212372,-0.9248656,-0.9221222,-0.91075027,-0.901635,-0.89389145,-0.8930065,-0.8966349,-0.90075004,-0.9034492,-0.9034492,-0.9020775,-0.89889157,-0.89619243,-0.8975641,-0.8998208,-0.9093785,-0.91893625,-0.92393637,-0.9221222,-0.91256446,-0.901635,-0.8948207,-0.8925198,-0.8952632,-0.8943782,-0.8902631,-0.88663465,-0.8834488,-0.8843337,-0.88707715,-0.88844883,-0.8902631,-0.8925198,-0.8930065,-0.8902631,-0.8834488,-0.8765902,-0.87384677,-0.8761477,-0.8793336,-0.88070536,-0.8761477,-0.8743335,-0.8811478,-0.88707715,-0.8879621,-0.8834488,-0.87340426,-0.8656607,-0.8624748,-0.86428905,-0.86703247,-0.86796165,-0.8697759,-0.86610323,-0.85747474,-0.8515454,-0.8492887,-0.85517377,-0.8606606,-0.85928893,-0.8492887,-0.8328724,-0.81650037,-0.80327,-0.79371226,-0.7900838,-0.78645545,-0.7782252,-0.7645966,-0.74273765,-0.7258789,-0.7195071,-0.72269297,-0.7331357,-0.74362266,-0.74725103,-0.74818027,-0.74818027,-0.75455207,-0.7787119,-0.81650037,-0.8565455,-0.8861479,-0.8948207,-0.88751966,-0.88251954,-0.88477623,-0.89570564,-0.90575016,-0.9030067,-0.89207727,-0.8802186,-0.874776,-0.8743335,-0.8770327,-0.8834488,-0.8975641,-0.9226089,-0.93942344,-0.9216797,-0.8401735,-0.678046,-0.44171327,-0.13480389,0.22812462,0.590168,0.86840415,0.96216726,0.81875706,0.47038662,0.022765994,-0.38936698,-0.6844178,-0.848802,-0.91167945,-0.9253081,-0.92579484,-0.9294232,-0.93260914,-0.93805176,-0.9430961,-0.94398105,-0.9444678,-0.9403527,-0.93216664,-0.9244231,-0.91667956,-0.91393614,-0.91349363,-0.9130069,-0.9111927,-0.90712184,-0.9043784,-0.90075004,-0.89389145,-0.88663465,-0.8775194,-0.8702184,-0.86703247,-0.8647758,-0.86384654,-0.86428905,-0.8611031,-0.8565455,-0.8469877,-0.8338016,-0.82331467,-0.81875706,-0.81787205,-0.81831455,-0.8155711,-0.8087568,-0.802385,-0.7968982,-0.79052633,-0.78234035,-0.7709684,-0.75910974,-0.74543685,-0.73406494,-0.72220623,-0.7080909,-0.6912763,-0.6744176,-0.6575588,-0.64481515,-0.631629,-0.6170269,-0.6001681,-0.57879597,-0.55830884,-0.54233503,-0.5273347,-0.51277685,-0.50047565,-0.4881745,-0.47905928,-0.47631586,-0.47950172,-0.4881745,-0.50228983,-0.5232195,-0.552822,-0.5860528,-0.6233988,-0.6621164,-0.7030908,-0.7486228,-0.79052633,-0.8265006,-0.8529171,-0.8702184,-0.8861479,-0.9011925,-0.91212195,-0.9248656,-0.93305165,-0.93716675,-0.93716675,-0.93260914,-0.9266798,-0.919423,-0.9148654,-0.91167945,-0.9061926,-0.9039359,-0.9048209,-0.90712184,-0.9066351,-0.9043784,-0.8980066,-0.8925198,-0.89163476,-0.89114803,-0.89114803,-0.89207727,-0.8925198,-0.8943782,-0.8943782,-0.8943782,-0.8952632,-0.89570564,-0.8975641,-0.901635,-0.9025642,-0.9048209,-0.9061926,-0.9061926,-0.9066351,-0.9066351,-0.9043784,-0.90075004,-0.8966349,-0.8925198,-0.8907056,-0.8902631,-0.88933384,-0.88889134,-0.88844883,-0.8857055,-0.88251954,-0.8811478,-0.8857055,-0.8948207,-0.9020775,-0.9020775,-0.89570564,-0.8879621,-0.8834488,-0.8843337,-0.8879621,-0.88889134,-0.8879621,-0.88663465,-0.88477623,-0.88251954,-0.88070536,-0.87796193,-0.8752185,-0.8715901,-0.8715901,-0.8702184,-0.8720326,-0.8743335,-0.8743335,-0.8711476,-0.86610323,-0.86610323,-0.8693334,-0.87384677,-0.8765902,-0.8715901,-0.8611031,-0.8529171,-0.84835947,-0.85066044,-0.85747474,-0.8647758,-0.8693334,-0.8674749,-0.86203235,-0.8542888,-0.84791696,-0.848802,-0.848802,-0.8474745,-0.8492887,-0.85247463,-0.8565455,-0.8606606,-0.85973144,-0.8501737,-0.84154516,-0.83198744,-0.8215005,-0.81150025,-0.7996416,-0.79145557,-0.7877829,-0.7850837,-0.775526,-0.75910974,-0.7395518,-0.7231355,-0.7167636,-0.71813536,-0.7240647,-0.7299498,-0.73132145,-0.7322507,-0.7349942,-0.749552,-0.7787119,-0.81875706,-0.85703224,-0.8815903,-0.88707715,-0.8834488,-0.8775194,-0.8743335,-0.8743335,-0.8770327,-0.8788911,-0.8793336,-0.87570524,-0.8693334,-0.86021817,-0.8584039,-0.86610323,-0.88526297,-0.91075027,-0.9248656,-0.9034492,-0.82331467,-0.666674,-0.44215578,-0.15529102,0.18077826,0.516361,0.7777827,0.86384654,0.7153921,0.3660922,-0.08378494,-0.48998868,-0.7650391,-0.8980066,-0.9316799,-0.91893625,-0.9011925,-0.8902631,-0.88751966,-0.8898206,-0.8930065,-0.9002633,-0.90575016,-0.9061926,-0.9048209,-0.8970774,-0.88844883,-0.8838912,-0.8834488,-0.8861479,-0.8861479,-0.8797761,-0.8697759,-0.86021817,-0.8538463,-0.8497312,-0.8469877,-0.84335935,-0.83654505,-0.8328724,-0.83012897,-0.82742983,-0.82512885,-0.82331467,-0.82512885,-0.8269431,-0.82512885,-0.81831455,-0.8064559,-0.7946415,-0.7855262,-0.7809686,-0.77641094,-0.77048165,-0.7627381,-0.7522954,-0.74043673,-0.7286223,-0.71769285,-0.7080909,-0.6980907,-0.6830461,-0.66804576,-0.65344363,-0.6420717,-0.63344324,-0.621142,-0.60521245,-0.5828669,-0.5596805,-0.53782165,-0.52096283,-0.50591826,-0.4931746,-0.48317444,-0.47357243,-0.4635722,-0.45675784,-0.45308524,-0.45675784,-0.47357243,-0.4995464,-0.5323348,-0.56786656,-0.60428333,-0.64344347,-0.6826036,-0.72220623,-0.7604814,-0.7968982,-0.8288015,-0.8547313,-0.874776,-0.88707715,-0.8943782,-0.8970774,-0.8970774,-0.8980066,-0.9011925,-0.9084936,-0.9180513,-0.92349386,-0.92393637,-0.9180513,-0.908936,-0.9025642,-0.8980066,-0.89570564,-0.89389145,-0.89344895,-0.8925198,-0.89163476,-0.8898206,-0.8861479,-0.88070536,-0.8770327,-0.87570524,-0.8761477,-0.8797761,-0.88251954,-0.882962,-0.8797761,-0.8765902,-0.87340426,-0.87296176,-0.87570524,-0.87796193,-0.8793336,-0.882962,-0.8838912,-0.8802186,-0.87296176,-0.86203235,-0.85517377,-0.85747474,-0.86658996,-0.87570524,-0.8834488,-0.88707715,-0.88663465,-0.8843337,-0.88207704,-0.8775194,-0.8725193,-0.8693334,-0.86610323,-0.86340404,-0.86428905,-0.8693334,-0.8761477,-0.87796193,-0.874776,-0.8674749,-0.8606606,-0.8584039,-0.8611031,-0.8629173,-0.86428905,-0.86658996,-0.86796165,-0.86703247,-0.86428905,-0.8584039,-0.8542888,-0.8538463,-0.8542888,-0.8515454,-0.8474745,-0.84380186,-0.8429169,-0.8469877,-0.8497312,-0.85247463,-0.85517377,-0.8579172,-0.8588464,-0.8565455,-0.84835947,-0.839731,-0.83924425,-0.8406159,-0.84380186,-0.8451736,-0.8429169,-0.8424301,-0.84335935,-0.84105843,-0.8333591,-0.82057124,-0.8078276,-0.7964557,-0.7877829,-0.7787119,-0.76866746,-0.76185316,-0.7563663,-0.7491095,-0.7395518,-0.72632134,-0.7158344,-0.7117635,-0.712206,-0.7167636,-0.72176373,-0.7258789,-0.7299498,-0.7358791,-0.7504812,-0.7782252,-0.8151287,-0.8515454,-0.8720326,-0.874776,-0.8697759,-0.8647758,-0.8647758,-0.8693334,-0.8702184,-0.8697759,-0.86884665,-0.8629173,-0.8542888,-0.8461028,-0.84561604,-0.8629173,-0.89344895,-0.9157503,-0.9030067,-0.8324299,-0.6826036,-0.46220046,-0.17852157,0.1607337,0.5113609,0.79689825,0.91982114,0.8132702,0.49405968,0.055111885,-0.3647647,-0.66893077,-0.8333591,-0.89389145,-0.90075004,-0.89570564,-0.8966349,-0.9025642,-0.91030777,-0.9157503,-0.920308,-0.919423,-0.91349363,-0.9039359,-0.89619243,-0.8907056,-0.88477623,-0.8811478,-0.8788911,-0.8775194,-0.8797761,-0.8802186,-0.8752185,-0.86703247,-0.8579172,-0.8533596,-0.85066044,-0.84791696,-0.84380186,-0.8406159,-0.8406159,-0.83924425,-0.83424413,-0.82512885,-0.8151287,-0.8087568,-0.80694264,-0.8041992,-0.7987124,-0.7900838,-0.78003937,-0.7691099,-0.7541096,-0.74362266,-0.73862255,-0.73862255,-0.7445519,-0.74318016,-0.7331357,-0.7172061,-0.6985332,-0.6798602,-0.66074467,-0.64255846,-0.62658465,-0.613841,-0.59972566,-0.5796809,-0.5546362,-0.5295913,-0.50954664,-0.49910396,-0.49224538,-0.48498863,-0.4749441,-0.46450138,-0.4558286,-0.45494366,-0.46082878,-0.4749441,-0.50136065,-0.53414893,-0.57149494,-0.6102126,-0.6502577,-0.6917188,-0.7331357,-0.7736676,-0.80557096,-0.8310582,-0.85066044,-0.86703247,-0.8834488,-0.8966349,-0.9043784,-0.9080068,-0.90756434,-0.9043784,-0.9020775,-0.9025642,-0.9030067,-0.90530765,-0.9066351,-0.90756434,-0.9066351,-0.9048209,-0.9011925,-0.8966349,-0.8907056,-0.8834488,-0.8793336,-0.88070536,-0.88751966,-0.89619243,-0.9030067,-0.9034492,-0.8980066,-0.89207727,-0.88751966,-0.8857055,-0.88663465,-0.8857055,-0.88070536,-0.8761477,-0.8711476,-0.87296176,-0.8815903,-0.8902631,-0.8943782,-0.8948207,-0.89207727,-0.8857055,-0.8797761,-0.8752185,-0.8711476,-0.8725193,-0.8765902,-0.8802186,-0.8797761,-0.8775194,-0.8765902,-0.87796193,-0.88070536,-0.8811478,-0.8770327,-0.87340426,-0.87066084,-0.8697759,-0.8715901,-0.87066084,-0.8711476,-0.8711476,-0.8725193,-0.8743335,-0.8770327,-0.8788911,-0.87796193,-0.8743335,-0.86796165,-0.8611031,-0.8579172,-0.8579172,-0.85747474,-0.8584039,-0.85928893,-0.8629173,-0.86658996,-0.86796165,-0.8674749,-0.86428905,-0.86021817,-0.85517377,-0.8497312,-0.84791696,-0.8511029,-0.85703224,-0.86021817,-0.85747474,-0.8511029,-0.8465453,-0.84424436,-0.84380186,-0.8451736,-0.84424436,-0.8429169,-0.8447311,-0.8469877,-0.84835947,-0.8492887,-0.8474745,-0.8447311,-0.8447311,-0.8461028,-0.8465453,-0.84561604,-0.84335935,-0.83924425,-0.83424413,-0.8265006,-0.8123852,-0.7946415,-0.7736676,-0.7563663,-0.74818027,-0.74818027,-0.7486228,-0.74043673,-0.72176373,-0.704905,-0.69990486,-0.7103918,-0.7272506,-0.730879,-0.72176373,-0.70902014,-0.7044625,-0.7172061,-0.74999446,-0.79508394,-0.8406159,-0.8770327,-0.89389145,-0.8907056,-0.87796193,-0.86658996,-0.86384654,-0.86840415,-0.87296176,-0.87340426,-0.8697759,-0.86384654,-0.85928893,-0.85747474,-0.86840415,-0.8898206,-0.9161928,-0.9266798,-0.8902631,-0.78234035,-0.5887962,-0.32423282,0.012279034,0.3865794,0.73220646,0.95716727,0.96584,0.7317641,0.3201177,-0.14024645,-0.5186619,-0.757738,-0.8711476,-0.9048209,-0.9080068,-0.908936,-0.91075027,-0.91075027,-0.91256446,-0.91712207,-0.9216797,-0.9248656,-0.9266798,-0.9221222,-0.9153079,-0.9111927,-0.908936,-0.9043784,-0.89619243,-0.88526297,-0.8788911,-0.87796193,-0.8770327,-0.8743335,-0.86703247,-0.8584039,-0.85517377,-0.85517377,-0.85703224,-0.8542888,-0.8465453,-0.8401735,-0.83517337,-0.8315007,-0.83012897,-0.8260581,-0.821058,-0.8128277,-0.80189824,-0.7918981,-0.78234035,-0.775526,-0.77048165,-0.7613664,-0.749552,-0.7395518,-0.730879,-0.7245072,-0.7195071,-0.7103918,-0.69353306,-0.6744176,-0.65344363,-0.6352574,-0.62202704,-0.6120268,-0.60384077,-0.5915396,-0.5724242,-0.54875106,-0.5237063,-0.50317484,-0.48724526,-0.47357243,-0.4635722,-0.45401442,-0.44989932,-0.45220023,-0.46220046,-0.48317444,-0.51366186,-0.5523795,-0.5915396,-0.6302573,-0.6643731,-0.6990199,-0.73362243,-0.7668532,-0.79782736,-0.8265006,-0.85703224,-0.8838912,-0.8998208,-0.90575016,-0.9043784,-0.9020775,-0.9039359,-0.90756434,-0.91075027,-0.91030777,-0.91030777,-0.90982103,-0.9061926,-0.8993783,-0.89344895,-0.8925198,-0.9011925,-0.908936,-0.91167945,-0.9039359,-0.8907056,-0.8811478,-0.8775194,-0.8797761,-0.88251954,-0.882962,-0.8861479,-0.88751966,-0.88751966,-0.8879621,-0.88751966,-0.88844883,-0.88933384,-0.8861479,-0.8793336,-0.86884665,-0.8629173,-0.8702184,-0.8843337,-0.8993783,-0.9080068,-0.90530765,-0.89844906,-0.89344895,-0.89114803,-0.8898206,-0.88477623,-0.8784044,-0.87384677,-0.8725193,-0.87384677,-0.8752185,-0.8761477,-0.8765902,-0.8784044,-0.8811478,-0.8838912,-0.882962,-0.8802186,-0.8775194,-0.87384677,-0.87340426,-0.8752185,-0.87796193,-0.88070536,-0.882962,-0.8857055,-0.8843337,-0.8802186,-0.8765902,-0.8711476,-0.86703247,-0.8652183,-0.8652183,-0.86610323,-0.86703247,-0.86610323,-0.8629173,-0.86340404,-0.86384654,-0.8693334,-0.8725193,-0.86884665,-0.8611031,-0.8565455,-0.8547313,-0.8588464,-0.8611031,-0.8588464,-0.8529171,-0.84835947,-0.8461028,-0.8469877,-0.8497312,-0.85198784,-0.8515454,-0.84835947,-0.84154516,-0.8324299,-0.829244,-0.83468664,-0.8424301,-0.8474745,-0.8451736,-0.83835924,-0.8283148,-0.82742983,-0.83061576,-0.83012897,-0.8237572,-0.8110135,-0.79782736,-0.7896414,-0.7850837,-0.78234035,-0.77322507,-0.7549946,-0.7318082,-0.71127677,-0.70127654,-0.704905,-0.71813536,-0.7304365,-0.7349942,-0.7349942,-0.73132145,-0.73632157,-0.75910974,-0.7918981,-0.8278723,-0.8547313,-0.8702184,-0.87384677,-0.87296176,-0.87384677,-0.8725193,-0.8697759,-0.8656607,-0.86340404,-0.8624748,-0.8606606,-0.8584039,-0.8579172,-0.86428905,-0.8843337,-0.90982103,-0.9230514,-0.8907056,-0.78826964,-0.60384077,-0.34834838,-0.031881273,0.31918848,0.64295673,0.8506161,0.84880185,0.6110977,0.19989395,-0.25002772,-0.6097702,-0.8224297,-0.9061926,-0.91667956,-0.9066351,-0.8998208,-0.9011925,-0.9066351,-0.908936,-0.9084936,-0.9039359,-0.89889157,-0.89889157,-0.8993783,-0.89889157,-0.8952632,-0.88526297,-0.87340426,-0.8674749,-0.86840415,-0.8725193,-0.8765902,-0.8752185,-0.8656607,-0.8515454,-0.8401735,-0.83424413,-0.83654505,-0.84105843,-0.8424301,-0.8401735,-0.8328724,-0.8242439,-0.81601363,-0.81150025,-0.80557096,-0.8010133,-0.7991991,-0.79508394,-0.7896414,-0.78234035,-0.7709684,-0.75910974,-0.74773777,-0.7376933,-0.7299498,-0.720392,-0.7099493,-0.69764817,-0.6844178,-0.6757893,-0.66985995,-0.66304564,-0.65162945,-0.63388574,-0.6120268,-0.58835375,-0.56968075,-0.55100775,-0.5337065,-0.5164052,-0.4999889,-0.48905945,-0.48043096,-0.47131574,-0.46082878,-0.45308524,-0.45357198,-0.4635722,-0.4822452,-0.50591826,-0.53277725,-0.56830907,-0.60839844,-0.65118694,-0.6949048,-0.7349942,-0.7745968,-0.81012857,-0.83698756,-0.856103,-0.8715901,-0.8861479,-0.901635,-0.9148654,-0.9198655,-0.9175646,-0.91075027,-0.9043784,-0.9043784,-0.908936,-0.9153079,-0.920308,-0.920308,-0.91712207,-0.91393614,-0.91075027,-0.9084936,-0.9080068,-0.9034492,-0.8975641,-0.8902631,-0.88526297,-0.8838912,-0.8834488,-0.88477623,-0.88526297,-0.8838912,-0.882962,-0.8815903,-0.8797761,-0.8784044,-0.88207704,-0.8843337,-0.8857055,-0.88889134,-0.89114803,-0.8930065,-0.8943782,-0.89114803,-0.8857055,-0.8811478,-0.8797761,-0.882962,-0.882962,-0.8811478,-0.88070536,-0.88207704,-0.88526297,-0.88751966,-0.88663465,-0.88477623,-0.8838912,-0.8857055,-0.88889134,-0.88933384,-0.8861479,-0.8811478,-0.8784044,-0.8775194,-0.87796193,-0.8797761,-0.8815903,-0.88207704,-0.87796193,-0.8725193,-0.8656607,-0.8652183,-0.86796165,-0.8720326,-0.87384677,-0.86840415,-0.8647758,-0.86428905,-0.86884665,-0.87340426,-0.8761477,-0.87570524,-0.8711476,-0.86658996,-0.8647758,-0.86340404,-0.86340404,-0.86340404,-0.8611031,-0.8606606,-0.8611031,-0.85973144,-0.8579172,-0.85247463,-0.8465453,-0.84380186,-0.84380186,-0.84835947,-0.85198784,-0.8547313,-0.85566056,-0.8529171,-0.84835947,-0.84380186,-0.84105843,-0.83924425,-0.83654505,-0.8310582,-0.8215005,-0.81194276,-0.802385,-0.79371226,-0.7827828,-0.7695967,-0.7513662,-0.73132145,-0.71769285,-0.7117635,-0.71402025,-0.72269297,-0.72632134,-0.7245072,-0.72632134,-0.73406494,-0.74773777,-0.7691099,-0.7968982,-0.82561564,-0.8547313,-0.8775194,-0.88663465,-0.8838912,-0.8770327,-0.8725193,-0.8725193,-0.8743335,-0.874776,-0.8743335,-0.8715901,-0.86796165,-0.8674749,-0.8761477,-0.8980066,-0.9226089,-0.93579507,-0.90575016,-0.8073851,-0.6302573,-0.38706607,-0.08197075,0.265913,0.6006106,0.8460585,0.90663517,0.7317641,0.36246383,-0.0874576,-0.4818027,-0.74499434,-0.874776,-0.9130069,-0.9130069,-0.908936,-0.9080068,-0.91256446,-0.92349386,-0.93216664,-0.9362375,-0.93260914,-0.920308,-0.90756434,-0.9025642,-0.8998208,-0.90075004,-0.9039359,-0.9030067,-0.9020775,-0.8980066,-0.8898206,-0.8802186,-0.8715901,-0.86658996,-0.8629173,-0.8588464,-0.85703224,-0.85198784,-0.848802,-0.84424436,-0.8360583,-0.82742983,-0.8242439,-0.82512885,-0.83012897,-0.8296865,-0.8237572,-0.8123852,-0.7987124,-0.78645545,-0.7759685,-0.76548153,-0.75685304,-0.7509237,-0.7459236,-0.73818004,-0.7272506,-0.7126485,-0.69764817,-0.6844178,-0.6730459,-0.6616739,-0.6484436,-0.63344324,-0.61746943,-0.59972566,-0.58149517,-0.5605655,-0.5418925,-0.5227771,-0.50684744,-0.4954313,-0.4840594,-0.47268748,-0.4676873,-0.4695015,-0.47905928,-0.49361706,-0.5086617,-0.5237063,-0.5428217,-0.5737959,-0.6152127,-0.6621164,-0.704905,-0.74043673,-0.7691099,-0.7960132,-0.82512885,-0.8565455,-0.8793336,-0.89163476,-0.89344895,-0.8952632,-0.90530765,-0.9198655,-0.93035245,-0.93035245,-0.9216797,-0.9111927,-0.90712184,-0.9093785,-0.91212195,-0.9111927,-0.90756434,-0.9030067,-0.8980066,-0.89619243,-0.8970774,-0.90075004,-0.9020775,-0.9030067,-0.90075004,-0.8980066,-0.89570564,-0.8907056,-0.8861479,-0.882962,-0.8879621,-0.8998208,-0.90756434,-0.90756434,-0.8980066,-0.88526297,-0.8770327,-0.874776,-0.87796193,-0.8834488,-0.88889134,-0.8930065,-0.8943782,-0.89163476,-0.88751966,-0.8861479,-0.88526297,-0.8843337,-0.88251954,-0.88070536,-0.8834488,-0.89163476,-0.89844906,-0.9011925,-0.8970774,-0.88844883,-0.8834488,-0.88251954,-0.8834488,-0.88251954,-0.8802186,-0.8788911,-0.8775194,-0.88070536,-0.88526297,-0.8902631,-0.8925198,-0.89207727,-0.88844883,-0.882962,-0.8770327,-0.8715901,-0.86840415,-0.86610323,-0.86796165,-0.8725193,-0.8761477,-0.8770327,-0.8761477,-0.8752185,-0.8720326,-0.8674749,-0.8624748,-0.8584039,-0.8565455,-0.8565455,-0.856103,-0.8565455,-0.8579172,-0.85973144,-0.8624748,-0.86340404,-0.85928893,-0.85517377,-0.8497312,-0.84835947,-0.8492887,-0.8515454,-0.8588464,-0.8629173,-0.86428905,-0.8606606,-0.8515454,-0.84380186,-0.84198767,-0.8474745,-0.85247463,-0.8492887,-0.84105843,-0.8288015,-0.82057124,-0.8173853,-0.8082701,-0.79415476,-0.77641094,-0.75866723,-0.74318016,-0.7281356,-0.7158344,-0.7126485,-0.7172061,-0.7290648,-0.7395518,-0.74043673,-0.7349942,-0.72676384,-0.72176373,-0.7286223,-0.7554813,-0.80008405,-0.8497312,-0.88707715,-0.9025642,-0.89844906,-0.88477623,-0.874776,-0.8715901,-0.87296176,-0.8761477,-0.88070536,-0.8857055,-0.8861479,-0.882962,-0.8834488,-0.8925198,-0.91167945,-0.9289807,-0.91893625,-0.8565455,-0.7149494,-0.49410385,-0.2003805,0.16029131,0.5323348,0.8365009,0.9753977,0.88066113,0.5660082,0.12064433,-0.31786102,-0.64937276,-0.84198767,-0.91849375,-0.93216664,-0.92393637,-0.91893625,-0.919423,-0.91893625,-0.92075044,-0.9253081,-0.93079495,-0.93942344,-0.9444678,-0.9412819,-0.9298657,-0.9161928,-0.9034492,-0.8952632,-0.89207727,-0.88933384,-0.8861479,-0.8811478,-0.8743335,-0.87066084,-0.8697759,-0.8702184,-0.86796165,-0.8611031,-0.85566056,-0.85198784,-0.8529171,-0.8538463,-0.8474745,-0.83698756,-0.8265006,-0.8201288,-0.8173853,-0.81331444,-0.8060134,-0.79826987,-0.79282725,-0.78871214,-0.7850837,-0.77641094,-0.76185316,-0.74499434,-0.7322507,-0.7258789,-0.7245072,-0.7213212,-0.7103918,-0.68809044,-0.6580013,-0.631629,-0.61339855,-0.6029116,-0.59242463,-0.57786673,-0.55875134,-0.5382641,-0.5204761,-0.50317484,-0.488617,-0.47631586,-0.4695015,-0.4681298,-0.4649439,-0.46675807,-0.48043096,-0.50729,-0.5441934,-0.58149517,-0.6120268,-0.6388858,-0.67030245,-0.7108343,-0.7563663,-0.7960132,-0.82742983,-0.8492887,-0.86384654,-0.8784044,-0.89389145,-0.9048209,-0.91212195,-0.91712207,-0.92075044,-0.92393637,-0.9262373,-0.92393637,-0.9157503,-0.90712184,-0.8998208,-0.90075004,-0.9048209,-0.91256446,-0.9175646,-0.91667956,-0.91212195,-0.9043784,-0.8980066,-0.89207727,-0.89114803,-0.8948207,-0.8966349,-0.89889157,-0.9002633,-0.8975641,-0.89344895,-0.89114803,-0.88751966,-0.8838912,-0.8834488,-0.8843337,-0.8838912,-0.8843337,-0.8861479,-0.88707715,-0.88933384,-0.8925198,-0.89570564,-0.8980066,-0.8975641,-0.8952632,-0.89207727,-0.8898206,-0.88663465,-0.88526297,-0.88526297,-0.8843337,-0.88889134,-0.8952632,-0.9011925,-0.90530765,-0.90575016,-0.8993783,-0.8898206,-0.8802186,-0.8711476,-0.86840415,-0.87340426,-0.8815903,-0.88751966,-0.8907056,-0.8861479,-0.8802186,-0.8793336,-0.8815903,-0.8843337,-0.88207704,-0.8765902,-0.86796165,-0.8629173,-0.86340404,-0.86796165,-0.8743335,-0.8797761,-0.88251954,-0.8815903,-0.8765902,-0.87296176,-0.86884665,-0.86340404,-0.86021817,-0.8565455,-0.8565455,-0.85747474,-0.8584039,-0.85928893,-0.8579172,-0.85566056,-0.85517377,-0.8588464,-0.86428905,-0.8674749,-0.86796165,-0.85973144,-0.8461028,-0.8328724,-0.8201288,-0.8087568,-0.7996416,-0.7900838,-0.78645545,-0.78459704,-0.77685344,-0.760039,-0.7418084,-0.7299498,-0.7318082,-0.7422509,-0.7491095,-0.74499434,-0.73450744,-0.7295073,-0.73818004,-0.7609239,-0.7968982,-0.83698756,-0.8702184,-0.88889134,-0.8902631,-0.882962,-0.8765902,-0.87384677,-0.8761477,-0.87796193,-0.87384677,-0.8697759,-0.8693334,-0.8711476,-0.874776,-0.8802186,-0.88889134,-0.90075004,-0.91167945,-0.89570564,-0.8283148,-0.6876037,-0.47587335,-0.2003805,0.13024628,0.46901476,0.7381358,0.83424413,0.6953472,0.35516274,-0.08378494,-0.48587358,-0.760039,-0.9002633,-0.9399102,-0.9271223,-0.9025642,-0.88663465,-0.8861479,-0.8943782,-0.901635,-0.9066351,-0.90982103,-0.90982103,-0.9111927,-0.9080068,-0.89844906,-0.88526297,-0.8761477,-0.8743335,-0.87796193,-0.882962,-0.8838912,-0.8765902,-0.8624748,-0.8492887,-0.84335935,-0.8461028,-0.8533596,-0.8584039,-0.8529171,-0.8406159,-0.8283148,-0.81875706,-0.81419945,-0.8123852,-0.8110135,-0.81012857,-0.8082701,-0.802385,-0.79282725,-0.78415453,-0.775526,-0.76778245,-0.7595522,-0.7459236,-0.730879,-0.71539193,-0.70402,-0.6994624,-0.69534725,-0.6871612,-0.67030245,-0.65118694,-0.63388574,-0.6170269,-0.6024691,-0.5887962,-0.5746808,-0.561008,-0.5478219,-0.53052056,-0.5086617,-0.4840594,-0.4635722,-0.45308524,-0.4494568,-0.45264274,-0.4590146,-0.4640147,-0.47268748,-0.4881745,-0.5159627,-0.55556536,-0.6029116,-0.6525587,-0.69990486,-0.73906505,-0.76866746,-0.79096884,-0.80964184,-0.83468664,-0.86340404,-0.8925198,-0.91393614,-0.92349386,-0.9244231,-0.92075044,-0.9161928,-0.9148654,-0.9148654,-0.91437864,-0.9111927,-0.9111927,-0.91167945,-0.9111927,-0.9148654,-0.91667956,-0.9153079,-0.90756434,-0.89844906,-0.8879621,-0.8775194,-0.8761477,-0.88207704,-0.8879621,-0.8930065,-0.89619243,-0.8980066,-0.8993783,-0.8975641,-0.8948207,-0.88844883,-0.88663465,-0.88526297,-0.8811478,-0.87296176,-0.8674749,-0.87296176,-0.88707715,-0.9025642,-0.90982103,-0.9043784,-0.89163476,-0.8775194,-0.8702184,-0.86796165,-0.87066084,-0.87796193,-0.88526297,-0.88889134,-0.88933384,-0.88933384,-0.88477623,-0.8802186,-0.8752185,-0.874776,-0.8793336,-0.88663465,-0.89207727,-0.8925198,-0.8861479,-0.8802186,-0.8770327,-0.87570524,-0.87340426,-0.8720326,-0.8761477,-0.8811478,-0.88663465,-0.88526297,-0.8752185,-0.8629173,-0.8579172,-0.8588464,-0.86158985,-0.8656607,-0.8674749,-0.86658996,-0.8647758,-0.86021817,-0.85928893,-0.8629173,-0.8702184,-0.874776,-0.86884665,-0.85703224,-0.8461028,-0.84380186,-0.8474745,-0.85066044,-0.8533596,-0.8533596,-0.85517377,-0.8579172,-0.856103,-0.84835947,-0.8378725,-0.83012897,-0.82512885,-0.8196863,-0.81375694,-0.8028275,-0.79326975,-0.7859687,-0.7791544,-0.77048165,-0.7549946,-0.73862255,-0.72539216,-0.7213212,-0.7240647,-0.7295073,-0.73132145,-0.7290648,-0.72632134,-0.7245072,-0.7295073,-0.746366,-0.7809686,-0.8265006,-0.8715901,-0.89889157,-0.9030067,-0.8898206,-0.87296176,-0.8611031,-0.8565455,-0.8584039,-0.8652183,-0.874776,-0.88477623,-0.88889134,-0.88844883,-0.8907056,-0.9020775,-0.91893625,-0.92393637,-0.8879621,-0.78415453,-0.59698224,-0.33379054,-0.0032080412,0.35927784,0.6949048,0.91026354,0.91526353,0.68941796,0.29144454,-0.1502909,-0.5159627,-0.7486228,-0.8606606,-0.89889157,-0.9080068,-0.91075027,-0.9157503,-0.9248656,-0.9335384,-0.9399102,-0.9385385,-0.93486583,-0.9271223,-0.9216797,-0.91893625,-0.9157503,-0.9130069,-0.91030777,-0.9061926,-0.8993783,-0.88933384,-0.8784044,-0.8711476,-0.86610323,-0.86384654,-0.86384654,-0.86203235,-0.85928893,-0.8588464,-0.8584039,-0.8547313,-0.8497312,-0.8451736,-0.83654505,-0.8288015,-0.8224297,-0.8169429,-0.81375694,-0.81150025,-0.80557096,-0.7968982,-0.78645545,-0.7759685,-0.76778245,-0.7627381,-0.7554813,-0.74543685,-0.7349942,-0.72269297,-0.7080909,-0.6912763,-0.67167413,-0.65162945,-0.63388574,-0.6202128,-0.60609746,-0.5906104,-0.5733091,-0.55600786,-0.5359632,-0.5168477,-0.4995464,-0.48498863,-0.47357243,-0.46675807,-0.4649439,-0.4635722,-0.46538645,-0.47587335,-0.4931746,-0.51914865,-0.5546362,-0.5915396,-0.6297705,-0.6712316,-0.7149494,-0.75910974,-0.79782736,-0.8278723,-0.8469877,-0.86021817,-0.8720326,-0.88207704,-0.8930065,-0.89844906,-0.9002633,-0.9061926,-0.91349363,-0.92075044,-0.92393637,-0.9180513,-0.91030777,-0.9043784,-0.9011925,-0.89844906,-0.8970774,-0.8970774,-0.901635,-0.90712184,-0.9066351,-0.8993783,-0.8902631,-0.88526297,-0.88707715,-0.89207727,-0.89389145,-0.8902631,-0.88251954,-0.87384677,-0.8752185,-0.8843337,-0.89619243,-0.9039359,-0.9030067,-0.89163476,-0.8784044,-0.8743335,-0.8775194,-0.88477623,-0.8898206,-0.88844883,-0.8834488,-0.8793336,-0.87796193,-0.8797761,-0.8788911,-0.87570524,-0.87340426,-0.87296176,-0.87570524,-0.8793336,-0.8815903,-0.88070536,-0.8788911,-0.8784044,-0.8793336,-0.88207704,-0.88207704,-0.8815903,-0.8797761,-0.874776,-0.8674749,-0.86658996,-0.8693334,-0.8770327,-0.8838912,-0.8861479,-0.88207704,-0.87384677,-0.8652183,-0.8565455,-0.8533596,-0.8579172,-0.86796165,-0.87296176,-0.86703247,-0.85973144,-0.85517377,-0.85973144,-0.86658996,-0.86340404,-0.8542888,-0.848802,-0.8515454,-0.85928893,-0.86610323,-0.8656607,-0.86021817,-0.856103,-0.85198784,-0.84791696,-0.84335935,-0.8406159,-0.8429169,-0.8469877,-0.84791696,-0.8465453,-0.8429169,-0.83835924,-0.8356159,-0.8333591,-0.8283148,-0.8215005,-0.8110135,-0.7964557,-0.7805261,-0.76778245,-0.7609239,-0.7595522,-0.7559238,-0.74362266,-0.7258789,-0.7108343,-0.70627666,-0.70902014,-0.71402025,-0.71813536,-0.71769285,-0.7213212,-0.7276931,-0.7459236,-0.7827828,-0.8242439,-0.86610323,-0.88889134,-0.8843337,-0.87296176,-0.8697759,-0.87570524,-0.88707715,-0.89163476,-0.88707715,-0.8788911,-0.8715901,-0.86840415,-0.86658996,-0.8697759,-0.8843337,-0.90530765,-0.9157503,-0.8902631,-0.8060134,-0.6420717,-0.4011814,-0.09245783,0.26772726,0.6210978,0.88159037,0.9539813,0.7873404,0.42211115,-0.03506708,-0.44764262,-0.7322507,-0.88070536,-0.9271223,-0.9253081,-0.91212195,-0.9034492,-0.9039359,-0.91030777,-0.91849375,-0.9244231,-0.9253081,-0.9212372,-0.91393614,-0.9066351,-0.89844906,-0.89344895,-0.89163476,-0.8930065,-0.89344895,-0.8943782,-0.89207727,-0.88526297,-0.8770327,-0.8674749,-0.85566056,-0.8469877,-0.84380186,-0.8429169,-0.84561604,-0.8465453,-0.8424301,-0.83468664,-0.82287216,-0.80919933,-0.79734063,-0.7923405,-0.7923405,-0.79145557,-0.7900838,-0.7855262,-0.7791544,-0.77278256,-0.76548153,-0.7559238,-0.7459236,-0.7368083,-0.7286223,-0.71539193,-0.6949048,-0.6730459,-0.65618706,-0.64525765,-0.63569987,-0.62477046,-0.60839844,-0.5887962,-0.5669373,-0.5500786,-0.53414893,-0.5200336,-0.5086617,-0.4954313,-0.47950172,-0.46587312,-0.45675784,-0.45357198,-0.45812958,-0.4695015,-0.48905945,-0.5132193,-0.5405208,-0.5733091,-0.61065507,-0.6571163,-0.70902014,-0.7581805,-0.79371226,-0.8155711,-0.83198744,-0.848802,-0.8720326,-0.8952632,-0.91212195,-0.9180513,-0.91667956,-0.9153079,-0.9180513,-0.92075044,-0.9198655,-0.9175646,-0.91075027,-0.90530765,-0.90575016,-0.90756434,-0.9093785,-0.91075027,-0.9043784,-0.89207727,-0.88251954,-0.8811478,-0.8898206,-0.9034492,-0.9111927,-0.9093785,-0.9002633,-0.89114803,-0.88707715,-0.88707715,-0.88844883,-0.88933384,-0.8879621,-0.88707715,-0.882962,-0.8788911,-0.874776,-0.8788911,-0.8861479,-0.8943782,-0.8966349,-0.8943782,-0.8879621,-0.88889134,-0.89163476,-0.89114803,-0.8902631,-0.8879621,-0.8879621,-0.88933384,-0.88889134,-0.8834488,-0.87796193,-0.8743335,-0.87296176,-0.8752185,-0.8793336,-0.8838912,-0.88663465,-0.88707715,-0.88751966,-0.88889134,-0.89207727,-0.8930065,-0.88751966,-0.8797761,-0.8761477,-0.8775194,-0.88070536,-0.8797761,-0.8784044,-0.8770327,-0.8797761,-0.8857055,-0.88526297,-0.8775194,-0.8674749,-0.86021817,-0.86158985,-0.86610323,-0.87066084,-0.8715901,-0.86796165,-0.86703247,-0.86610323,-0.86840415,-0.86796165,-0.8674749,-0.8697759,-0.8697759,-0.86796165,-0.86203235,-0.85198784,-0.84198767,-0.83061576,-0.821058,-0.8110135,-0.8037567,-0.7991991,-0.79552644,-0.78871214,-0.7759685,-0.7572955,-0.73906505,-0.7231355,-0.71402025,-0.7213212,-0.73818004,-0.7554813,-0.76410985,-0.760039,-0.7559238,-0.76866746,-0.8060134,-0.8515454,-0.88707715,-0.9020775,-0.89844906,-0.88889134,-0.8793336,-0.8711476,-0.8656607,-0.86384654,-0.86658996,-0.8715901,-0.87384677,-0.87296176,-0.8711476,-0.8775194,-0.89570564,-0.92349386,-0.93579507,-0.9039359,-0.8037567,-0.62202704,-0.38069427,-0.08334255,0.25091267,0.5696808,0.79234064,0.8205713,0.6129118,0.22405362,-0.21993846,-0.5847253,-0.8082701,-0.9034492,-0.9226089,-0.91349363,-0.9048209,-0.9002633,-0.90075004,-0.9080068,-0.9148654,-0.9161928,-0.91349363,-0.90756434,-0.9025642,-0.901635,-0.9025642,-0.9025642,-0.8998208,-0.8948207,-0.88889134,-0.882962,-0.8775194,-0.8752185,-0.8702184,-0.8624748,-0.8533596,-0.8451736,-0.83924425,-0.8360583,-0.8338016,-0.83198744,-0.8310582,-0.8315007,-0.8288015,-0.81919956,-0.8064559,-0.7991991,-0.7968982,-0.80008405,-0.7996416,-0.7900838,-0.7745968,-0.7609239,-0.7509237,-0.7445519,-0.7399943,-0.73406494,-0.7286223,-0.7195071,-0.70583415,-0.69034714,-0.67260337,-0.6525587,-0.63344324,-0.6156552,-0.59609723,-0.58016765,-0.5701232,-0.5591938,-0.5473794,-0.52870643,-0.5036615,-0.47861677,-0.45994377,-0.451271,-0.44989932,-0.45308524,-0.45945704,-0.47175825,-0.488617,-0.5141043,-0.55145025,-0.59472555,-0.6420717,-0.68809044,-0.7299498,-0.76866746,-0.80327,-0.8315007,-0.85517377,-0.8711476,-0.88526297,-0.8980066,-0.9093785,-0.9153079,-0.9180513,-0.9175646,-0.91349363,-0.91075027,-0.91212195,-0.9153079,-0.919423,-0.919423,-0.9111927,-0.9020775,-0.8998208,-0.9030067,-0.9093785,-0.9148654,-0.91212195,-0.9030067,-0.8966349,-0.8925198,-0.89207727,-0.8925198,-0.89114803,-0.88526297,-0.8797761,-0.87384677,-0.87296176,-0.874776,-0.8765902,-0.8765902,-0.8743335,-0.8725193,-0.8743335,-0.87796193,-0.88070536,-0.88207704,-0.8788911,-0.8711476,-0.86658996,-0.8674749,-0.87066084,-0.8765902,-0.882962,-0.88707715,-0.88933384,-0.88933384,-0.8879621,-0.8793336,-0.8702184,-0.8693334,-0.8711476,-0.8765902,-0.8802186,-0.8788911,-0.8765902,-0.8770327,-0.8802186,-0.8815903,-0.88070536,-0.87796193,-0.87384677,-0.8711476,-0.86796165,-0.86384654,-0.85703224,-0.8538463,-0.8584039,-0.86796165,-0.8815903,-0.8925198,-0.8952632,-0.88751966,-0.8743335,-0.8652183,-0.8611031,-0.86021817,-0.86340404,-0.86203235,-0.8588464,-0.85747474,-0.85747474,-0.8579172,-0.8542888,-0.8497312,-0.84561604,-0.8424301,-0.8378725,-0.83654505,-0.8406159,-0.8501737,-0.86158985,-0.8697759,-0.86884665,-0.86158985,-0.85517377,-0.8492887,-0.84154516,-0.83012897,-0.81375694,-0.79734063,-0.78645545,-0.78003937,-0.7787119,-0.7791544,-0.7714109,-0.7559238,-0.73406494,-0.71402025,-0.7076484,-0.71402025,-0.72494966,-0.7299498,-0.7304365,-0.7299498,-0.73450744,-0.7486228,-0.77322507,-0.80694264,-0.84424436,-0.8784044,-0.8998208,-0.90575016,-0.89889157,-0.88751966,-0.8775194,-0.8697759,-0.86610323,-0.86610323,-0.86428905,-0.8652183,-0.86703247,-0.8711476,-0.8834488,-0.9011925,-0.919423,-0.9271223,-0.8943782,-0.79552644,-0.6165844,-0.36157876,-0.03506708,0.3319764,0.6711875,0.89889157,0.92349386,0.7122061,0.3228612,-0.12294519,-0.5027324,-0.74999446,-0.86884665,-0.90756434,-0.9130069,-0.9148654,-0.920308,-0.92579484,-0.93079495,-0.93305165,-0.9298657,-0.92579484,-0.919423,-0.9157503,-0.91212195,-0.91030777,-0.90756434,-0.9048209,-0.9025642,-0.89889157,-0.8966349,-0.8925198,-0.88889134,-0.8861479,-0.8784044,-0.8697759,-0.86158985,-0.8515454,-0.84424436,-0.84380186,-0.84424436,-0.848802,-0.8492887,-0.84198767,-0.8269431,-0.8146862,-0.8123852,-0.81650037,-0.8196863,-0.81331444,-0.79826987,-0.7795969,-0.7650391,-0.75685304,-0.74999446,-0.74543685,-0.7399943,-0.7318082,-0.7276931,-0.7208788,-0.70946264,-0.69264805,-0.66530234,-0.6366291,-0.6120268,-0.59698224,-0.5874245,-0.5774243,-0.561008,-0.53733486,-0.5132193,-0.49180287,-0.47587335,-0.46675807,-0.4626872,-0.45675784,-0.45401442,-0.45857203,-0.47131574,-0.4954313,-0.5282196,-0.56830907,-0.60884094,-0.64707184,-0.68353283,-0.71769285,-0.7527379,-0.79096884,-0.82561564,-0.8501737,-0.86340404,-0.8743335,-0.882962,-0.8948207,-0.9030067,-0.908936,-0.91030777,-0.91212195,-0.91437864,-0.91849375,-0.91893625,-0.91437864,-0.90712184,-0.8966349,-0.88933384,-0.88933384,-0.8943782,-0.89889157,-0.8975641,-0.89163476,-0.88526297,-0.8811478,-0.8843337,-0.89163476,-0.8948207,-0.8902631,-0.8834488,-0.8793336,-0.8811478,-0.88889134,-0.8925198,-0.8902631,-0.8843337,-0.8784044,-0.8784044,-0.88889134,-0.89844906,-0.9025642,-0.8993783,-0.88663465,-0.8715901,-0.86384654,-0.86384654,-0.86796165,-0.87384677,-0.8797761,-0.88207704,-0.8815903,-0.8788911,-0.8761477,-0.8761477,-0.87796193,-0.8802186,-0.8788911,-0.87384677,-0.8702184,-0.86884665,-0.8693334,-0.8693334,-0.86610323,-0.8656607,-0.8697759,-0.87796193,-0.88526297,-0.88663465,-0.882962,-0.8761477,-0.87384677,-0.8775194,-0.8775194,-0.8775194,-0.8761477,-0.87340426,-0.87066084,-0.86658996,-0.86158985,-0.8565455,-0.8533596,-0.85247463,-0.85247463,-0.8492887,-0.84791696,-0.8511029,-0.85566056,-0.85928893,-0.86158985,-0.8611031,-0.85973144,-0.85928893,-0.85928893,-0.856103,-0.8511029,-0.8497312,-0.8492887,-0.8529171,-0.85566056,-0.8515454,-0.8469877,-0.8429169,-0.8424301,-0.8474745,-0.8501737,-0.8497312,-0.8469877,-0.8429169,-0.83743,-0.8328724,-0.82287216,-0.80964184,-0.7991991,-0.7873404,-0.7791544,-0.7745968,-0.77229583,-0.7668532,-0.7522954,-0.7349942,-0.71813536,-0.70902014,-0.7126485,-0.71857786,-0.7258789,-0.7295073,-0.73132145,-0.7376933,-0.7504812,-0.7745968,-0.8078276,-0.8447311,-0.8752185,-0.8902631,-0.89344895,-0.88933384,-0.8834488,-0.87796193,-0.874776,-0.87384677,-0.87296176,-0.8725193,-0.8720326,-0.8725193,-0.8765902,-0.8898206,-0.9130069,-0.9335384,-0.93535256,-0.8943782,-0.7855262,-0.59472555,-0.32786125,0.0072790384,0.37750852,0.71402025,0.9257506,0.9257506,0.69304633,0.28825855,-0.16714978,-0.5478219,-0.7946415,-0.91256446,-0.9453528,-0.93760926,-0.9226089,-0.91393614,-0.91167945,-0.91849375,-0.92805153,-0.9344233,-0.93579507,-0.9344233,-0.9289807,-0.920308,-0.9157503,-0.91256446,-0.9084936,-0.90530765,-0.901635,-0.8930065,-0.88477623,-0.8775194,-0.874776,-0.8711476,-0.86796165,-0.86796165,-0.8611031,-0.85703224,-0.8565455,-0.8565455,-0.8542888,-0.8501737,-0.8451736,-0.83743,-0.83012897,-0.821943,-0.80964184,-0.79826987,-0.7900838,-0.7832253,-0.77685344,-0.77048165,-0.76366735,-0.7536671,-0.7445519,-0.73362243,-0.720392,-0.7067634,-0.69534725,-0.686232,-0.6734884,-0.66485983,-0.65162945,-0.63569987,-0.61746943,-0.5988407,-0.5774243,-0.55556536,-0.5346357,-0.515476,-0.49866146,-0.48680282,-0.4772451,-0.46631563,-0.45494366,-0.4494568,-0.4517578,-0.46857232,-0.49773222,-0.53096306,-0.5664948,-0.6033541,-0.64525765,-0.6912763,-0.73450744,-0.7718533,-0.80189824,-0.82561564,-0.84791696,-0.86796165,-0.8834488,-0.8948207,-0.9061926,-0.9148654,-0.91712207,-0.91437864,-0.91256446,-0.9161928,-0.928494,-0.9362375,-0.9344233,-0.927609,-0.91893625,-0.91893625,-0.92393637,-0.9248656,-0.92075044,-0.91393614,-0.90575016,-0.8993783,-0.89889157,-0.9039359,-0.91030777,-0.9111927,-0.90530765,-0.89389145,-0.88070536,-0.87570524,-0.8793336,-0.8861479,-0.89844906,-0.908936,-0.91437864,-0.91393614,-0.9043784,-0.89207727,-0.8843337,-0.8857055,-0.89114803,-0.8975641,-0.8975641,-0.89344895,-0.8902631,-0.8898206,-0.89163476,-0.88933384,-0.8815903,-0.874776,-0.8752185,-0.8861479,-0.8998208,-0.91075027,-0.91075027,-0.90075004,-0.88889134,-0.8838912,-0.88070536,-0.8784044,-0.8775194,-0.8784044,-0.8797761,-0.882962,-0.8861479,-0.88889134,-0.89344895,-0.89619243,-0.8943782,-0.88663465,-0.8788911,-0.87340426,-0.87340426,-0.8775194,-0.88070536,-0.8797761,-0.8752185,-0.86840415,-0.85973144,-0.85703224,-0.85973144,-0.8652183,-0.8711476,-0.8752185,-0.8775194,-0.87340426,-0.86840415,-0.86428905,-0.8624748,-0.8656607,-0.8674749,-0.8656607,-0.8624748,-0.8588464,-0.8606606,-0.8652183,-0.86703247,-0.8629173,-0.8547313,-0.84335935,-0.8315007,-0.8224297,-0.80694264,-0.7968982,-0.7900838,-0.7850837,-0.7809686,-0.7700392,-0.7513662,-0.73450744,-0.7286223,-0.7322507,-0.74087924,-0.74818027,-0.7522954,-0.7559238,-0.7595522,-0.76322484,-0.775526,-0.8028275,-0.84198767,-0.88207704,-0.90756434,-0.90982103,-0.8948207,-0.8788911,-0.87384677,-0.8770327,-0.8784044,-0.8784044,-0.874776,-0.8697759,-0.86703247,-0.8674749,-0.8770327,-0.9011925,-0.93035245,-0.9412819,-0.90982103,-0.80694264,-0.6206996,-0.36795056,-0.05922699,0.2859577,0.6019825,0.81101346,0.82194304,0.60472584,0.21631014,-0.22361106,-0.5842386,-0.80189824,-0.8930065,-0.91212195,-0.90575016,-0.9048209,-0.91256446,-0.9161928,-0.91849375,-0.9175646,-0.9157503,-0.91893625,-0.9216797,-0.9198655,-0.9130069,-0.90075004,-0.88933384,-0.88207704,-0.8802186,-0.88477623,-0.88707715,-0.88477623,-0.8815903,-0.8743335,-0.86840415,-0.8624748,-0.8542888,-0.84424436,-0.83468664,-0.8283148,-0.82287216,-0.82057124,-0.821943,-0.8260581,-0.8315007,-0.8324299,-0.8237572,-0.8087568,-0.79415476,-0.7855262,-0.7805261,-0.77685344,-0.7672957,-0.7549946,-0.74273765,-0.73362243,-0.7272506,-0.71902037,-0.70902014,-0.69264805,-0.67486006,-0.6580013,-0.63844335,-0.6225138,-0.6120268,-0.6020266,-0.5919821,-0.57649505,-0.55645037,-0.5368924,-0.51503354,-0.4931746,-0.47312993,-0.45401442,-0.44215578,-0.44082832,-0.44445676,-0.45038605,-0.45945704,-0.47224498,-0.49410385,-0.5282196,-0.56786656,-0.61428344,-0.66530234,-0.7108343,-0.7531804,-0.79326975,-0.8288015,-0.8565455,-0.8788911,-0.8925198,-0.9002633,-0.9043784,-0.90756434,-0.9080068,-0.908936,-0.91256446,-0.92075044,-0.9271223,-0.928494,-0.919423,-0.9048209,-0.8966349,-0.8975641,-0.90530765,-0.9130069,-0.91349363,-0.90712184,-0.8998208,-0.89570564,-0.8970774,-0.9002633,-0.9002633,-0.8975641,-0.8925198,-0.88889134,-0.88663465,-0.88751966,-0.88844883,-0.88751966,-0.88751966,-0.88477623,-0.88251954,-0.8775194,-0.8720326,-0.87384677,-0.8793336,-0.8811478,-0.8811478,-0.8793336,-0.8784044,-0.88251954,-0.88889134,-0.89207727,-0.8925198,-0.89114803,-0.88751966,-0.88477623,-0.8815903,-0.87796193,-0.8770327,-0.8784044,-0.8788911,-0.8788911,-0.88251954,-0.88751966,-0.88933384,-0.88844883,-0.8857055,-0.8811478,-0.8788911,-0.8770327,-0.874776,-0.8725193,-0.8715901,-0.87384677,-0.8775194,-0.8793336,-0.8770327,-0.8711476,-0.86340404,-0.8611031,-0.86703247,-0.8788911,-0.8879621,-0.88751966,-0.8788911,-0.8674749,-0.8588464,-0.8547313,-0.856103,-0.8584039,-0.8611031,-0.86428905,-0.8656607,-0.86384654,-0.86158985,-0.8584039,-0.85747474,-0.8588464,-0.85747474,-0.8542888,-0.85247463,-0.85198784,-0.85517377,-0.86384654,-0.86796165,-0.8647758,-0.85517377,-0.8461028,-0.8424301,-0.8406159,-0.8406159,-0.83654505,-0.8265006,-0.81601363,-0.80508417,-0.79326975,-0.7827828,-0.7782252,-0.775526,-0.76641077,-0.7527379,-0.7358791,-0.7208788,-0.7195071,-0.7281356,-0.73406494,-0.7372508,-0.7368083,-0.7349942,-0.73818004,-0.749552,-0.7718533,-0.8064559,-0.84335935,-0.8725193,-0.88707715,-0.88751966,-0.88207704,-0.8793336,-0.8788911,-0.8793336,-0.8775194,-0.87796193,-0.8802186,-0.8802186,-0.88251954,-0.8879621,-0.9011925,-0.9253081,-0.9457953,-0.93805176,-0.8784044,-0.74406517,-0.53507817,-0.2572844,0.088342786,0.4612714,0.78048193,0.9499103,0.8907056,0.60242486,0.17166305,-0.26821387,-0.6079117,-0.8073851,-0.8943782,-0.9161928,-0.91667956,-0.91849375,-0.9226089,-0.9253081,-0.93260914,-0.94260937,-0.9521671,-0.9540255,-0.9435386,-0.92579484,-0.9048209,-0.8930065,-0.8952632,-0.8998208,-0.90712184,-0.9043784,-0.89570564,-0.89207727,-0.89389145,-0.8993783,-0.8980066,-0.8861479,-0.8693334,-0.85247463,-0.8424301,-0.8378725,-0.8378725,-0.83924425,-0.8429169,-0.8461028,-0.84380186,-0.8328724,-0.81650037,-0.80008405,-0.78871214,-0.78459704,-0.78415453,-0.7832253,-0.78189784,-0.7791544,-0.7741543,-0.76592404,-0.7509237,-0.7304365,-0.70857763,-0.6921613,-0.6803469,-0.66941744,-0.65618706,-0.6366291,-0.61795616,-0.60384077,-0.5937964,-0.58242434,-0.5646807,-0.5382641,-0.5082192,-0.48317444,-0.46538645,-0.4590146,-0.45857203,-0.45812958,-0.4613155,-0.4681298,-0.4836169,-0.5086617,-0.5405208,-0.57193744,-0.6047258,-0.6393283,-0.67486006,-0.7149494,-0.7554813,-0.79282725,-0.8260581,-0.8529171,-0.8656607,-0.8702184,-0.87796193,-0.8925198,-0.9130069,-0.93260914,-0.93898094,-0.92805153,-0.91167945,-0.9002633,-0.8970774,-0.9020775,-0.9084936,-0.91349363,-0.91393614,-0.91167945,-0.9061926,-0.8998208,-0.89389145,-0.88751966,-0.8857055,-0.88707715,-0.8907056,-0.89619243,-0.9011925,-0.9011925,-0.8998208,-0.89619243,-0.89163476,-0.8815903,-0.8743335,-0.87296176,-0.8761477,-0.882962,-0.88707715,-0.8857055,-0.8793336,-0.8752185,-0.8793336,-0.8861479,-0.89344895,-0.89844906,-0.89844906,-0.89389145,-0.8879621,-0.8811478,-0.8784044,-0.87796193,-0.88070536,-0.88751966,-0.8930065,-0.8966349,-0.8966349,-0.89207727,-0.8861479,-0.88070536,-0.8770327,-0.8770327,-0.8802186,-0.8857055,-0.8898206,-0.8925198,-0.89163476,-0.88889134,-0.88707715,-0.8797761,-0.8715901,-0.8652183,-0.86340404,-0.8715901,-0.882962,-0.88751966,-0.88207704,-0.8711476,-0.8579172,-0.84835947,-0.8474745,-0.85198784,-0.8588464,-0.86884665,-0.8775194,-0.8788911,-0.8770327,-0.8720326,-0.86610323,-0.86158985,-0.8611031,-0.8624748,-0.8674749,-0.8720326,-0.86796165,-0.86203235,-0.85928893,-0.85747474,-0.8606606,-0.86203235,-0.8542888,-0.84561604,-0.84380186,-0.8501737,-0.8611031,-0.8674749,-0.8629173,-0.85066044,-0.83698756,-0.8278723,-0.83012897,-0.83924425,-0.85066044,-0.85517377,-0.84835947,-0.83880174,-0.82561564,-0.8146862,-0.8082701,-0.79826987,-0.78871214,-0.7795969,-0.7718533,-0.7650391,-0.7536671,-0.74087924,-0.73132145,-0.72632134,-0.7258789,-0.7245072,-0.7195071,-0.7149494,-0.7163212,-0.7272506,-0.7486228,-0.783712,-0.8246864,-0.8606606,-0.8838912,-0.8879621,-0.88070536,-0.87570524,-0.88070536,-0.88889134,-0.8898206,-0.882962,-0.874776,-0.8697759,-0.87340426,-0.8797761,-0.8861479,-0.9002633,-0.9212372,-0.9312374,-0.9093785,-0.8265006,-0.6734884,-0.45082855,-0.16259211,0.18396425,0.54459167,0.83150065,0.93986607,0.8028275,0.4494568,-0.014137447,-0.44215578,-0.7422509,-0.8930065,-0.93260914,-0.9198655,-0.8993783,-0.8898206,-0.89619243,-0.90982103,-0.92349386,-0.93260914,-0.9344233,-0.9248656,-0.91437864,-0.90756434,-0.9020775,-0.8998208,-0.89570564,-0.8879621,-0.8811478,-0.88070536,-0.8843337,-0.88933384,-0.88844883,-0.8784044,-0.8629173,-0.8542888,-0.8529171,-0.85566056,-0.8579172,-0.8533596,-0.8406159,-0.83198744,-0.8296865,-0.8338016,-0.8338016,-0.8283148,-0.81375694,-0.7968982,-0.78689796,-0.7873404,-0.79282725,-0.79371226,-0.7859687,-0.76866746,-0.7509237,-0.7413659,-0.73906505,-0.73818004,-0.73132145,-0.7167636,-0.6990199,-0.6821611,-0.6625589,-0.6407,-0.6202128,-0.59698224,-0.5769818,-0.5623797,-0.5482643,-0.53414893,-0.5204761,-0.50591826,-0.49224538,-0.47950172,-0.46857232,-0.46038628,-0.45945704,-0.46631563,-0.48087347,-0.5018474,-0.5273347,-0.5578221,-0.59653974,-0.6388858,-0.68578947,-0.7376933,-0.7877829,-0.8310582,-0.85928893,-0.8693334,-0.874776,-0.88707715,-0.9043784,-0.920308,-0.92805153,-0.92579484,-0.91893625,-0.9180513,-0.9221222,-0.9289807,-0.93260914,-0.9335384,-0.9298657,-0.9230514,-0.9198655,-0.91437864,-0.90530765,-0.9034492,-0.9043784,-0.90982103,-0.91893625,-0.9221222,-0.9180513,-0.9093785,-0.9002633,-0.8948207,-0.89207727,-0.8902631,-0.89114803,-0.89389145,-0.8993783,-0.9034492,-0.9080068,-0.9080068,-0.9043784,-0.90075004,-0.8993783,-0.8980066,-0.8952632,-0.8907056,-0.88751966,-0.8879621,-0.89163476,-0.8948207,-0.8970774,-0.89844906,-0.8970774,-0.8975641,-0.8980066,-0.89619243,-0.8943782,-0.89389145,-0.8943782,-0.8993783,-0.9020775,-0.9048209,-0.9034492,-0.8966349,-0.88933384,-0.88207704,-0.8784044,-0.8802186,-0.8834488,-0.8861479,-0.88751966,-0.88751966,-0.88707715,-0.8861479,-0.8838912,-0.8815903,-0.8811478,-0.8843337,-0.88751966,-0.88663465,-0.882962,-0.8775194,-0.8697759,-0.86158985,-0.85566056,-0.8565455,-0.86703247,-0.88070536,-0.88889134,-0.8861479,-0.8752185,-0.8656607,-0.86021817,-0.85928893,-0.8624748,-0.86384654,-0.8652183,-0.86658996,-0.86340404,-0.8579172,-0.85517377,-0.85973144,-0.86796165,-0.8765902,-0.8775194,-0.86610323,-0.84791696,-0.8324299,-0.8215005,-0.8123852,-0.80189824,-0.79508394,-0.7918981,-0.79145557,-0.7859687,-0.77229583,-0.7549946,-0.74087924,-0.73818004,-0.74043673,-0.73862255,-0.7368083,-0.73632157,-0.73862255,-0.749552,-0.77229583,-0.8060134,-0.8447311,-0.8788911,-0.8975641,-0.8975641,-0.8879621,-0.8784044,-0.8743335,-0.87066084,-0.86840415,-0.8715901,-0.8752185,-0.8811478,-0.8834488,-0.8811478,-0.882962,-0.8948207,-0.9130069,-0.91893625,-0.88477623,-0.78459704,-0.6097702,-0.37206572,-0.07466972,0.25635517,0.56419396,0.7595521,0.752738,0.52184796,0.12794542,-0.29918802,-0.63569987,-0.8338016,-0.91075027,-0.91893625,-0.9039359,-0.8930065,-0.8907056,-0.8943782,-0.90075004,-0.90712184,-0.9080068,-0.9061926,-0.9048209,-0.9020775,-0.8993783,-0.89619243,-0.8907056,-0.8834488,-0.8765902,-0.8725193,-0.8720326,-0.8752185,-0.8770327,-0.8765902,-0.87296176,-0.86384654,-0.8538463,-0.8451736,-0.83743,-0.8269431,-0.8196863,-0.821058,-0.8237572,-0.8283148,-0.83012897,-0.8242439,-0.81375694,-0.80057085,-0.7873404,-0.7832253,-0.78415453,-0.7873404,-0.7855262,-0.7741543,-0.7541096,-0.73632157,-0.72494966,-0.71813536,-0.7103918,-0.6985332,-0.6830461,-0.66760325,-0.6530012,-0.6375141,-0.621142,-0.60065484,-0.57879597,-0.5655656,-0.55600786,-0.549636,-0.53782165,-0.515476,-0.4904312,-0.47224498,-0.46450138,-0.46538645,-0.46994406,-0.47087324,-0.47543085,-0.4836169,-0.5036615,-0.5359632,-0.5783093,-0.62569964,-0.67260337,-0.7126485,-0.74318016,-0.775526,-0.81419945,-0.85566056,-0.8902631,-0.90712184,-0.9039359,-0.89207727,-0.88663465,-0.89389145,-0.9084936,-0.91849375,-0.9221222,-0.9198655,-0.91849375,-0.920308,-0.9230514,-0.9230514,-0.9175646,-0.9093785,-0.9048209,-0.901635,-0.8993783,-0.8966349,-0.89207727,-0.8948207,-0.9039359,-0.9148654,-0.920308,-0.9148654,-0.9025642,-0.89163476,-0.88889134,-0.89207727,-0.89344895,-0.88933384,-0.8834488,-0.87796193,-0.87796193,-0.8815903,-0.8843337,-0.8843337,-0.88070536,-0.87796193,-0.874776,-0.8761477,-0.88070536,-0.8857055,-0.8943782,-0.89889157,-0.8993783,-0.8952632,-0.89344895,-0.89207727,-0.8907056,-0.8898206,-0.88707715,-0.8843337,-0.88663465,-0.89163476,-0.8975641,-0.9002633,-0.8925198,-0.88251954,-0.87384677,-0.8725193,-0.8788911,-0.88526297,-0.88663465,-0.8843337,-0.88207704,-0.88207704,-0.88207704,-0.8802186,-0.8784044,-0.87570524,-0.87340426,-0.8725193,-0.87066084,-0.8674749,-0.86610323,-0.8656607,-0.8629173,-0.86203235,-0.8647758,-0.86428905,-0.8611031,-0.856103,-0.8547313,-0.8565455,-0.8674749,-0.8775194,-0.87796193,-0.8720326,-0.8611031,-0.8492887,-0.84335935,-0.84154516,-0.84198767,-0.8465453,-0.8501737,-0.8529171,-0.85566056,-0.85566056,-0.8529171,-0.8469877,-0.83924425,-0.83743,-0.83835924,-0.83698756,-0.83198744,-0.8224297,-0.81194276,-0.80557096,-0.802385,-0.79326975,-0.7787119,-0.7622956,-0.74318016,-0.72632134,-0.71357775,-0.7076484,-0.7126485,-0.72220623,-0.7281356,-0.7276931,-0.72220623,-0.71902037,-0.7245072,-0.7468085,-0.7850837,-0.83012897,-0.86610323,-0.88751966,-0.8902631,-0.8857055,-0.88251954,-0.8797761,-0.874776,-0.8656607,-0.86021817,-0.86203235,-0.86796165,-0.8775194,-0.88663465,-0.8966349,-0.91167945,-0.9266798,-0.9198655,-0.86384654,-0.7358791,-0.52640545,-0.25091267,0.07692647,0.4234829,0.7240205,0.8915906,0.85243046,0.59335387,0.18396425,-0.2472843,-0.58923864,-0.7946415,-0.88251954,-0.8952632,-0.88933384,-0.8907056,-0.90075004,-0.9180513,-0.93035245,-0.93079495,-0.9248656,-0.91893625,-0.9153079,-0.91349363,-0.9080068,-0.8980066,-0.8902631,-0.88933384,-0.8930065,-0.90075004,-0.9061926,-0.9002633,-0.88844883,-0.87340426,-0.85566056,-0.84154516,-0.8356159,-0.83698756,-0.8401735,-0.8451736,-0.84335935,-0.8356159,-0.8265006,-0.81831455,-0.8123852,-0.8078276,-0.8037567,-0.7996416,-0.7918981,-0.78189784,-0.7736676,-0.77278256,-0.7759685,-0.77685344,-0.76822495,-0.7536671,-0.7376933,-0.72539216,-0.7158344,-0.7022058,-0.6817186,-0.6548153,-0.632514,-0.6152127,-0.60065484,-0.5897254,-0.5837961,-0.5746808,-0.5619372,-0.5428217,-0.52096283,-0.49680305,-0.47905928,-0.4695015,-0.4613155,-0.45445698,-0.4517578,-0.45720035,-0.47224498,-0.4954313,-0.52140534,-0.55100775,-0.5847253,-0.6233988,-0.66530234,-0.704905,-0.74362266,-0.78189784,-0.8173853,-0.8465453,-0.86796165,-0.8797761,-0.8857055,-0.88889134,-0.88933384,-0.8948207,-0.9039359,-0.91167945,-0.9148654,-0.9084936,-0.9011925,-0.9030067,-0.91167945,-0.919423,-0.91712207,-0.9034492,-0.8898206,-0.8834488,-0.88663465,-0.89389145,-0.8970774,-0.89207727,-0.88526297,-0.8752185,-0.8656607,-0.8611031,-0.86021817,-0.8606606,-0.86703247,-0.8743335,-0.8802186,-0.8834488,-0.8802186,-0.8743335,-0.86840415,-0.8693334,-0.87066084,-0.8743335,-0.8765902,-0.8761477,-0.874776,-0.8761477,-0.8793336,-0.8815903,-0.882962,-0.8802186,-0.87384677,-0.86884665,-0.8674749,-0.8674749,-0.86610323,-0.8629173,-0.8611031,-0.8652183,-0.8715901,-0.87570524,-0.87570524,-0.8702184,-0.8624748,-0.85703224,-0.85247463,-0.856103,-0.86384654,-0.87384677,-0.87796193,-0.87384677,-0.8656607,-0.8588464,-0.85566056,-0.8538463,-0.8511029,-0.8497312,-0.8497312,-0.8529171,-0.8515454,-0.8497312,-0.8461028,-0.8465453,-0.8469877,-0.84561604,-0.8429169,-0.84105843,-0.84335935,-0.8451736,-0.8406159,-0.83698756,-0.83654505,-0.84380186,-0.8515454,-0.8538463,-0.848802,-0.83924425,-0.83654505,-0.83880174,-0.83924425,-0.83468664,-0.82512885,-0.8196863,-0.821943,-0.8296865,-0.83654505,-0.8401735,-0.8406159,-0.8360583,-0.8324299,-0.8278723,-0.81919956,-0.8123852,-0.81194276,-0.81194276,-0.80964184,-0.80508417,-0.79552644,-0.7832253,-0.77229583,-0.7627381,-0.7549946,-0.74999446,-0.7399943,-0.71994954,-0.6949048,-0.678046,-0.678046,-0.69264805,-0.70946264,-0.7195071,-0.7195071,-0.7167636,-0.7195071,-0.7299498,-0.7572955,-0.79734063,-0.8406159,-0.8711476,-0.8784044,-0.8674749,-0.8529171,-0.84835947,-0.8533596,-0.8579172,-0.85928893,-0.85703224,-0.85198784,-0.8469877,-0.8465453,-0.856103,-0.8770327,-0.90712184,-0.9198655,-0.88663465,-0.78915465,-0.61795616,-0.38113672,-0.07422733,0.28870106,0.6502577,0.9216796,0.99407077,0.81875706,0.4457841,-0.012765646,-0.42304033,-0.70627666,-0.8542888,-0.9066351,-0.9080068,-0.89844906,-0.8948207,-0.8970774,-0.901635,-0.90712184,-0.91212195,-0.9157503,-0.91393614,-0.90712184,-0.8952632,-0.88251954,-0.8775194,-0.8802186,-0.8834488,-0.882962,-0.8765902,-0.86884665,-0.86158985,-0.85566056,-0.8515454,-0.84791696,-0.8451736,-0.84424436,-0.83924425,-0.8333591,-0.8260581,-0.81831455,-0.81419945,-0.81375694,-0.81012857,-0.8037567,-0.7960132,-0.78645545,-0.7777827,-0.77278256,-0.7700392,-0.77048165,-0.76778245,-0.7595522,-0.746366,-0.7322507,-0.7240647,-0.71994954,-0.71539193,-0.70583415,-0.6849046,-0.66074467,-0.6416292,-0.62569964,-0.613841,-0.6020266,-0.58516777,-0.56330895,-0.53870654,-0.5164052,-0.49636048,-0.47813004,-0.46720064,-0.4626872,-0.45720035,-0.4517578,-0.4467134,-0.44082832,-0.443085,-0.4613155,-0.48998868,-0.5282196,-0.5692383,-0.60609746,-0.6420717,-0.6789752,-0.71769285,-0.75685304,-0.79282725,-0.821943,-0.8447311,-0.8611031,-0.86796165,-0.8693334,-0.87796193,-0.88933384,-0.9061926,-0.920308,-0.9212372,-0.9161928,-0.91030777,-0.9084936,-0.9080068,-0.9048209,-0.8975641,-0.8925198,-0.8925198,-0.89844906,-0.90530765,-0.90712184,-0.9034492,-0.8980066,-0.8898206,-0.8838912,-0.8793336,-0.8743335,-0.8715901,-0.8702184,-0.86610323,-0.86158985,-0.86384654,-0.8743335,-0.8898206,-0.90075004,-0.90075004,-0.8902631,-0.87796193,-0.87384677,-0.8761477,-0.8784044,-0.87796193,-0.8770327,-0.8784044,-0.8834488,-0.89163476,-0.8943782,-0.88933384,-0.8811478,-0.8761477,-0.8784044,-0.8857055,-0.89344895,-0.89163476,-0.8834488,-0.8784044,-0.8788911,-0.8857055,-0.89163476,-0.89114803,-0.88844883,-0.88751966,-0.8861479,-0.88526297,-0.8788911,-0.87384677,-0.87296176,-0.8793336,-0.8857055,-0.88663465,-0.88251954,-0.8775194,-0.8720326,-0.8711476,-0.87340426,-0.8743335,-0.87570524,-0.87296176,-0.8674749,-0.8606606,-0.85703224,-0.85703224,-0.8588464,-0.86158985,-0.8624748,-0.86021817,-0.856103,-0.8511029,-0.85066044,-0.85703224,-0.86428905,-0.87340426,-0.8793336,-0.87570524,-0.86340404,-0.8447311,-0.8328724,-0.83517337,-0.8451736,-0.8584039,-0.86428905,-0.86021817,-0.85747474,-0.8547313,-0.84791696,-0.8310582,-0.8082701,-0.7877829,-0.7791544,-0.78189784,-0.78826964,-0.78826964,-0.7750393,-0.7522954,-0.7326932,-0.7240647,-0.72676384,-0.7358791,-0.74087924,-0.7354366,-0.72494966,-0.720392,-0.73132145,-0.7613664,-0.80327,-0.8469877,-0.87796193,-0.88933384,-0.89207727,-0.88477623,-0.87570524,-0.86703247,-0.86158985,-0.86021817,-0.86384654,-0.8674749,-0.8711476,-0.8697759,-0.86703247,-0.87384677,-0.89114803,-0.91075027,-0.91256446,-0.86703247,-0.7486228,-0.5537512,-0.29825884,0.015022397,0.35153437,0.65207195,0.8296865,0.79778314,0.53959167,0.12613118,-0.30874574,-0.64755857,-0.8401735,-0.91712207,-0.92805153,-0.91712207,-0.90712184,-0.9011925,-0.9002633,-0.9025642,-0.9093785,-0.9175646,-0.92075044,-0.920308,-0.9157503,-0.9048209,-0.89207727,-0.882962,-0.8761477,-0.8752185,-0.8765902,-0.8770327,-0.8743335,-0.87066084,-0.86658996,-0.86021817,-0.85747474,-0.8533596,-0.8465453,-0.83880174,-0.82742983,-0.8173853,-0.80919933,-0.8041992,-0.80327,-0.80557096,-0.8082701,-0.81012857,-0.8073851,-0.7987124,-0.78415453,-0.7691099,-0.7563663,-0.7536671,-0.7554813,-0.7554813,-0.7531804,-0.7422509,-0.7272506,-0.70902014,-0.68897545,-0.66530234,-0.64755857,-0.6343282,-0.61884105,-0.60609746,-0.5919821,-0.57605255,-0.5605655,-0.5441934,-0.5245912,-0.5018474,-0.48450184,-0.4703865,-0.45994377,-0.45308524,-0.4467134,-0.44534165,-0.44901437,-0.45994377,-0.47813004,-0.5027324,-0.53277725,-0.5701232,-0.61795616,-0.6730459,-0.72676384,-0.76778245,-0.79508394,-0.8123852,-0.82742983,-0.8474745,-0.8693334,-0.89114803,-0.9084936,-0.9175646,-0.92075044,-0.91893625,-0.9157503,-0.91349363,-0.91256446,-0.9093785,-0.9043784,-0.9039359,-0.9061926,-0.9093785,-0.91212195,-0.9080068,-0.9025642,-0.8975641,-0.8970774,-0.9011925,-0.9020775,-0.9039359,-0.9061926,-0.9061926,-0.90575016,-0.8998208,-0.89114803,-0.8838912,-0.8793336,-0.88070536,-0.8815903,-0.88477623,-0.8834488,-0.88207704,-0.88070536,-0.87796193,-0.8770327,-0.8765902,-0.8725193,-0.8711476,-0.8752185,-0.88251954,-0.89207727,-0.8998208,-0.9002633,-0.8975641,-0.89389145,-0.8902631,-0.88751966,-0.8843337,-0.8815903,-0.8793336,-0.8743335,-0.86658996,-0.8652183,-0.8715901,-0.8793336,-0.88477623,-0.88251954,-0.87570524,-0.87384677,-0.8788911,-0.8834488,-0.8797761,-0.87066084,-0.86428905,-0.86658996,-0.87340426,-0.87796193,-0.8752185,-0.86796165,-0.8624748,-0.86021817,-0.86203235,-0.8647758,-0.8652183,-0.86703247,-0.86840415,-0.86796165,-0.86428905,-0.8579172,-0.8547313,-0.8529171,-0.8533596,-0.8547313,-0.85566056,-0.8579172,-0.8611031,-0.86610323,-0.86658996,-0.86158985,-0.85517377,-0.8492887,-0.8447311,-0.84198767,-0.8424301,-0.8461028,-0.8474745,-0.8511029,-0.8538463,-0.8529171,-0.85247463,-0.8474745,-0.83880174,-0.8278723,-0.81875706,-0.81650037,-0.81419945,-0.80919933,-0.7964557,-0.7782252,-0.7650391,-0.7572955,-0.74543685,-0.7276931,-0.7167636,-0.712206,-0.72269297,-0.7372508,-0.74087924,-0.7318082,-0.7213212,-0.71769285,-0.7245072,-0.74043673,-0.76366735,-0.79782736,-0.83835924,-0.87066084,-0.8930065,-0.8993783,-0.8907056,-0.8775194,-0.8656607,-0.8565455,-0.8529171,-0.8529171,-0.85247463,-0.8533596,-0.85747474,-0.87296176,-0.90075004,-0.92805153,-0.9362375,-0.9025642,-0.80694264,-0.6393283,-0.39892477,-0.09108597,0.26821387,0.6238413,0.8843337,0.9576539,0.7964556,0.43896997,-0.009137273,-0.4152968,-0.6990199,-0.84561604,-0.8930065,-0.8943782,-0.89207727,-0.8975641,-0.90982103,-0.9175646,-0.9198655,-0.919423,-0.9180513,-0.91893625,-0.9212372,-0.9216797,-0.9175646,-0.91030777,-0.901635,-0.8925198,-0.8857055,-0.8811478,-0.8743335,-0.8652183,-0.85747474,-0.8542888,-0.8547313,-0.86021817,-0.86158985,-0.85747474,-0.8511029,-0.84561604,-0.8429169,-0.8429169,-0.84105843,-0.8333591,-0.821943,-0.8046417,-0.7918981,-0.78645545,-0.78915465,-0.7968982,-0.8010133,-0.79415476,-0.7782252,-0.7622956,-0.7459236,-0.73450744,-0.7245072,-0.7126485,-0.69716144,-0.6821611,-0.6734884,-0.6662315,-0.6598598,-0.64707184,-0.62477046,-0.59928316,-0.5774243,-0.5591938,-0.5418925,-0.5204761,-0.49773222,-0.47861677,-0.46450138,-0.4558286,-0.45308524,-0.45264274,-0.45357198,-0.45764285,-0.46720064,-0.488617,-0.52140534,-0.5637514,-0.60884094,-0.6548153,-0.7044625,-0.7486228,-0.7850837,-0.8128277,-0.83424413,-0.8538463,-0.87384677,-0.88707715,-0.88889134,-0.8843337,-0.88070536,-0.88207704,-0.8907056,-0.9002633,-0.9080068,-0.91349363,-0.9148654,-0.91256446,-0.91167945,-0.91075027,-0.9039359,-0.9020775,-0.9030067,-0.90575016,-0.91256446,-0.9148654,-0.91030777,-0.9025642,-0.8902631,-0.8784044,-0.8715901,-0.87066084,-0.87384677,-0.87796193,-0.8761477,-0.8656607,-0.85928893,-0.86428905,-0.874776,-0.88526297,-0.88526297,-0.8761477,-0.8725193,-0.8788911,-0.89114803,-0.9020775,-0.9020775,-0.89207727,-0.882962,-0.87796193,-0.8770327,-0.87570524,-0.874776,-0.8752185,-0.874776,-0.8775194,-0.8802186,-0.8761477,-0.86884665,-0.86021817,-0.856103,-0.86158985,-0.8802186,-0.89844906,-0.9080068,-0.9043784,-0.88844883,-0.86840415,-0.8565455,-0.8538463,-0.8588464,-0.8647758,-0.86840415,-0.86658996,-0.8624748,-0.8629173,-0.8674749,-0.8711476,-0.87340426,-0.86796165,-0.8588464,-0.856103,-0.86158985,-0.8715901,-0.8793336,-0.8752185,-0.86340404,-0.8538463,-0.8529171,-0.8606606,-0.86796165,-0.86658996,-0.8565455,-0.8474745,-0.8447311,-0.84835947,-0.85066044,-0.84561604,-0.8424301,-0.8465453,-0.85928893,-0.8743335,-0.8793336,-0.87066084,-0.8565455,-0.84105843,-0.8338016,-0.83517337,-0.84105843,-0.8469877,-0.8501737,-0.8465453,-0.83880174,-0.8310582,-0.8265006,-0.8246864,-0.82057124,-0.8128277,-0.802385,-0.78826964,-0.77685344,-0.76822495,-0.75866723,-0.7527379,-0.7468085,-0.74273765,-0.7395518,-0.7331357,-0.73132145,-0.7295073,-0.7299498,-0.7295073,-0.723578,-0.7167636,-0.7149494,-0.7304365,-0.76410985,-0.81150025,-0.86158985,-0.8948207,-0.9039359,-0.88933384,-0.8656607,-0.85066044,-0.8492887,-0.86203235,-0.87340426,-0.8775194,-0.8765902,-0.8693334,-0.86610323,-0.87796193,-0.9039359,-0.928494,-0.93305165,-0.8930065,-0.7873404,-0.6070267,-0.35702115,-0.042368114,0.31830359,0.6580013,0.89021873,0.92212224,0.71857786,0.32648957,-0.13436133,-0.5282196,-0.7832253,-0.8975641,-0.9216797,-0.91075027,-0.9020775,-0.9048209,-0.91393614,-0.92349386,-0.92805153,-0.927609,-0.92075044,-0.91167945,-0.9043784,-0.901635,-0.9011925,-0.90075004,-0.89889157,-0.89207727,-0.8838912,-0.87570524,-0.8715901,-0.8711476,-0.8697759,-0.8629173,-0.8533596,-0.8429169,-0.83743,-0.8401735,-0.8474745,-0.8529171,-0.8501737,-0.839731,-0.8242439,-0.80919933,-0.79782736,-0.79052633,-0.78871214,-0.7900838,-0.7900838,-0.78459704,-0.7759685,-0.76366735,-0.7572955,-0.7559238,-0.7549946,-0.7459236,-0.72676384,-0.7030908,-0.6839753,-0.66985995,-0.6611872,-0.6530012,-0.64255846,-0.6293281,-0.6152127,-0.598354,-0.57649505,-0.549636,-0.52184784,-0.49591804,-0.47905928,-0.47087324,-0.46631563,-0.46038628,-0.45082855,-0.44127083,-0.4385274,-0.44852757,-0.4703865,-0.4995464,-0.5337065,-0.5701232,-0.6102126,-0.6521162,-0.69534725,-0.7372508,-0.7741543,-0.8041992,-0.8283148,-0.84561604,-0.86203235,-0.8775194,-0.89163476,-0.90575016,-0.91712207,-0.92579484,-0.9298657,-0.92805153,-0.920308,-0.91437864,-0.91393614,-0.91349363,-0.9148654,-0.91167945,-0.9061926,-0.901635,-0.901635,-0.9080068,-0.9111927,-0.91075027,-0.9043784,-0.89207727,-0.88251954,-0.8843337,-0.8925198,-0.9039359,-0.9080068,-0.9039359,-0.8948207,-0.88477623,-0.8775194,-0.8765902,-0.8788911,-0.88251954,-0.8843337,-0.8788911,-0.87066084,-0.8697759,-0.8761477,-0.88933384,-0.9025642,-0.9061926,-0.901635,-0.8980066,-0.8930065,-0.8902631,-0.8898206,-0.8902631,-0.89114803,-0.89207727,-0.8925198,-0.88844883,-0.8838912,-0.87796193,-0.8720326,-0.8693334,-0.8697759,-0.8752185,-0.88070536,-0.8802186,-0.8752185,-0.8697759,-0.8674749,-0.8702184,-0.8697759,-0.86840415,-0.8674749,-0.8720326,-0.8788911,-0.8834488,-0.88070536,-0.8752185,-0.8711476,-0.8693334,-0.86658996,-0.8579172,-0.84424436,-0.8356159,-0.8401735,-0.8533596,-0.86703247,-0.87296176,-0.87066084,-0.8624748,-0.8584039,-0.8584039,-0.8565455,-0.8538463,-0.8501737,-0.8511029,-0.8579172,-0.8656607,-0.86658996,-0.8588464,-0.8469877,-0.8360583,-0.8324299,-0.8360583,-0.83654505,-0.8310582,-0.8224297,-0.8128277,-0.8041992,-0.79734063,-0.79508394,-0.7918981,-0.78826964,-0.78141105,-0.7650391,-0.7395518,-0.7149494,-0.6985332,-0.6980907,-0.71402025,-0.7295073,-0.73862255,-0.7399943,-0.7376933,-0.7376933,-0.75180864,-0.78141105,-0.8169429,-0.8529171,-0.87570524,-0.8784044,-0.8702184,-0.8624748,-0.86428905,-0.8715901,-0.8784044,-0.8770327,-0.8697759,-0.86158985,-0.8588464,-0.8656607,-0.8788911,-0.9002633,-0.91667956,-0.9161928,-0.88070536,-0.7873404,-0.61977035,-0.38569438,-0.08427179,0.26228464,0.5937964,0.8333149,0.88066113,0.6926038,0.31237411,-0.14117569,-0.5273347,-0.77322507,-0.88663465,-0.9153079,-0.9175646,-0.9157503,-0.91256446,-0.9011925,-0.88933384,-0.8834488,-0.8843337,-0.8952632,-0.90530765,-0.91075027,-0.90982103,-0.90575016,-0.89844906,-0.88889134,-0.8775194,-0.86796165,-0.86428905,-0.86340404,-0.8624748,-0.8542888,-0.8401735,-0.83468664,-0.839731,-0.8511029,-0.85747474,-0.85066044,-0.83198744,-0.81194276,-0.80008405,-0.8014558,-0.80694264,-0.81150025,-0.8123852,-0.8037567,-0.7900838,-0.78234035,-0.78003937,-0.7827828,-0.78003937,-0.76822495,-0.7536671,-0.74087924,-0.73132145,-0.71994954,-0.7026483,-0.68353283,-0.66893077,-0.66074467,-0.6521162,-0.6348149,-0.6115843,-0.5865395,-0.5660524,-0.5551229,-0.54645014,-0.5364499,-0.52140534,-0.50091815,-0.4772451,-0.45720035,-0.44352746,-0.4330848,-0.4321556,-0.44127083,-0.45764285,-0.4818027,-0.5077325,-0.5355207,-0.5619372,-0.59653974,-0.6388858,-0.6817186,-0.72494966,-0.76322484,-0.79734063,-0.8278723,-0.8579172,-0.8838912,-0.89844906,-0.9048209,-0.9039359,-0.9066351,-0.9157503,-0.9230514,-0.9289807,-0.92579484,-0.9161928,-0.91075027,-0.908936,-0.908936,-0.908936,-0.9043784,-0.89844906,-0.89207727,-0.88477623,-0.8834488,-0.88707715,-0.8952632,-0.90075004,-0.8993783,-0.8898206,-0.8797761,-0.8797761,-0.8838912,-0.88933384,-0.8902631,-0.88477623,-0.8784044,-0.8797761,-0.88251954,-0.882962,-0.882962,-0.8815903,-0.8784044,-0.8775194,-0.8788911,-0.8793336,-0.8811478,-0.882962,-0.8857055,-0.88751966,-0.88707715,-0.8861479,-0.88070536,-0.86840415,-0.85973144,-0.8588464,-0.8697759,-0.8843337,-0.8952632,-0.8952632,-0.88707715,-0.8770327,-0.8725193,-0.87384677,-0.8761477,-0.8765902,-0.87570524,-0.8711476,-0.8656607,-0.8629173,-0.86158985,-0.8611031,-0.86610323,-0.8761477,-0.8861479,-0.89114803,-0.8843337,-0.8652183,-0.84835947,-0.8401735,-0.84335935,-0.85703224,-0.86610323,-0.8693334,-0.86703247,-0.86203235,-0.85747474,-0.8565455,-0.85747474,-0.8588464,-0.85928893,-0.8547313,-0.8469877,-0.84154516,-0.8401735,-0.84154516,-0.8474745,-0.8511029,-0.8511029,-0.84835947,-0.84835947,-0.8469877,-0.8465453,-0.8451736,-0.8447311,-0.8461028,-0.848802,-0.8511029,-0.8497312,-0.8429169,-0.8333591,-0.82512885,-0.8155711,-0.8037567,-0.7946415,-0.79052633,-0.7896414,-0.79326975,-0.78871214,-0.77322507,-0.7491095,-0.7213212,-0.6990199,-0.6917188,-0.6990199,-0.7158344,-0.7304365,-0.7326932,-0.7240647,-0.7158344,-0.71313524,-0.72494966,-0.7554813,-0.79552644,-0.83698756,-0.8702184,-0.8857055,-0.88663465,-0.88251954,-0.88207704,-0.88477623,-0.88526297,-0.87796193,-0.86203235,-0.848802,-0.8469877,-0.8542888,-0.8720326,-0.8970774,-0.91893625,-0.92805153,-0.901635,-0.81650037,-0.65618706,-0.42304033,-0.11838758,0.24179745,0.6029117,0.8825196,0.97446847,0.8291998,0.47038662,0.010022402,-0.41122591,-0.7053917,-0.8606606,-0.91030777,-0.91393614,-0.90982103,-0.9093785,-0.91393614,-0.919423,-0.9262373,-0.93079495,-0.9294232,-0.92579484,-0.92075044,-0.9130069,-0.9061926,-0.8975641,-0.88933384,-0.88751966,-0.89163476,-0.8980066,-0.90075004,-0.89344895,-0.882962,-0.87570524,-0.8743335,-0.87570524,-0.87340426,-0.86340404,-0.8515454,-0.84198767,-0.8401735,-0.8424301,-0.8447311,-0.84154516,-0.83012897,-0.8169429,-0.8046417,-0.79826987,-0.79826987,-0.7968982,-0.7923405,-0.7850837,-0.7741543,-0.76592404,-0.75866723,-0.7486228,-0.7372508,-0.72269297,-0.70857763,-0.6949048,-0.6817186,-0.666674,-0.6502577,-0.63569987,-0.6202128,-0.6020266,-0.5856103,-0.56830907,-0.55145025,-0.53507817,-0.51777697,-0.49680305,-0.4768026,-0.45994377,-0.45082855,-0.44852757,-0.45445698,-0.4681298,-0.4904312,-0.515476,-0.5478219,-0.58061016,-0.6183986,-0.65848804,-0.6985332,-0.7368083,-0.7718533,-0.8064559,-0.8378725,-0.86428905,-0.88251954,-0.88889134,-0.88933384,-0.8952632,-0.9043784,-0.91667956,-0.9271223,-0.9271223,-0.9216797,-0.9161928,-0.91256446,-0.9111927,-0.9130069,-0.9157503,-0.9161928,-0.91712207,-0.9180513,-0.91256446,-0.9048209,-0.8975641,-0.88933384,-0.8898206,-0.8980066,-0.9025642,-0.9048209,-0.9011925,-0.8925198,-0.8902631,-0.8879621,-0.88477623,-0.882962,-0.8784044,-0.88070536,-0.88933384,-0.89619243,-0.8998208,-0.9002633,-0.90075004,-0.90075004,-0.89889157,-0.8948207,-0.88477623,-0.8743335,-0.8715901,-0.8765902,-0.8843337,-0.89389145,-0.8993783,-0.8980066,-0.8925198,-0.8857055,-0.8815903,-0.8793336,-0.8797761,-0.8802186,-0.8843337,-0.88477623,-0.8857055,-0.88477623,-0.88477623,-0.88707715,-0.88933384,-0.89163476,-0.8907056,-0.8838912,-0.88070536,-0.8770327,-0.87384677,-0.8752185,-0.87796193,-0.88207704,-0.8834488,-0.8797761,-0.8711476,-0.86340404,-0.86428905,-0.87296176,-0.8834488,-0.8843337,-0.87340426,-0.8579172,-0.8469877,-0.84835947,-0.85703224,-0.8647758,-0.8674749,-0.86384654,-0.8606606,-0.85973144,-0.85973144,-0.8611031,-0.8584039,-0.85566056,-0.856103,-0.8565455,-0.86158985,-0.86610323,-0.8652183,-0.86021817,-0.8533596,-0.85066044,-0.85198784,-0.85517377,-0.8579172,-0.8529171,-0.84335935,-0.83468664,-0.8283148,-0.8237572,-0.8196863,-0.81150025,-0.79826987,-0.7873404,-0.78189784,-0.7805261,-0.7795969,-0.77048165,-0.7509237,-0.7290648,-0.71539193,-0.7149494,-0.720392,-0.7286223,-0.73132145,-0.7281356,-0.730879,-0.74406517,-0.7741543,-0.8151287,-0.85747474,-0.882962,-0.89344895,-0.8902631,-0.8838912,-0.8797761,-0.8784044,-0.8725193,-0.8697759,-0.8720326,-0.8770327,-0.8879621,-0.89389145,-0.89570564,-0.8980066,-0.9020775,-0.91075027,-0.9066351,-0.85928893,-0.7376933,-0.5323348,-0.2572844,0.075598955,0.42392528,0.7203921,0.87928927,0.81964207,0.5373349,0.107458115,-0.3287905,-0.6553021,-0.84154516,-0.9157503,-0.93035245,-0.9271223,-0.92075044,-0.9148654,-0.908936,-0.9066351,-0.9043784,-0.90530765,-0.9093785,-0.91393614,-0.91712207,-0.9148654,-0.90575016,-0.89619243,-0.89114803,-0.89207727,-0.8925198,-0.8902631,-0.8838912,-0.87570524,-0.8711476,-0.86796165,-0.8647758,-0.8588464,-0.848802,-0.839731,-0.83743,-0.8360583,-0.83517337,-0.8328724,-0.8265006,-0.81875706,-0.8110135,-0.7987124,-0.7918981,-0.79415476,-0.79734063,-0.79826987,-0.79145557,-0.7736676,-0.75455207,-0.7413659,-0.7349942,-0.7358791,-0.7354366,-0.73132145,-0.7172061,-0.6917188,-0.6671165,-0.6484436,-0.632514,-0.6152127,-0.59609723,-0.57649505,-0.5619372,-0.5541936,-0.5450784,-0.5273347,-0.50684744,-0.48543108,-0.46450138,-0.45082855,-0.44352746,-0.44582844,-0.4590146,-0.47861677,-0.5041041,-0.5295913,-0.5578221,-0.5897254,-0.62658465,-0.66485983,-0.7035775,-0.74725103,-0.7877829,-0.8242439,-0.8538463,-0.8752185,-0.89114803,-0.9025642,-0.91212195,-0.9198655,-0.927609,-0.9289807,-0.9289807,-0.92805153,-0.92349386,-0.9230514,-0.92579484,-0.928494,-0.9312374,-0.93216664,-0.927609,-0.9230514,-0.9175646,-0.9111927,-0.9061926,-0.9020775,-0.901635,-0.9020775,-0.90575016,-0.9061926,-0.9002633,-0.8925198,-0.8857055,-0.8797761,-0.8775194,-0.8770327,-0.8797761,-0.88844883,-0.8952632,-0.9002633,-0.8975641,-0.8907056,-0.88707715,-0.8857055,-0.88707715,-0.89114803,-0.89389145,-0.8966349,-0.8993783,-0.8970774,-0.89163476,-0.88751966,-0.88663465,-0.89207727,-0.8948207,-0.8925198,-0.8879621,-0.882962,-0.8843337,-0.8902631,-0.8948207,-0.8966349,-0.89207727,-0.88933384,-0.8907056,-0.8925198,-0.8943782,-0.88933384,-0.88070536,-0.8725193,-0.86428905,-0.86340404,-0.8652183,-0.8702184,-0.8784044,-0.8857055,-0.8857055,-0.88070536,-0.8720326,-0.8629173,-0.8579172,-0.85747474,-0.8611031,-0.86884665,-0.874776,-0.8770327,-0.87570524,-0.8711476,-0.8647758,-0.8579172,-0.85198784,-0.8515454,-0.8542888,-0.85928893,-0.86610323,-0.86340404,-0.85973144,-0.86021817,-0.85703224,-0.8497312,-0.84424436,-0.8429169,-0.8461028,-0.8529171,-0.8547313,-0.84380186,-0.8260581,-0.8123852,-0.8041992,-0.79734063,-0.78915465,-0.7809686,-0.7714109,-0.75910974,-0.7445519,-0.7258789,-0.712206,-0.71357775,-0.7281356,-0.7468085,-0.7572955,-0.7541096,-0.7395518,-0.7304365,-0.7418084,-0.77641094,-0.82512885,-0.87066084,-0.8952632,-0.8980066,-0.8898206,-0.88663465,-0.8902631,-0.8966349,-0.8975641,-0.88933384,-0.8770327,-0.86658996,-0.86428905,-0.86884665,-0.8775194,-0.89570564,-0.9157503,-0.9216797,-0.8902631,-0.79371226,-0.613841,-0.3647647,-0.057368517,0.2832142,0.60153985,0.8160136,0.835129,0.62658465,0.23905396,-0.20763737,-0.5783093,-0.80919933,-0.90756434,-0.92393637,-0.91075027,-0.8980066,-0.8948207,-0.89619243,-0.9020775,-0.90982103,-0.9161928,-0.9212372,-0.92393637,-0.92393637,-0.9175646,-0.9030067,-0.8898206,-0.8802186,-0.8788911,-0.8843337,-0.88663465,-0.8834488,-0.874776,-0.8647758,-0.85747474,-0.8547313,-0.8515454,-0.8447311,-0.839731,-0.8360583,-0.83880174,-0.84424436,-0.8465453,-0.84154516,-0.8265006,-0.81419945,-0.80694264,-0.8014558,-0.7991991,-0.7900838,-0.7750393,-0.7595522,-0.7513662,-0.74999446,-0.7509237,-0.7504812,-0.74499434,-0.73450744,-0.7195071,-0.70127654,-0.68123186,-0.6611872,-0.64481515,-0.632514,-0.6156552,-0.5979115,-0.5856103,-0.5737959,-0.5637514,-0.5541936,-0.5359632,-0.5122901,-0.4881745,-0.4649439,-0.443085,-0.43078387,-0.43122637,-0.44127083,-0.45812958,-0.47905928,-0.50228983,-0.5300781,-0.5692383,-0.61339855,-0.6603022,-0.7072059,-0.7459236,-0.7787119,-0.80694264,-0.83517337,-0.85928893,-0.8815903,-0.89889157,-0.90756434,-0.9084936,-0.9111927,-0.91712207,-0.9253081,-0.9316799,-0.9289807,-0.91667956,-0.9020775,-0.8943782,-0.8948207,-0.9002633,-0.9039359,-0.9030067,-0.9011925,-0.8966349,-0.8898206,-0.88251954,-0.88526297,-0.89570564,-0.9084936,-0.9157503,-0.91075027,-0.8966349,-0.8834488,-0.88070536,-0.88477623,-0.88844883,-0.89163476,-0.8925198,-0.8907056,-0.8898206,-0.88663465,-0.88070536,-0.8770327,-0.87570524,-0.8775194,-0.882962,-0.88477623,-0.8793336,-0.8788911,-0.8811478,-0.8857055,-0.8943782,-0.89844906,-0.8998208,-0.8980066,-0.89207727,-0.8857055,-0.8761477,-0.8693334,-0.8693334,-0.87384677,-0.8834488,-0.88933384,-0.89207727,-0.88844883,-0.8797761,-0.86796165,-0.85973144,-0.85703224,-0.86384654,-0.87796193,-0.88844883,-0.89344895,-0.88889134,-0.8793336,-0.86796165,-0.86158985,-0.85928893,-0.8542888,-0.84835947,-0.84791696,-0.8538463,-0.86428905,-0.8752185,-0.8770327,-0.86884665,-0.8588464,-0.8501737,-0.84154516,-0.83654505,-0.84154516,-0.85198784,-0.8656607,-0.8725193,-0.8656607,-0.85198784,-0.8429169,-0.8406159,-0.84424436,-0.84791696,-0.8497312,-0.8474745,-0.84380186,-0.8401735,-0.83654505,-0.82742983,-0.82331467,-0.8269431,-0.8406159,-0.85517377,-0.8656607,-0.86428905,-0.848802,-0.8315007,-0.81601363,-0.80508417,-0.7968982,-0.7918981,-0.78459704,-0.775526,-0.76866746,-0.7627381,-0.7536671,-0.7358791,-0.71357775,-0.69534725,-0.6899047,-0.7003473,-0.71539193,-0.72220623,-0.723578,-0.7240647,-0.7281356,-0.73862255,-0.75685304,-0.7855262,-0.82331467,-0.8629173,-0.88751966,-0.89344895,-0.88751966,-0.88070536,-0.8834488,-0.88707715,-0.8838912,-0.8765902,-0.86796165,-0.8647758,-0.8647758,-0.8693334,-0.8797761,-0.8970774,-0.9161928,-0.91212195,-0.85703224,-0.7245072,-0.50729,-0.20812404,0.15617609,0.5318481,0.835129,0.9676541,0.8661033,0.5487069,0.10790074,-0.32060444,-0.63800085,-0.8201288,-0.8902631,-0.9011925,-0.9034492,-0.91167945,-0.9294232,-0.9467245,-0.9521671,-0.94398105,-0.93079495,-0.9180513,-0.91212195,-0.91393614,-0.91667956,-0.9157503,-0.91167945,-0.9025642,-0.88844883,-0.8793336,-0.87384677,-0.874776,-0.8784044,-0.8775194,-0.87066084,-0.86340404,-0.8584039,-0.8588464,-0.86203235,-0.86203235,-0.85517377,-0.8447311,-0.83743,-0.8288015,-0.8269431,-0.8246864,-0.81650037,-0.80327,-0.78915465,-0.7791544,-0.7736676,-0.7741543,-0.7714109,-0.7627381,-0.7559238,-0.7504812,-0.7459236,-0.74087924,-0.7258789,-0.7035775,-0.6817186,-0.6616739,-0.64707184,-0.6388858,-0.6320715,-0.6206996,-0.60609746,-0.5837961,-0.55830884,-0.5323348,-0.5082192,-0.49136043,-0.47861677,-0.4681298,-0.4631297,-0.45812958,-0.4558286,-0.45945704,-0.47131574,-0.4945463,-0.5232195,-0.5578221,-0.5956548,-0.631629,-0.6739751,-0.71813536,-0.7622956,-0.7996416,-0.8265006,-0.8447311,-0.8584039,-0.8752185,-0.8902631,-0.9025642,-0.90712184,-0.9080068,-0.9080068,-0.90712184,-0.908936,-0.9130069,-0.91712207,-0.9221222,-0.9271223,-0.92579484,-0.91667956,-0.9039359,-0.8943782,-0.88751966,-0.88477623,-0.88526297,-0.88477623,-0.88477623,-0.8857055,-0.88844883,-0.8902631,-0.88889134,-0.88663465,-0.8861479,-0.8834488,-0.8838912,-0.88889134,-0.8925198,-0.8980066,-0.8970774,-0.8907056,-0.8815903,-0.8802186,-0.8834488,-0.88751966,-0.8879621,-0.88207704,-0.8761477,-0.87570524,-0.8761477,-0.8784044,-0.8784044,-0.874776,-0.8697759,-0.86658996,-0.8702184,-0.87796193,-0.88889134,-0.8975641,-0.8952632,-0.8879621,-0.8797761,-0.87340426,-0.8715901,-0.87296176,-0.87340426,-0.87066084,-0.86796165,-0.8647758,-0.86340404,-0.86384654,-0.86610323,-0.8693334,-0.8715901,-0.8720326,-0.87066084,-0.8647758,-0.85928893,-0.8606606,-0.8674749,-0.8770327,-0.88251954,-0.8793336,-0.86703247,-0.85747474,-0.8588464,-0.86658996,-0.8761477,-0.87796193,-0.86840415,-0.856103,-0.8465453,-0.84835947,-0.8584039,-0.86340404,-0.8652183,-0.8588464,-0.8492887,-0.84335935,-0.8424301,-0.84791696,-0.85247463,-0.85928893,-0.86340404,-0.86021817,-0.8542888,-0.8474745,-0.84154516,-0.8401735,-0.8406159,-0.84198767,-0.84154516,-0.83743,-0.8269431,-0.8073851,-0.7859687,-0.77641094,-0.7745968,-0.77734023,-0.7741543,-0.7572955,-0.73632157,-0.723578,-0.723578,-0.72676384,-0.7272506,-0.72676384,-0.7304365,-0.7399943,-0.74999446,-0.7613664,-0.7782252,-0.8041992,-0.8406159,-0.87570524,-0.8943782,-0.8980066,-0.8898206,-0.8775194,-0.8697759,-0.86384654,-0.85973144,-0.8579172,-0.856103,-0.8611031,-0.87296176,-0.89163476,-0.91349363,-0.9316799,-0.93898094,-0.9130069,-0.8333591,-0.6776035,-0.44534165,-0.1502909,0.19215035,0.5355208,0.8055266,0.9038918,0.76866734,0.42392528,-0.030067086,-0.4448992,-0.7281356,-0.87296176,-0.9198655,-0.9271223,-0.9289807,-0.92579484,-0.9175646,-0.90530765,-0.8970774,-0.89389145,-0.89389145,-0.8998208,-0.9080068,-0.91256446,-0.91667956,-0.9153079,-0.90575016,-0.8943782,-0.8838912,-0.8770327,-0.8743335,-0.8697759,-0.8652183,-0.8606606,-0.85703224,-0.8542888,-0.85066044,-0.8461028,-0.84335935,-0.8424301,-0.8429169,-0.84198767,-0.83654505,-0.8260581,-0.8151287,-0.8082701,-0.8037567,-0.7991991,-0.7923405,-0.7855262,-0.7805261,-0.78003937,-0.7791544,-0.7759685,-0.76322484,-0.74773777,-0.7322507,-0.71902037,-0.7076484,-0.6949048,-0.68078935,-0.6662315,-0.65118694,-0.6361424,-0.6183986,-0.59609723,-0.58016765,-0.57149494,-0.5623797,-0.55100775,-0.53052056,-0.5045465,-0.48087347,-0.4676873,-0.46082878,-0.45675784,-0.45627117,-0.4626872,-0.47631586,-0.49817473,-0.5232195,-0.5537512,-0.5906104,-0.6343282,-0.68353283,-0.7322507,-0.77322507,-0.8073851,-0.83743,-0.86340404,-0.88526297,-0.9020775,-0.9093785,-0.9130069,-0.91667956,-0.9212372,-0.9230514,-0.92349386,-0.92349386,-0.92393637,-0.9253081,-0.9253081,-0.9180513,-0.91075027,-0.9093785,-0.9153079,-0.9212372,-0.9253081,-0.9226089,-0.9157503,-0.9048209,-0.9002633,-0.9025642,-0.9066351,-0.91256446,-0.91393614,-0.90712184,-0.89389145,-0.8838912,-0.8834488,-0.88751966,-0.8948207,-0.8975641,-0.89344895,-0.88844883,-0.88707715,-0.8902631,-0.8975641,-0.901635,-0.8998208,-0.8970774,-0.8948207,-0.8930065,-0.8879621,-0.88707715,-0.8907056,-0.8943782,-0.9025642,-0.90712184,-0.90575016,-0.9011925,-0.8970774,-0.89570564,-0.8943782,-0.89163476,-0.89114803,-0.8898206,-0.8879621,-0.88751966,-0.88663465,-0.8834488,-0.88207704,-0.88207704,-0.88207704,-0.88526297,-0.8925198,-0.89570564,-0.89844906,-0.8970774,-0.8902631,-0.88207704,-0.8725193,-0.86796165,-0.8674749,-0.8725193,-0.8765902,-0.8765902,-0.87570524,-0.8743335,-0.8752185,-0.87384677,-0.86703247,-0.85928893,-0.85517377,-0.8542888,-0.85928893,-0.8611031,-0.8606606,-0.8629173,-0.86610323,-0.86703247,-0.8629173,-0.85517377,-0.8492887,-0.85198784,-0.85928893,-0.86158985,-0.8547313,-0.8378725,-0.81875706,-0.80327,-0.7918981,-0.783712,-0.775526,-0.7700392,-0.7595522,-0.7418084,-0.7276931,-0.72632134,-0.73406494,-0.7468085,-0.7504812,-0.7418084,-0.72632134,-0.71769285,-0.72220623,-0.74499434,-0.78234035,-0.8260581,-0.8629173,-0.8793336,-0.8770327,-0.8647758,-0.8565455,-0.85517377,-0.86021817,-0.8647758,-0.8693334,-0.874776,-0.8797761,-0.8793336,-0.8720326,-0.8693334,-0.8861479,-0.920308,-0.947167,-0.928494,-0.83061576,-0.64437264,-0.39206618,-0.08378494,0.26454127,0.5979115,0.83694327,0.8834045,0.6907896,0.31648934,-0.12524605,-0.50317484,-0.74773777,-0.8674749,-0.9066351,-0.91437864,-0.9175646,-0.9271223,-0.93672425,-0.9407952,-0.9362375,-0.92579484,-0.91256446,-0.9034492,-0.901635,-0.901635,-0.8980066,-0.89207727,-0.8861479,-0.88207704,-0.88251954,-0.8815903,-0.88070536,-0.8784044,-0.87384677,-0.86884665,-0.86021817,-0.848802,-0.84380186,-0.84424436,-0.8429169,-0.8424301,-0.84154516,-0.84105843,-0.83924425,-0.83743,-0.8296865,-0.8196863,-0.8087568,-0.8010133,-0.79552644,-0.7896414,-0.78415453,-0.77641094,-0.7650391,-0.7509237,-0.7372508,-0.7272506,-0.71857786,-0.70946264,-0.7008341,-0.6917188,-0.6830461,-0.67030245,-0.6521162,-0.62477046,-0.5919821,-0.57061,-0.5605655,-0.55600786,-0.551937,-0.5391491,-0.5182195,-0.49728972,-0.47768754,-0.46175802,-0.44989932,-0.44352746,-0.44627094,-0.45764285,-0.47087324,-0.49180287,-0.52640545,-0.57105243,-0.62158453,-0.66760325,-0.70627666,-0.73450744,-0.760039,-0.79326975,-0.8288015,-0.86428905,-0.8902631,-0.9061926,-0.91256446,-0.91349363,-0.9175646,-0.91712207,-0.91349363,-0.90575016,-0.89889157,-0.8993783,-0.9020775,-0.9066351,-0.90982103,-0.9084936,-0.9066351,-0.9034492,-0.9039359,-0.90575016,-0.90575016,-0.9039359,-0.89619243,-0.8907056,-0.8902631,-0.89344895,-0.8993783,-0.9034492,-0.89889157,-0.8907056,-0.88477623,-0.8811478,-0.8811478,-0.88663465,-0.88844883,-0.88889134,-0.88751966,-0.88933384,-0.89344895,-0.89344895,-0.89163476,-0.88526297,-0.88207704,-0.88526297,-0.88844883,-0.88933384,-0.88526297,-0.8765902,-0.8711476,-0.86884665,-0.8715901,-0.8793336,-0.8898206,-0.8980066,-0.8998208,-0.8930065,-0.8834488,-0.8752185,-0.8715901,-0.8761477,-0.8857055,-0.8943782,-0.8980066,-0.8930065,-0.88070536,-0.86884665,-0.86203235,-0.8624748,-0.8647758,-0.86340404,-0.8629173,-0.8606606,-0.8629173,-0.8697759,-0.8770327,-0.88207704,-0.8802186,-0.8720326,-0.8624748,-0.8533596,-0.8515454,-0.84835947,-0.85066044,-0.8584039,-0.8606606,-0.8629173,-0.86340404,-0.86158985,-0.8588464,-0.86021817,-0.86021817,-0.85703224,-0.8538463,-0.8538463,-0.8542888,-0.8547313,-0.8538463,-0.8469877,-0.839731,-0.8401735,-0.8447311,-0.8533596,-0.8606606,-0.8565455,-0.8451736,-0.8328724,-0.821943,-0.81331444,-0.8041992,-0.79282725,-0.7795969,-0.76592404,-0.75180864,-0.7349942,-0.71857786,-0.7103918,-0.71313524,-0.723578,-0.7318082,-0.73132145,-0.7240647,-0.71857786,-0.72220623,-0.73906505,-0.77048165,-0.81194276,-0.8511029,-0.8811478,-0.89344895,-0.89114803,-0.88663465,-0.8834488,-0.88477623,-0.88251954,-0.87570524,-0.8702184,-0.86840415,-0.8697759,-0.87796193,-0.88707715,-0.901635,-0.9212372,-0.93486583,-0.919423,-0.8461028,-0.69671893,-0.47405916,-0.17896414,0.17396414,0.53459156,0.8283149,0.95716727,0.85654557,0.5441493,0.1106441,-0.31193167,-0.6279564,-0.81375694,-0.89570564,-0.919423,-0.9253081,-0.92579484,-0.9244231,-0.9244231,-0.9289807,-0.93672425,-0.9407952,-0.9362375,-0.9253081,-0.91393614,-0.90575016,-0.9034492,-0.9011925,-0.8980066,-0.8925198,-0.8902631,-0.8925198,-0.8943782,-0.8930065,-0.8838912,-0.8720326,-0.86203235,-0.85703224,-0.8588464,-0.86203235,-0.86021817,-0.8565455,-0.8497312,-0.83698756,-0.8260581,-0.821058,-0.81650037,-0.8146862,-0.810571,-0.80057085,-0.79096884,-0.78415453,-0.783712,-0.78141105,-0.7750393,-0.7668532,-0.7554813,-0.74725103,-0.7358791,-0.71902037,-0.7030908,-0.68853295,-0.6757893,-0.6643731,-0.65074444,-0.6279564,-0.60384077,-0.57605255,-0.55056524,-0.53052056,-0.5159627,-0.50591826,-0.4945463,-0.4822452,-0.46905905,-0.45357198,-0.44171327,-0.44082832,-0.45220023,-0.47131574,-0.5018474,-0.5355207,-0.56786656,-0.60428333,-0.6411867,-0.678046,-0.7195071,-0.76185316,-0.7991991,-0.8269431,-0.84154516,-0.8501737,-0.85928893,-0.8761477,-0.89570564,-0.91256446,-0.9198655,-0.919423,-0.9148654,-0.90982103,-0.9084936,-0.908936,-0.9080068,-0.9048209,-0.9034492,-0.9043784,-0.90756434,-0.91256446,-0.9130069,-0.9034492,-0.8898206,-0.8838912,-0.8857055,-0.89619243,-0.9061926,-0.9048209,-0.8948207,-0.88207704,-0.8725193,-0.8725193,-0.8761477,-0.8834488,-0.88844883,-0.8898206,-0.8879621,-0.8784044,-0.87340426,-0.8765902,-0.88526297,-0.8948207,-0.9002633,-0.8948207,-0.8861479,-0.8834488,-0.8838912,-0.88889134,-0.89163476,-0.88933384,-0.8802186,-0.8697759,-0.8647758,-0.86610323,-0.8775194,-0.8902631,-0.89844906,-0.8966349,-0.88844883,-0.8784044,-0.8697759,-0.86384654,-0.86340404,-0.86658996,-0.874776,-0.8802186,-0.8843337,-0.88526297,-0.8788911,-0.8702184,-0.8674749,-0.86658996,-0.8697759,-0.8765902,-0.8815903,-0.8815903,-0.8784044,-0.8761477,-0.8711476,-0.8629173,-0.85517377,-0.8474745,-0.84424436,-0.8469877,-0.8533596,-0.85973144,-0.8629173,-0.86203235,-0.8624748,-0.86340404,-0.86658996,-0.86796165,-0.8647758,-0.8579172,-0.85066044,-0.8497312,-0.8529171,-0.86021817,-0.86884665,-0.8697759,-0.8624748,-0.8451736,-0.8246864,-0.80919933,-0.8014558,-0.7991991,-0.79508394,-0.7850837,-0.7777827,-0.77322507,-0.7668532,-0.75455207,-0.7331357,-0.71539193,-0.7099493,-0.71539193,-0.7281356,-0.7372508,-0.74043673,-0.73906505,-0.7395518,-0.74725103,-0.7718533,-0.810571,-0.8529171,-0.8861479,-0.901635,-0.9002633,-0.89163476,-0.8834488,-0.8797761,-0.8752185,-0.8697759,-0.8693334,-0.8697759,-0.8725193,-0.8784044,-0.88889134,-0.8998208,-0.9148654,-0.9266798,-0.90982103,-0.83924425,-0.6899047,-0.4613155,-0.16029108,0.19259286,0.54233515,0.807341,0.89433396,0.74725115,0.40025222,-0.049182475,-0.4631297,-0.7504812,-0.8970774,-0.9407952,-0.93216664,-0.91167945,-0.89889157,-0.8948207,-0.89889157,-0.91030777,-0.9244231,-0.9312374,-0.928494,-0.9212372,-0.91167945,-0.9061926,-0.9061926,-0.9030067,-0.8966349,-0.88251954,-0.87066084,-0.86658996,-0.87066084,-0.8811478,-0.88526297,-0.8793336,-0.86384654,-0.8497312,-0.84105843,-0.8378725,-0.8378725,-0.83698756,-0.8360583,-0.83698756,-0.8356159,-0.8315007,-0.82057124,-0.80694264,-0.79734063,-0.7923405,-0.78871214,-0.7827828,-0.7745968,-0.76322484,-0.7513662,-0.7395518,-0.7281356,-0.71857786,-0.7158344,-0.7163212,-0.71127677,-0.6994624,-0.6776035,-0.64981526,-0.62432796,-0.605655,-0.59335387,-0.58335364,-0.5692383,-0.5532645,-0.53507817,-0.51503354,-0.4999889,-0.48317444,-0.4695015,-0.46450138,-0.46220046,-0.45627117,-0.45764285,-0.46994406,-0.4931746,-0.53507817,-0.5783093,-0.61795616,-0.6543729,-0.6921613,-0.7331357,-0.7709684,-0.8014558,-0.8269431,-0.8429169,-0.8579172,-0.8752185,-0.8943782,-0.91349363,-0.92579484,-0.928494,-0.92579484,-0.9230514,-0.9230514,-0.9244231,-0.92349386,-0.9157503,-0.9080068,-0.90712184,-0.91075027,-0.9180513,-0.927609,-0.9298657,-0.9294232,-0.9253081,-0.91667956,-0.9066351,-0.89844906,-0.89207727,-0.88933384,-0.88526297,-0.882962,-0.8815903,-0.8811478,-0.8838912,-0.88477623,-0.88751966,-0.8898206,-0.8902631,-0.88844883,-0.88526297,-0.8802186,-0.8761477,-0.8770327,-0.8784044,-0.8811478,-0.88663465,-0.89163476,-0.89570564,-0.8948207,-0.88844883,-0.8834488,-0.8788911,-0.8797761,-0.88751966,-0.8952632,-0.8998208,-0.90075004,-0.89619243,-0.88933384,-0.8834488,-0.882962,-0.8838912,-0.88663465,-0.89163476,-0.89207727,-0.88707715,-0.88477623,-0.88070536,-0.8788911,-0.8784044,-0.8765902,-0.87340426,-0.8752185,-0.8811478,-0.88526297,-0.88526297,-0.8793336,-0.8693334,-0.86340404,-0.86428905,-0.8693334,-0.8720326,-0.8697759,-0.8624748,-0.8542888,-0.85198784,-0.85747474,-0.86384654,-0.86610323,-0.86340404,-0.85747474,-0.8511029,-0.8451736,-0.84198767,-0.8424301,-0.8465453,-0.84835947,-0.8424301,-0.83061576,-0.8123852,-0.79826987,-0.79282725,-0.78689796,-0.77322507,-0.7536671,-0.73632157,-0.7281356,-0.7286223,-0.7358791,-0.7399943,-0.74087924,-0.7399943,-0.73406494,-0.72676384,-0.7368083,-0.7741543,-0.83012897,-0.8898206,-0.9248656,-0.9221222,-0.9011925,-0.8811478,-0.87340426,-0.8770327,-0.8815903,-0.8815903,-0.8838912,-0.8843337,-0.88477623,-0.8861479,-0.8898206,-0.9034492,-0.9262373,-0.94172436,-0.91712207,-0.829244,-0.65893054,-0.42078358,-0.12931699,0.20582318,0.5355208,0.78641117,0.85928893,0.69897556,0.34060502,-0.10613066,-0.49773222,-0.7549946,-0.8784044,-0.91437864,-0.91437864,-0.91212195,-0.91393614,-0.920308,-0.9294232,-0.93760926,-0.93716675,-0.927609,-0.9180513,-0.9080068,-0.90712184,-0.91256446,-0.9148654,-0.91393614,-0.90756434,-0.9011925,-0.8975641,-0.89570564,-0.8975641,-0.89344895,-0.88070536,-0.86703247,-0.8542888,-0.8474745,-0.848802,-0.8529171,-0.8584039,-0.8624748,-0.8584039,-0.8469877,-0.83061576,-0.81601363,-0.8078276,-0.8064559,-0.8064559,-0.8041992,-0.7991991,-0.7923405,-0.7850837,-0.78003937,-0.7750393,-0.7709684,-0.76322484,-0.74999446,-0.73362243,-0.7158344,-0.6994624,-0.68578947,-0.66985995,-0.6525587,-0.63344324,-0.61746943,-0.60609746,-0.59609723,-0.58105266,-0.561008,-0.5391491,-0.5186619,-0.5018474,-0.48587358,-0.47175825,-0.4631297,-0.46175802,-0.46994406,-0.4813159,-0.49680305,-0.5223346,-0.55645037,-0.59928316,-0.64437264,-0.6798602,-0.7126485,-0.746366,-0.7855262,-0.8278723,-0.86384654,-0.88663465,-0.8975641,-0.8998208,-0.901635,-0.90982103,-0.92075044,-0.9316799,-0.9385385,-0.9344233,-0.9253081,-0.91893625,-0.91667956,-0.9212372,-0.9298657,-0.93260914,-0.9294232,-0.9198655,-0.9080068,-0.90075004,-0.8998208,-0.90575016,-0.91167945,-0.9161928,-0.91667956,-0.91437864,-0.90756434,-0.89889157,-0.8943782,-0.8925198,-0.89619243,-0.9002633,-0.8998208,-0.8943782,-0.89163476,-0.89114803,-0.89344895,-0.89570564,-0.89619243,-0.8948207,-0.8930065,-0.8902631,-0.8857055,-0.8861479,-0.89207727,-0.9011925,-0.91075027,-0.91437864,-0.9080068,-0.89570564,-0.8838912,-0.87384677,-0.8720326,-0.8802186,-0.8930065,-0.9020775,-0.9025642,-0.89570564,-0.8898206,-0.88707715,-0.88889134,-0.88889134,-0.88526297,-0.87796193,-0.87296176,-0.8743335,-0.8793336,-0.88751966,-0.89344895,-0.8898206,-0.88070536,-0.87296176,-0.8715901,-0.8802186,-0.8879621,-0.88933384,-0.88251954,-0.87384677,-0.87340426,-0.8765902,-0.8775194,-0.87384677,-0.86703247,-0.86021817,-0.85747474,-0.85703224,-0.85928893,-0.86384654,-0.86884665,-0.87066084,-0.86703247,-0.86203235,-0.8611031,-0.86203235,-0.86384654,-0.86610323,-0.86340404,-0.8588464,-0.856103,-0.85247463,-0.84198767,-0.8288015,-0.80964184,-0.79145557,-0.78141105,-0.7791544,-0.77685344,-0.76778245,-0.7549946,-0.7418084,-0.730879,-0.7245072,-0.7208788,-0.72176373,-0.7286223,-0.7395518,-0.74725103,-0.7486228,-0.7541096,-0.7736676,-0.8087568,-0.8515454,-0.8857055,-0.9034492,-0.91030777,-0.90712184,-0.9002633,-0.8898206,-0.87796193,-0.8711476,-0.8711476,-0.8743335,-0.8784044,-0.88477623,-0.8907056,-0.8930065,-0.90075004,-0.91893625,-0.9335384,-0.9248656,-0.85703224,-0.6985332,-0.45220023,-0.13343209,0.23768234,0.60242486,0.88066113,0.9749552,0.8246865,0.46764314,0.009093165,-0.41073918,-0.7026483,-0.85566056,-0.90575016,-0.9080068,-0.90575016,-0.91256446,-0.9271223,-0.9412819,-0.9476537,-0.9444678,-0.93216664,-0.92393637,-0.9244231,-0.928494,-0.9294232,-0.919423,-0.90756434,-0.9025642,-0.91167945,-0.9262373,-0.928494,-0.91393614,-0.88933384,-0.86796165,-0.85566056,-0.8515454,-0.8542888,-0.8588464,-0.8611031,-0.8584039,-0.85566056,-0.8511029,-0.8465453,-0.8406159,-0.8278723,-0.81012857,-0.8064559,-0.8151287,-0.8260581,-0.8310582,-0.8196863,-0.79826987,-0.7777827,-0.7645966,-0.7541096,-0.746366,-0.73818004,-0.730879,-0.71902037,-0.7026483,-0.68123186,-0.6598598,-0.64755857,-0.64300096,-0.6366291,-0.62839884,-0.6124693,-0.5860528,-0.5578221,-0.52870643,-0.5027324,-0.48998868,-0.48498863,-0.4840594,-0.48450184,-0.47768754,-0.47087324,-0.4681298,-0.47768754,-0.50228983,-0.5364499,-0.5774243,-0.62432796,-0.6712316,-0.7117635,-0.7491095,-0.78003937,-0.8064559,-0.8360583,-0.8697759,-0.89844906,-0.9153079,-0.9216797,-0.91893625,-0.91393614,-0.9111927,-0.91167945,-0.908936,-0.9080068,-0.9034492,-0.8998208,-0.9048209,-0.9093785,-0.91393614,-0.9157503,-0.91167945,-0.9025642,-0.8943782,-0.89207727,-0.8970774,-0.9066351,-0.91712207,-0.9216797,-0.91893625,-0.91256446,-0.90982103,-0.9061926,-0.8970774,-0.8857055,-0.8784044,-0.8797761,-0.89114803,-0.89619243,-0.8930065,-0.8793336,-0.8697759,-0.8770327,-0.89207727,-0.9039359,-0.9084936,-0.9048209,-0.8998208,-0.9011925,-0.9061926,-0.9061926,-0.9020775,-0.89570564,-0.8898206,-0.88526297,-0.88751966,-0.89114803,-0.8966349,-0.9039359,-0.908936,-0.91075027,-0.908936,-0.9025642,-0.8930065,-0.8834488,-0.88070536,-0.8815903,-0.88707715,-0.8925198,-0.88844883,-0.8843337,-0.8838912,-0.88663465,-0.8925198,-0.89889157,-0.9002633,-0.8975641,-0.8975641,-0.89570564,-0.88707715,-0.8761477,-0.86796165,-0.86610323,-0.8715901,-0.8802186,-0.8857055,-0.8861479,-0.88477623,-0.8838912,-0.88207704,-0.8775194,-0.8711476,-0.8656607,-0.86203235,-0.8611031,-0.8611031,-0.86158985,-0.8611031,-0.8588464,-0.85566056,-0.8588464,-0.8656607,-0.87296176,-0.87340426,-0.8584039,-0.8378725,-0.8151287,-0.802385,-0.8014558,-0.8010133,-0.79508394,-0.78234035,-0.76322484,-0.74362266,-0.7286223,-0.71813536,-0.7149494,-0.72269297,-0.7358791,-0.749552,-0.76185316,-0.7750393,-0.7987124,-0.8315007,-0.8647758,-0.88889134,-0.8975641,-0.8943782,-0.8857055,-0.8838912,-0.88844883,-0.8970774,-0.90575016,-0.9061926,-0.8966349,-0.8815903,-0.8674749,-0.86428905,-0.87066084,-0.8879621,-0.9130069,-0.93216664,-0.9244231,-0.8674749,-0.73450744,-0.5223346,-0.23635477,0.11157322,0.47220075,0.7668532,0.89844906,0.7987124,0.48313022,0.041439056,-0.39118117,-0.70902014,-0.88663465,-0.95128214,-0.9503529,-0.928494,-0.9061926,-0.89570564,-0.9061926,-0.9271223,-0.9457953,-0.9535388,-0.9435386,-0.927609,-0.91849375,-0.91712207,-0.9157503,-0.91212195,-0.90575016,-0.8975641,-0.8902631,-0.88477623,-0.8815903,-0.88070536,-0.88207704,-0.8834488,-0.8811478,-0.8752185,-0.8715901,-0.86796165,-0.86428905,-0.8542888,-0.84105843,-0.83012897,-0.8242439,-0.8288015,-0.83880174,-0.8406159,-0.83517337,-0.8224297,-0.80694264,-0.79508394,-0.7850837,-0.7782252,-0.77048165,-0.7604814,-0.7509237,-0.7395518,-0.7276931,-0.7167636,-0.7080909,-0.70127654,-0.69309056,-0.6785327,-0.65848804,-0.6352574,-0.6156552,-0.60153985,-0.58791125,-0.5728667,-0.55145025,-0.5318923,-0.5182195,-0.5086617,-0.49866146,-0.48905945,-0.47813004,-0.47087324,-0.4768026,-0.4949888,-0.51914865,-0.5482643,-0.57879597,-0.61065507,-0.6530012,-0.7072059,-0.7622956,-0.8073851,-0.8378725,-0.86428905,-0.8930065,-0.9230514,-0.94398105,-0.9430961,-0.928494,-0.91667956,-0.91667956,-0.9289807,-0.9430961,-0.9503529,-0.9494679,-0.94260937,-0.9335384,-0.92805153,-0.9248656,-0.9248656,-0.9271223,-0.92579484,-0.9244231,-0.9221222,-0.91849375,-0.9153079,-0.91437864,-0.92075044,-0.9312374,-0.93760926,-0.93535256,-0.9244231,-0.9080068,-0.89844906,-0.8980066,-0.9020775,-0.9039359,-0.9034492,-0.8998208,-0.89889157,-0.901635,-0.9034492,-0.9048209,-0.8993783,-0.89344895,-0.8948207,-0.9025642,-0.9157503,-0.9230514,-0.92075044,-0.9093785,-0.90075004,-0.9002633,-0.90075004,-0.8998208,-0.8966349,-0.8930065,-0.8925198,-0.89889157,-0.9039359,-0.90530765,-0.9025642,-0.9011925,-0.8980066,-0.8966349,-0.8943782,-0.8898206,-0.8861479,-0.8838912,-0.8802186,-0.8838912,-0.8930065,-0.9020775,-0.91075027,-0.91167945,-0.9020775,-0.8902631,-0.8843337,-0.8843337,-0.8861479,-0.8861479,-0.88251954,-0.874776,-0.8693334,-0.8674749,-0.8697759,-0.87384677,-0.8770327,-0.8770327,-0.87570524,-0.87066084,-0.86428905,-0.86021817,-0.8579172,-0.85747474,-0.8542888,-0.848802,-0.8465453,-0.8429169,-0.83743,-0.83012897,-0.8146862,-0.7968982,-0.7827828,-0.77048165,-0.7622956,-0.7522954,-0.7445519,-0.73818004,-0.73632157,-0.74043673,-0.7445519,-0.746366,-0.74318016,-0.7486228,-0.77734023,-0.8237572,-0.87296176,-0.9043784,-0.9080068,-0.8998208,-0.89344895,-0.89844906,-0.90530765,-0.9030067,-0.89389145,-0.8811478,-0.87340426,-0.86840415,-0.86428905,-0.8652183,-0.87296176,-0.8948207,-0.92579484,-0.9444678,-0.92393637,-0.84154516,-0.67667425,-0.4398991,-0.14343232,0.20126557,0.5414059,0.800084,0.88703287,0.7408793,0.39162374,-0.051483333,-0.45401442,-0.7295073,-0.8674749,-0.9130069,-0.91212195,-0.9043784,-0.9030067,-0.90756434,-0.91712207,-0.9289807,-0.9335384,-0.928494,-0.92075044,-0.91167945,-0.9043784,-0.89889157,-0.89619243,-0.8930065,-0.8930065,-0.8907056,-0.88751966,-0.8838912,-0.8815903,-0.8788911,-0.8775194,-0.8761477,-0.86884665,-0.86158985,-0.8538463,-0.84380186,-0.8378725,-0.83198744,-0.829244,-0.8283148,-0.8246864,-0.82057124,-0.8128277,-0.802385,-0.79552644,-0.79326975,-0.7900838,-0.7850837,-0.7855262,-0.78415453,-0.78189784,-0.775526,-0.7536671,-0.723578,-0.6990199,-0.68353283,-0.6803469,-0.67941767,-0.67030245,-0.6539304,-0.6320715,-0.61295605,-0.595168,-0.58149517,-0.57105243,-0.55645037,-0.53326404,-0.5041041,-0.4863603,-0.47768754,-0.47998852,-0.48724526,-0.4840594,-0.47224498,-0.4703865,-0.47861677,-0.50047565,-0.5323348,-0.57061,-0.61339855,-0.6571163,-0.6990199,-0.7413659,-0.78234035,-0.8224297,-0.8565455,-0.8811478,-0.89389145,-0.89570564,-0.8902631,-0.88889134,-0.8970774,-0.9157503,-0.93672425,-0.95083964,-0.947167,-0.9312374,-0.91667956,-0.90982103,-0.9084936,-0.908936,-0.9048209,-0.89844906,-0.89207727,-0.88663465,-0.88663465,-0.8898206,-0.8948207,-0.89844906,-0.8966349,-0.88844883,-0.8857055,-0.89207727,-0.9048209,-0.9161928,-0.9157503,-0.9048209,-0.8907056,-0.8815903,-0.88251954,-0.8861479,-0.8879621,-0.88663465,-0.874776,-0.8693334,-0.87570524,-0.88663465,-0.8980066,-0.9011925,-0.89163476,-0.8815903,-0.8802186,-0.8857055,-0.8925198,-0.8980066,-0.9002633,-0.89889157,-0.8948207,-0.8902631,-0.8843337,-0.8775194,-0.874776,-0.8775194,-0.88207704,-0.88844883,-0.89114803,-0.88889134,-0.8761477,-0.86384654,-0.8629173,-0.8711476,-0.882962,-0.8902631,-0.89114803,-0.88933384,-0.88477623,-0.88251954,-0.88070536,-0.87340426,-0.8693334,-0.8702184,-0.8725193,-0.8711476,-0.8652183,-0.8588464,-0.856103,-0.86428905,-0.87796193,-0.88707715,-0.88889134,-0.8797761,-0.86703247,-0.8547313,-0.84835947,-0.85517377,-0.8647758,-0.8752185,-0.8784044,-0.87066084,-0.856103,-0.8406159,-0.83012897,-0.82287216,-0.8128277,-0.802385,-0.7946415,-0.79096884,-0.79096884,-0.78689796,-0.7709684,-0.74543685,-0.72220623,-0.7117635,-0.71313524,-0.72220623,-0.730879,-0.7326932,-0.7368083,-0.74543685,-0.76366735,-0.79415476,-0.8315007,-0.8656607,-0.88663465,-0.8902631,-0.88663465,-0.88526297,-0.8857055,-0.88933384,-0.89163476,-0.88751966,-0.88251954,-0.8752185,-0.86796165,-0.86340404,-0.8656607,-0.8834488,-0.90982103,-0.9385385,-0.9457953,-0.8993783,-0.7873404,-0.5988407,-0.34702092,-0.031881273,0.32648957,0.6703026,0.9111928,0.9489813,0.7458793,0.3583486,-0.096086204,-0.48773205,-0.746366,-0.8788911,-0.920308,-0.9226089,-0.9180513,-0.9157503,-0.91667956,-0.9221222,-0.93079495,-0.9385385,-0.94260937,-0.9403527,-0.9294232,-0.9161928,-0.91212195,-0.91075027,-0.91712207,-0.92349386,-0.9212372,-0.9130069,-0.8998208,-0.8857055,-0.8761477,-0.8693334,-0.8579172,-0.8529171,-0.8515454,-0.8538463,-0.8584039,-0.85703224,-0.8501737,-0.84380186,-0.84105843,-0.83880174,-0.8315007,-0.8155711,-0.8010133,-0.79052633,-0.7850837,-0.7809686,-0.77685344,-0.7736676,-0.77048165,-0.7668532,-0.757738,-0.7399943,-0.7167636,-0.6962765,-0.6871612,-0.6830461,-0.67941767,-0.6753025,-0.65848804,-0.6366291,-0.61428344,-0.5910971,-0.5724242,-0.5551229,-0.5382641,-0.51959115,-0.49728972,-0.47587335,-0.45720035,-0.45264274,-0.45675784,-0.4640147,-0.47405916,-0.4818027,-0.49410385,-0.514591,-0.54326415,-0.5837961,-0.6302573,-0.6785327,-0.7231355,-0.7604814,-0.78915465,